1727, 17643712.000000, 1959.000000, 8166.000000, 8212.000000, 8204.000000
1728, 17643872.000000, 1950.500000, 8186.000000, 8218.000000, 8217.000000
1729, 17644032.000000, 1962.000000, 8187.000000, 8224.000000, 8224.000000
1730, 17644192.000000, 1974.500000, 8195.000000, 8233.000000, 8236.000000
1731, 17644352.000000, 1966.000000, 8209.000000, 8237.000000, 8247.000000
1732, 17644512.000000, 1931.000000, 8224.000000, 8261.000000, 8277.000000
1733, 17644672.000000, 1879.000000, 8236.000000, 8290.000000, 8312.000000
1734, 17644832.000000, 1820.000000, 8258.000000, 8307.000000, 8338.000000
1735, 17644992.000000, 1760.000000, 8265.000000, 8311.000000, 8343.000000
1736, 17645152.000000, 1698.500000, 8254.000000, 8293.000000, 8317.000000
1737, 17645312.000000, 1638.000000, 8227.000000, 8256.000000, 8274.000000
1738, 17645472.000000, 1591.000000, 8187.000000, 8205.000000, 8207.000000
1739, 17645632.000000, 1557.000000, 8162.000000, 8167.000000, 8154.000000
1740, 17645792.000000, 1530.500000, 8155.000000, 8158.000000, 8135.000000
1741, 17645952.000000, 1505.000000, 8158.000000, 8167.000000, 8152.000000
1742, 17646112.000000, 1480.000000, 8167.000000, 8166.000000, 8155.000000
1743, 17646272.000000, 1455.000000, 8162.000000, 8168.000000, 8157.000000
1744, 17646432.000000, 1431.000000, 8172.000000, 8168.000000, 8156.000000
1745, 17646592.000000, 1404.000000, 8170.000000, 8162.000000, 8153.000000
1746, 17646752.000000, 1379.500000, 8165.000000, 8162.000000, 8151.000000
1747, 17646912.000000, 1407.000000, 8178.000000, 8156.000000, 8144.000000
1748, 17647072.000000, 1544.500000, 8168.000000, 8157.000000, 8140.000000
1749, 17647232.000000, 1791.000000, 8160.000000, 8153.000000, 8133.000000
1750, 17647392.000000, 2074.500000, 8165.000000, 8161.000000, 8132.000000
1751, 17647552.000000, 2308.000000, 8176.000000, 8160.000000, 8145.000000
1752, 17647712.000000, 2437.000000, 8181.000000, 8170.000000, 8160.000000
1753, 17647872.000000, 2481.000000, 8165.000000, 8165.000000, 8152.000000
1754, 17648032.000000, 2464.000000, 8171.000000, 8163.000000, 8154.000000
1755, 17648192.000000, 2439.000000, 8174.000000, 8171.000000, 8164.000000
1756, 17648352.000000, 2419.500000, 8289.000000, 8237.000000, 8279.000000
1757, 17648512.000000, 2383.000000, 8475.000000, 8057.000000, 8197.000000
1758, 17648672.000000, 2312.500000, 8052.000000, 8120.000000, 8082.000000
1759, 17648832.000000, 2220.000000, 8108.000000, 8170.000000, 8105.000000
1760, 17648992.000000, 2141.000000, 8171.000000, 8198.000000, 8187.000000
1761, 17649152.000000, 2096.000000, 8188.000000, 8208.000000, 8208.000000
1762, 17649312.000000, 2085.500000, 8194.000000, 8215.000000, 8215.000000
1763, 17649472.000000, 2090.000000, 8208.000000, 8225.000000, 8237.000000
1764, 17649632.000000, 2086.000000, 8215.000000, 8225.000000, 8235.000000
1765, 17649792.000000, 2060.000000, 8229.000000, 8231.000000, 8247.000000
1766, 17649952.000000, 2019.000000, 8243.000000, 8255.000000, 8274.000000
1767, 17650112.000000, 1970.000000, 8266.000000, 8280.000000, 8312.000000
1768, 17650272.000000, 1912.500000, 8272.000000, 8275.000000, 8309.000000
1769, 17650432.000000, 1852.000000, 8268.000000, 8267.000000, 8297.000000
1770, 17650592.000000, 1782.500000, 8227.000000, 8239.000000, 8255.000000
1771, 17650752.000000, 1720.000000, 8190.000000, 8209.000000, 8215.000000
1772, 17650912.000000, 1675.000000, 8158.000000, 8176.000000, 8163.000000
1773, 17651072.000000, 1646.000000, 8154.000000, 8168.000000, 8152.000000
1774, 17651232.000000, 1621.500000, 8153.000000, 8167.000000, 8148.000000
1775, 17651392.000000, 1597.000000, 8161.000000, 8174.000000, 8161.000000
1776, 17651552.000000, 1572.000000, 8162.000000, 8174.000000, 8163.000000
1777, 17651712.000000, 1548.000000, 8167.000000, 8173.000000, 8162.000000
1778, 17651872.000000, 1513.500000, 8172.000000, 8174.000000, 8168.000000
1779, 17652032.000000, 1475.000000, 8171.000000, 8167.000000, 8158.000000
1780, 17652192.000000, 1463.500000, 8163.000000, 8164.000000, 8150.000000
1781, 17652352.000000, 1540.000000, 8164.000000, 8168.000000, 8153.000000
1782, 17652512.000000, 1733.500000, 8154.000000, 8161.000000, 8145.000000
1783, 17652672.000000, 2004.000000, 8165.000000, 8174.000000, 8153.000000
1784, 17652832.000000, 2245.000000, 8167.000000, 8163.000000, 8146.000000
1785, 17652992.000000, 2406.000000, 8175.000000, 8171.000000, 8159.000000
1786, 17653152.000000, 2462.000000, 8168.000000, 8166.000000, 8155.000000
1787, 17653312.000000, 2458.000000, 8172.000000, 8169.000000, 8157.000000
1788, 17653472.000000, 2430.000000, 8165.000000, 8172.000000, 8161.000000
1789, 17653632.000000, 2395.000000, 8173.000000, 8241.000000, 8249.000000
1790, 17653792.000000, 2341.000000, 8584.000000, 8091.000000, 8275.000000
1791, 17653952.000000, 2257.000000, 8048.000000, 8071.000000, 8044.000000
1792, 17654112.000000, 2159.000000, 8075.000000, 8140.000000, 8063.000000
1793, 17654272.000000, 2076.000000, 8149.000000, 8208.000000, 8179.000000
1794, 17654432.000000, 2032.500000, 8178.000000, 8214.000000, 8210.000000
1795, 17654592.000000, 2021.000000, 8183.000000, 8216.000000, 8215.000000
1796, 17654752.000000, 2028.000000, 8193.000000, 8228.000000, 8232.000000
1797, 17654912.000000, 2028.000000, 8201.000000, 8237.000000, 8242.000000
1798, 17655072.000000, 2011.500000, 8216.000000, 8247.000000, 8258.000000
1799, 17655232.000000, 1976.000000, 8221.000000, 8263.000000, 8281.000000
1800, 17655392.000000, 1923.500000, 8248.000000, 8287.000000, 8315.000000
1801, 17655552.000000, 1861.000000, 8256.000000, 8305.000000, 8331.000000
1802, 17655712.000000, 1794.000000, 8256.000000, 8293.000000, 8325.000000
1803, 17655872.000000, 1732.000000, 8228.000000, 8270.000000, 8291.000000
1804, 17656032.000000, 1682.500000, 8200.000000, 8225.000000, 8235.000000
1805, 17656192.000000, 1647.000000, 8161.000000, 8186.000000, 8171.000000
1806, 17656352.000000, 1615.500000, 8147.000000, 8169.000000, 8150.000000
1807, 17656512.000000, 1589.000000, 8153.000000, 8171.000000, 8156.000000
1808, 17656672.000000, 1556.000000, 8158.000000, 8173.000000, 8160.000000
1809, 17656832.000000, 1528.000000, 8153.000000, 8172.000000, 8159.000000
1810, 17656992.000000, 1506.000000, 8171.000000, 8176.000000, 8167.000000
1811, 17657152.000000, 1485.000000, 8155.000000, 8168.000000, 8149.000000
1812, 17657312.000000, 1452.500000, 8167.000000, 8166.000000, 8163.000000
1813, 17657472.000000, 1433.000000, 8164.000000, 8163.000000, 8154.000000
1814, 17657632.000000, 1492.000000, 8156.000000, 8154.000000, 8131.000000
1815, 17657792.000000, 1679.000000, 8168.000000, 8157.000000, 8148.000000
1816, 17657952.000000, 1969.500000, 8163.000000, 8158.000000, 8144.000000
1817, 17658112.000000, 2262.000000, 8146.000000, 8143.000000, 8116.000000
1818, 17658272.000000, 2472.000000, 8151.000000, 8158.000000, 8124.000000
1819, 17658432.000000, 2583.000000, 8149.000000, 8150.000000, 8115.000000
1820, 17658592.000000, 2605.500000, 8161.000000, 8148.000000, 8117.000000
1821, 17658752.000000, 2583.000000, 8164.000000, 8145.000000, 8120.000000
1822, 17658912.000000, 2549.500000, 8162.000000, 8160.000000, 8139.000000
1823, 17659072.000000, 2506.000000, 8163.000000, 8158.000000, 8136.000000
1824, 17659232.000000, 2440.500000, 8145.000000, 8215.000000, 8201.000000
1825, 17659392.000000, 2359.000000, 8597.000000, 8077.000000, 8254.000000
1826, 17659552.000000, 2280.500000, 8062.000000, 8055.000000, 8030.000000
1827, 17659712.000000, 2236.000000, 8063.000000, 8106.000000, 8023.000000
1828, 17659872.000000, 2241.000000, 8133.000000, 8184.000000, 8140.000000
1829, 17660032.000000, 2278.000000, 8171.000000, 8203.000000, 8194.000000
1830, 17660192.000000, 2313.000000, 8182.000000, 8205.000000, 8202.000000
1831, 17660352.000000, 2316.000000, 8186.000000, 8214.000000, 8215.000000
1832, 17660512.000000, 2303.000000, 8196.000000, 8214.000000, 8222.000000
1833, 17660672.000000, 2290.000000, 8207.000000, 8233.000000, 8236.000000
1834, 17660832.000000, 2268.500000, 8226.000000, 8249.000000, 8265.000000
1835, 17660992.000000, 2215.000000, 8246.000000, 8277.000000, 8296.000000
1836, 17661152.000000, 2138.000000, 8256.000000, 8284.000000, 8308.000000
1837, 17661312.000000, 2067.000000, 8255.000000, 8276.000000, 8297.000000
1838, 17661472.000000, 2013.000000, 8238.000000, 8252.000000, 8274.000000
1839, 17661632.000000, 1968.000000, 8212.000000, 8225.000000, 8227.000000
1840, 17661792.000000, 1926.500000, 8166.000000, 8179.000000, 8167.000000
1841, 17661952.000000, 1887.000000, 8149.000000, 8158.000000, 8141.000000
1842, 17662112.000000, 1857.500000, 8138.000000, 8163.000000, 8142.000000
1843, 17662272.000000, 1835.000000, 8156.000000, 8156.000000, 8141.000000
1844, 17662432.000000, 1802.500000, 8165.000000, 8164.000000, 8147.000000
1845, 17662592.000000, 1746.000000, 8161.000000, 8163.000000, 8150.000000
1846, 17662752.000000, 1672.000000, 8166.000000, 8163.000000, 8153.000000
1847, 17662912.000000, 1600.000000, 8160.000000, 8165.000000, 8147.000000
1848, 17663072.000000, 1558.500000, 8174.000000, 8154.000000, 8131.000000
1849, 17663232.000000, 1599.000000, 8157.000000, 8146.000000, 8122.000000
1850, 17663392.000000, 1793.500000, 8156.000000, 8155.000000, 8128.000000
1851, 17663552.000000, 2081.000000, 8157.000000, 8158.000000, 8134.000000
1852, 17663712.000000, 2369.000000, 8151.000000, 8163.000000, 8125.000000
1853, 17663872.000000, 2581.000000, 8159.000000, 8163.000000, 8128.000000
1854, 17664032.000000, 2708.000000, 8161.000000, 8155.000000, 8132.000000
1855, 17664192.000000, 2762.000000, 8173.000000, 8170.000000, 8149.000000
1856, 17664352.000000, 2766.000000, 8160.000000, 8159.000000, 8135.000000
1857, 17664512.000000, 2751.000000, 8163.000000, 8165.000000, 8151.000000
1858, 17664672.000000, 2734.500000, 8162.000000, 8172.000000, 8153.000000
1859, 17664832.000000, 2700.000000, 8202.000000, 8266.000000, 8278.000000
1860, 17664992.000000, 2629.500000, 8647.000000, 8067.000000, 8265.000000
1861, 17665152.000000, 2530.000000, 8031.000000, 8109.000000, 8063.000000
1862, 17665312.000000, 2437.000000, 8078.000000, 8141.000000, 8056.000000
1863, 17665472.000000, 2383.000000, 8153.000000, 8206.000000, 8185.000000
1864, 17665632.000000, 2370.000000, 8177.000000, 8210.000000, 8203.000000
1865, 17665792.000000, 2374.000000, 8189.000000, 8215.000000, 8208.000000
1866, 17665952.000000, 2370.500000, 8196.000000, 8208.000000, 8206.000000
1867, 17666112.000000, 2349.000000, 8204.000000, 8213.000000, 8218.000000
1868, 17666272.000000, 2310.000000, 8220.000000, 8223.000000, 8231.000000
1869, 17666432.000000, 2261.000000, 8238.000000, 8235.000000, 8247.000000
1870, 17666592.000000, 2198.500000, 8261.000000, 8245.000000, 8272.000000
1871, 17666752.000000, 2131.000000, 8271.000000, 8259.000000, 8285.000000
1872, 17666912.000000, 2068.500000, 8275.000000, 8250.000000, 8278.000000
1873, 17667072.000000, 2021.000000, 8247.000000, 8237.000000, 8251.000000
1874, 17667232.000000, 1984.000000, 8201.000000, 8196.000000, 8201.000000
1875, 17667392.000000, 1936.000000, 8161.000000, 8171.000000, 8158.000000
1876, 17667552.000000, 1877.000000, 8149.000000, 8154.000000, 8131.000000
1877, 17667712.000000, 1821.000000, 8149.000000, 8154.000000, 8131.000000
1878, 17667872.000000, 1794.000000, 8152.000000, 8166.000000, 8145.000000
1879, 17668032.000000, 1785.000000, 8163.000000, 8158.000000, 8142.000000
1880, 17668192.000000, 1769.000000, 8166.000000, 8165.000000, 8155.000000
1881, 17668352.000000, 1735.000000, 8171.000000, 8161.000000, 8154.000000
1882, 17668512.000000, 1687.000000, 8168.000000, 8165.000000, 8152.000000
1883, 17668672.000000, 1662.000000, 8161.000000, 8168.000000, 8151.000000
1884, 17668832.000000, 1727.000000, 8170.000000, 8151.000000, 8136.000000
1885, 17668992.000000, 1925.000000, 8164.000000, 8151.000000, 8136.000000
1886, 17669152.000000, 2218.000000, 8166.000000, 8161.000000, 8147.000000
1887, 17669312.000000, 2500.000000, 8158.000000, 8164.000000, 8143.000000
1888, 17669472.000000, 2688.000000, 8163.000000, 8177.000000, 8151.000000
1889, 17669632.000000, 2777.000000, 8182.000000, 8158.000000, 8149.000000
1890, 17669792.000000, 2785.500000, 8188.000000, 8171.000000, 8168.000000
1891, 17669952.000000, 2767.000000, 8175.000000, 8161.000000, 8155.000000
1892, 17670112.000000, 2738.000000, 8178.000000, 8168.000000, 8162.000000
1893, 17670272.000000, 2691.000000, 8178.000000, 8177.000000, 8171.000000
1894, 17670432.000000, 2618.000000, 8385.000000, 8234.000000, 8318.000000
1895, 17670592.000000, 2516.000000, 8431.000000, 8076.000000, 8194.000000
1896, 17670752.000000, 2402.000000, 8054.000000, 8134.000000, 8091.000000
1897, 17670912.000000, 2307.000000, 8122.000000, 8163.000000, 8102.000000
1898, 17671072.000000, 2256.500000, 8176.000000, 8199.000000, 8192.000000
1899, 17671232.000000, 2236.000000, 8204.000000, 8205.000000, 8210.000000
1900, 17671392.000000, 2227.000000, 8203.000000, 8208.000000, 8214.000000
1901, 17671552.000000, 2209.000000, 8208.000000, 8219.000000, 8227.000000
1902, 17671712.000000, 2178.500000, 8224.000000, 8222.000000, 8236.000000
1903, 17671872.000000, 2140.000000, 8235.000000, 8232.000000, 8248.000000
1904, 17672032.000000, 2097.500000, 8251.000000, 8252.000000, 8274.000000
1905, 17672192.000000, 2039.000000, 8279.000000, 8261.000000, 8298.000000
1906, 17672352.000000, 1966.000000, 8286.000000, 8267.000000, 8305.000000
1907, 17672512.000000, 1899.000000, 8280.000000, 8251.000000, 8283.000000
1908, 17672672.000000, 1856.500000, 8235.000000, 8238.000000, 8254.000000
1909, 17672832.000000, 1828.000000, 8200.000000, 8216.000000, 8228.000000
1910, 17672992.000000, 1806.500000, 8164.000000, 8186.000000, 8179.000000
1911, 17673152.000000, 1779.000000, 8151.000000, 8182.000000, 8166.000000
1912, 17673312.000000, 1756.500000, 8154.000000, 8182.000000, 8168.000000
1913, 17673472.000000, 1748.000000, 8163.000000, 8185.000000, 8171.000000
1914, 17673632.000000, 1750.000000, 8170.000000, 8175.000000, 8170.000000
1915, 17673792.000000, 1745.000000, 8173.000000, 8186.000000, 8181.000000
1916, 17673952.000000, 1719.500000, 8172.000000, 8185.000000, 8179.000000
1917, 17674112.000000, 1675.000000, 8185.000000, 8183.000000, 8180.000000
1918, 17674272.000000, 1654.500000, 8171.000000, 8174.000000, 8165.000000
1919, 17674432.000000, 1730.000000, 8169.000000, 8182.000000, 8176.000000
1920, 17674592.000000, 1945.000000, 8174.000000, 8168.000000, 8163.000000
1921, 17674752.000000, 2240.000000, 8161.000000, 8177.000000, 8158.000000
1922, 17674912.000000, 2523.000000, 8169.000000, 8183.000000, 8161.000000
1923, 17675072.000000, 2728.000000, 8173.000000, 8178.000000, 8169.000000
1924, 17675232.000000, 2817.500000, 8176.000000, 8177.000000, 8174.000000
1925, 17675392.000000, 2819.000000, 8168.000000, 8176.000000, 8163.000000
1926, 17675552.000000, 2774.500000, 8171.000000, 8179.000000, 8170.000000
1927, 17675712.000000, 2719.000000, 8164.000000, 8179.000000, 8176.000000
1928, 17675872.000000, 2653.500000, 8260.000000, 8268.000000, 8314.000000
1929, 17676032.000000, 2565.000000, 8559.000000, 8078.000000, 8242.000000
1930, 17676192.000000, 2449.000000, 8041.000000, 8125.000000, 8082.000000
1931, 17676352.000000, 2334.000000, 8078.000000, 8158.000000, 8085.000000
1932, 17676512.000000, 2250.500000, 8160.000000, 8213.000000, 8205.000000
1933, 17676672.000000, 2213.000000, 8184.000000, 8215.000000, 8221.000000
1934, 17676832.000000, 2213.500000, 8187.000000, 8218.000000, 8214.000000
1935, 17676992.000000, 2230.000000, 8191.000000, 8231.000000, 8235.000000
1936, 17677152.000000, 2242.500000, 8198.000000, 8235.000000, 8248.000000
1937, 17677312.000000, 2235.000000, 8219.000000, 8244.000000, 8253.000000
1938, 17677472.000000, 2205.500000, 8228.000000, 8259.000000, 8282.000000
1939, 17677632.000000, 2160.000000, 8265.000000, 8277.000000, 8311.000000
1940, 17677792.000000, 2103.500000, 8286.000000, 8278.000000, 8314.000000
1941, 17677952.000000, 2044.000000, 8257.000000, 8278.000000, 8302.000000
1942, 17678112.000000, 1986.500000, 8238.000000, 8246.000000, 8272.000000
1943, 17678272.000000, 1942.000000, 8194.000000, 8210.000000, 8214.000000
1944, 17678432.000000, 1906.500000, 8165.000000, 8188.000000, 8183.000000
1945, 17678592.000000, 1878.000000, 8143.000000, 8174.000000, 8157.000000
1946, 17678752.000000, 1871.000000, 8152.000000, 8167.000000, 8154.000000
1947, 17678912.000000, 1896.000000, 8153.000000, 8175.000000, 8160.000000
1948, 17679072.000000, 1922.000000, 8151.000000, 8174.000000, 8160.000000
1949, 17679232.000000, 1929.000000, 8159.000000, 8181.000000, 8166.000000
1950, 17679392.000000, 1903.000000, 8179.000000, 8169.000000, 8169.000000
1951, 17679552.000000, 1845.000000, 8171.000000, 8175.000000, 8170.000000
1952, 17679712.000000, 1795.000000, 8158.000000, 8177.000000, 8164.000000
1953, 17679872.000000, 1826.000000, 8163.000000, 8176.000000, 8168.000000
1954, 17680032.000000, 2020.500000, 8160.000000, 8169.000000, 8155.000000
1955, 17680192.000000, 2314.000000, 8153.000000, 8165.000000, 8144.000000
1956, 17680352.000000, 2583.000000, 8156.000000, 8183.000000, 8154.000000
1957, 17680512.000000, 2787.000000, 8158.000000, 8175.000000, 8150.000000
1958, 17680672.000000, 2897.000000, 8172.000000, 8169.000000, 8155.000000
1959, 17680832.000000, 2934.000000, 8173.000000, 8174.000000, 8163.000000
1960, 17680992.000000, 2900.000000, 8157.000000, 8177.000000, 8161.000000
1961, 17681152.000000, 2844.000000, 8167.000000, 8182.000000, 8169.000000
1962, 17681312.000000, 2768.500000, 8153.000000, 8235.000000, 8240.000000
1963, 17681472.000000, 2673.000000, 8584.000000, 8138.000000, 8312.000000
1964, 17681632.000000, 2551.500000, 8118.000000, 8093.000000, 8095.000000
1965, 17681792.000000, 2426.000000, 8053.000000, 8118.000000, 8043.000000
1966, 17681952.000000, 2327.000000, 8127.000000, 8194.000000, 8154.000000
1967, 17682112.000000, 2268.000000, 8174.000000, 8224.000000, 8227.000000
1968, 17682272.000000, 2226.500000, 8191.000000, 8230.000000, 8234.000000
1969, 17682432.000000, 2191.000000, 8193.000000, 8231.000000, 8237.000000
1970, 17682592.000000, 2142.000000, 8198.000000, 8241.000000, 8260.000000
1971, 17682752.000000, 2073.000000, 8209.000000, 8250.000000, 8270.000000
1972, 17682912.000000, 1991.000000, 8224.000000, 8263.000000, 8285.000000
1973, 17683072.000000, 1913.000000, 8252.000000, 8278.000000, 8307.000000
1974, 17683232.000000, 1842.500000, 8257.000000, 8291.000000, 8325.000000
1975, 17683392.000000, 1773.000000, 8261.000000, 8290.000000, 8323.000000
1976, 17683552.000000, 1700.500000, 8260.000000, 8268.000000, 8298.000000
1977, 17683712.000000, 1628.000000, 8217.000000, 8232.000000, 8252.000000
1978, 17683872.000000, 1560.500000, 8170.000000, 8184.000000, 8184.000000
1979, 17684032.000000, 1503.000000, 8159.000000, 8164.000000, 8155.000000
1980, 17684192.000000, 1463.500000, 8154.000000, 8153.000000, 8133.000000
1981, 17684352.000000, 1426.000000, 8154.000000, 8162.000000, 8150.000000
1982, 17684512.000000, 1393.000000, 8159.000000, 8164.000000, 8151.000000
1983, 17684672.000000, 1368.000000, 8158.000000, 8172.000000, 8163.000000
1984, 17684832.000000, 1340.000000, 8180.000000, 8168.000000, 8165.000000
1985, 17684992.000000, 1321.000000, 8170.000000, 8161.000000, 8150.000000
1986, 17685152.000000, 1396.000000, 8174.000000, 8172.000000, 8163.000000
1987, 17685312.000000, 1593.000000, 8168.000000, 8169.000000, 8162.000000
1988, 17685472.000000, 1869.000000, 8168.000000, 8162.000000, 8153.000000
1989, 17685632.000000, 2102.000000, 8157.000000, 8161.000000, 8137.000000
1990, 17685792.000000, 2250.000000, 8171.000000, 8182.000000, 8163.000000
1991, 17685952.000000, 2324.000000, 8181.000000, 8182.000000, 8178.000000
1992, 17686112.000000, 2325.500000, 8179.000000, 8171.000000, 8175.000000
1993, 17686272.000000, 2277.000000, 8178.000000, 8168.000000, 8164.000000
1994, 17686432.000000, 2209.500000, 8176.000000, 8167.000000, 8162.000000
1995, 17686592.000000, 2155.000000, 8176.000000, 8174.000000, 8169.000000
1996, 17686752.000000, 2101.000000, 8192.000000, 8248.000000, 8271.000000
1997, 17686912.000000, 2017.000000, 8698.000000, 8072.000000, 8296.000000
1998, 17687072.000000, 1899.500000, 8056.000000, 8093.000000, 8072.000000
1999, 17687232.000000, 1779.000000, 8072.000000, 8143.000000, 8070.000000
2000, 17687392.000000, 1703.000000, 8153.000000, 8204.000000, 8185.000000
2001, 17687552.000000, 1676.000000, 8175.000000, 8210.000000, 8210.000000
2002, 17687712.000000, 1679.000000, 8189.000000, 8228.000000, 8241.000000
2003, 17687872.000000, 1685.000000, 8194.000000, 8230.000000, 8242.000000
2004, 17688032.000000, 1677.500000, 8203.000000, 8228.000000, 8240.000000
2005, 17688192.000000, 1663.000000, 8208.000000, 8241.000000, 8255.000000
2006, 17688352.000000, 1636.000000, 8232.000000, 8258.000000, 8284.000000
2007, 17688512.000000, 1583.000000, 8244.000000, 8280.000000, 8306.000000
2008, 17688672.000000, 1500.000000, 8261.000000, 8291.000000, 8324.000000
2009, 17688832.000000, 1414.000000, 8260.000000, 8281.000000, 8315.000000
2010, 17688992.000000, 1349.500000, 8242.000000, 8262.000000, 8288.000000
2011, 17689152.000000, 1290.000000, 8204.000000, 8228.000000, 8239.000000
2012, 17689312.000000, 1229.000000, 8168.000000, 8184.000000, 8173.000000
2013, 17689472.000000, 1177.000000, 8151.000000, 8169.000000, 8161.000000
2014, 17689632.000000, 1142.000000, 8138.000000, 8171.000000, 8150.000000
2015, 17689792.000000, 1123.000000, 8147.000000, 8171.000000, 8154.000000
2016, 17689952.000000, 1109.000000, 8153.000000, 8173.000000, 8156.000000
2017, 17690112.000000, 1086.000000, 8165.000000, 8177.000000, 8168.000000
2018, 17690272.000000, 1071.500000, 8156.000000, 8174.000000, 8161.000000
2019, 17690432.000000, 1103.000000, 8154.000000, 8172.000000, 8156.000000
2020, 17690592.000000, 1232.000000, 8151.000000, 8163.000000, 8141.000000
2021, 17690752.000000, 1481.000000, 8154.000000, 8166.000000, 8148.000000
2022, 17690912.000000, 1799.500000, 8153.000000, 8156.000000, 8133.000000
2023, 17691072.000000, 2112.000000, 8165.000000, 8165.000000, 8138.000000
2024, 17691232.000000, 2331.000000, 8157.000000, 8162.000000, 8138.000000
2025, 17691392.000000, 2439.000000, 8155.000000, 8167.000000, 8148.000000
2026, 17691552.000000, 2436.000000, 8154.000000, 8160.000000, 8146.000000
2027, 17691712.000000, 2395.000000, 8150.000000, 8162.000000, 8145.000000
2028, 17691872.000000, 2359.000000, 8161.000000, 8170.000000, 8157.000000
2029, 17692032.000000, 2324.000000, 8256.000000, 8264.000000, 8300.000000
2030, 17692192.000000, 2253.000000, 8606.000000, 8033.000000, 8212.000000
2031, 17692352.000000, 2141.000000, 8020.000000, 8115.000000, 8056.000000
2032, 17692512.000000, 2016.500000, 8075.000000, 8150.000000, 8067.000000
2033, 17692672.000000, 1902.000000, 8146.000000, 8207.000000, 8186.000000
2034, 17692832.000000, 1807.500000, 8162.000000, 8213.000000, 8194.000000
2035, 17692992.000000, 1735.000000, 8178.000000, 8210.000000, 8202.000000
2036, 17693152.000000, 1706.500000, 8185.000000, 8211.000000, 8206.000000
2037, 17693312.000000, 1710.000000, 8193.000000, 8224.000000, 8224.000000
2038, 17693472.000000, 1714.000000, 8204.000000, 8232.000000, 8231.000000
2039, 17693632.000000, 1695.000000, 8221.000000, 8251.000000, 8255.000000
2040, 17693792.000000, 1659.500000, 8250.000000, 8267.000000, 8287.000000
2041, 17693952.000000, 1615.000000, 8255.000000, 8272.000000, 8293.000000
2042, 17694112.000000, 1555.500000, 8251.000000, 8263.000000, 8277.000000
2043, 17694272.000000, 1485.000000, 8223.000000, 8234.000000, 8236.000000
2044, 17694432.000000, 1419.000000, 8180.000000, 8202.000000, 8197.000000
2045, 17694592.000000, 1363.000000, 8150.000000, 8183.000000, 8162.000000
2046, 17694752.000000, 1318.500000, 8142.000000, 8164.000000, 8136.000000
2047, 17694912.000000, 1277.000000, 8134.000000, 8163.000000, 8130.000000
2048, 17695072.000000, 1238.000000, 8140.000000, 8156.000000, 8123.000000
2049, 17695232.000000, 1197.000000, 8162.000000, 8174.000000, 8157.000000
2050, 17695392.000000, 1149.500000, 8175.000000, 8170.000000, 8158.000000
2051, 17695552.000000, 1106.000000, 8166.000000, 8167.000000, 8147.000000
2052, 17695712.000000, 1101.500000, 8170.000000, 8163.000000, 8142.000000
2053, 17695872.000000, 1222.000000, 8163.000000, 8161.000000, 8139.000000
2054, 17696032.000000, 1491.500000, 8163.000000, 8153.000000, 8133.000000
2055, 17696192.000000, 1830.000000, 8173.000000, 8167.000000, 8144.000000
2056, 17696352.000000, 2095.500000, 8174.000000, 8166.000000, 8143.000000
2057, 17696512.000000, 2243.000000, 8192.000000, 8161.000000, 8144.000000
2058, 17696672.000000, 2278.500000, 8182.000000, 8160.000000, 8151.000000
2059, 17696832.000000, 2253.000000, 8179.000000, 8153.000000, 8142.000000
2060, 17696992.000000, 2201.000000, 8183.000000, 8168.000000, 8159.000000
2061, 17697152.000000, 2135.000000, 8162.000000, 8198.000000, 8193.000000
2062, 17697312.000000, 2065.000000, 8447.000000, 8210.000000, 8323.000000
2063, 17697472.000000, 1979.000000, 8350.000000, 8044.000000, 8132.000000
2064, 17697632.000000, 1868.000000, 8048.000000, 8116.000000, 8053.000000
2065, 17697792.000000, 1751.000000, 8105.000000, 8174.000000, 8109.000000
2066, 17697952.000000, 1642.000000, 8175.000000, 8208.000000, 8208.000000
2067, 17698112.000000, 1581.000000, 8192.000000, 8215.000000, 8226.000000
2068, 17698272.000000, 1587.000000, 8197.000000, 8213.000000, 8221.000000
2069, 17698432.000000, 1632.000000, 8203.000000, 8224.000000, 8232.000000
2070, 17698592.000000, 1668.500000, 8218.000000, 8234.000000, 8252.000000
2071, 17698752.000000, 1671.000000, 8225.000000, 8238.000000, 8259.000000
2072, 17698912.000000, 1649.000000, 8240.000000, 8269.000000, 8298.000000
2073, 17699072.000000, 1624.000000, 8261.000000, 8275.000000, 8306.000000
2074, 17699232.000000, 1599.000000, 8268.000000, 8286.000000, 8316.000000
2075, 17699392.000000, 1576.000000, 8257.000000, 8262.000000, 8290.000000
2076, 17699552.000000, 1551.000000, 8229.000000, 8237.000000, 8261.000000
2077, 17699712.000000, 1514.000000, 8191.000000, 8200.000000, 8208.000000
2078, 17699872.000000, 1480.000000, 8162.000000, 8181.000000, 8174.000000
2079, 17700032.000000, 1461.000000, 8147.000000, 8166.000000, 8151.000000
2080, 17700192.000000, 1461.000000, 8154.000000, 8177.000000, 8167.000000
2081, 17700352.000000, 1462.000000, 8162.000000, 8173.000000, 8164.000000
2082, 17700512.000000, 1450.500000, 8166.000000, 8173.000000, 8171.000000
2083, 17700672.000000, 1428.000000, 8173.000000, 8176.000000, 8173.000000
2084, 17700832.000000, 1400.000000, 8165.000000, 8173.000000, 8162.000000
2085, 17700992.000000, 1402.000000, 8171.000000, 8176.000000, 8177.000000
2086, 17701152.000000, 1504.000000, 8167.000000, 8170.000000, 8163.000000
2087, 17701312.000000, 1749.000000, 8169.000000, 8183.000000, 8175.000000
2088, 17701472.000000, 2082.000000, 8193.000000, 8177.000000, 8173.000000
2089, 17701632.000000, 2392.000000, 8176.000000, 8165.000000, 8158.000000
2090, 17701792.000000, 2577.000000, 8165.000000, 8172.000000, 8165.000000
2091, 17701952.000000, 2647.000000, 8163.000000, 8171.000000, 8163.000000
2092, 17702112.000000, 2637.000000, 8169.000000, 8182.000000, 8174.000000
2093, 17702272.000000, 2592.000000, 8176.000000, 8224.000000, 8234.000000
2094, 17702432.000000, 2533.000000, 8571.000000, 8115.000000, 8287.000000
2095, 17702592.000000, 2458.000000, 8064.000000, 8093.000000, 8077.000000
2096, 17702752.000000, 2356.500000, 8072.000000, 8122.000000, 8049.000000
2097, 17702912.000000, 2239.000000, 8143.000000, 8178.000000, 8139.000000
2098, 17703072.000000, 2110.500000, 8180.000000, 8182.000000, 8177.000000
2099, 17703232.000000, 1991.000000, 8188.000000, 8197.000000, 8199.000000
2100, 17703392.000000, 1914.000000, 8193.000000, 8214.000000, 8212.000000
2101, 17703552.000000, 1876.000000, 8194.000000, 8222.000000, 8224.000000
2102, 17703712.000000, 1867.500000, 8196.000000, 8236.000000, 8238.000000
2103, 17703872.000000, 1858.000000, 8215.000000, 8256.000000, 8268.000000
2104, 17704032.000000, 1844.500000, 8245.000000, 8270.000000, 8292.000000
2105, 17704192.000000, 1828.000000, 8258.000000, 8288.000000, 8317.000000
2106, 17704352.000000, 1786.000000, 8261.000000, 8276.000000, 8303.000000
2107, 17704512.000000, 1727.000000, 8243.000000, 8265.000000, 8288.000000
2108, 17704672.000000, 1645.000000, 8202.000000, 8236.000000, 8246.000000
2109, 17704832.000000, 1560.000000, 8172.000000, 8213.000000, 8209.000000
2110, 17704992.000000, 1497.000000, 8159.000000, 8191.000000, 8184.000000
2111, 17705152.000000, 1453.000000, 8160.000000, 8193.000000, 8185.000000
2112, 17705312.000000, 1410.500000, 8161.000000, 8186.000000, 8171.000000
2113, 17705472.000000, 1358.000000, 8170.000000, 8186.000000, 8177.000000
2114, 17705632.000000, 1295.500000, 8179.000000, 8193.000000, 8190.000000
2115, 17705792.000000, 1246.000000, 8180.000000, 8185.000000, 8184.000000
2116, 17705952.000000, 1239.500000, 8172.000000, 8180.000000, 8178.000000
2117, 17706112.000000, 1328.000000, 8172.000000, 8182.000000, 8184.000000
2118, 17706272.000000, 1570.000000, 8177.000000, 8191.000000, 8198.000000
2119, 17706432.000000, 1961.000000, 8187.000000, 8176.000000, 8176.000000
2120, 17706592.000000, 2378.000000, 8185.000000, 8187.000000, 8197.000000
2121, 17706752.000000, 2701.000000, 8164.000000, 8174.000000, 8165.000000
2122, 17706912.000000, 2860.500000, 8165.000000, 8177.000000, 8168.000000
2123, 17707072.000000, 2910.000000, 8171.000000, 8177.000000, 8168.000000
2124, 17707232.000000, 2891.000000, 8176.000000, 8240.000000, 8246.000000
2125, 17707392.000000, 2852.000000, 8608.000000, 8104.000000, 8292.000000
2126, 17707552.000000, 2802.000000, 8052.000000, 8090.000000, 8066.000000
2127, 17707712.000000, 2734.000000, 8077.000000, 8144.000000, 8065.000000
2128, 17707872.000000, 2628.000000, 8147.000000, 8193.000000, 8168.000000
2129, 17708032.000000, 2502.000000, 8175.000000, 8213.000000, 8207.000000
2130, 17708192.000000, 2381.000000, 8184.000000, 8220.000000, 8218.000000
2131, 17708352.000000, 2292.000000, 8192.000000, 8219.000000, 8222.000000
2132, 17708512.000000, 2238.500000, 8210.000000, 8231.000000, 8234.000000
2133, 17708672.000000, 2202.000000, 8212.000000, 8233.000000, 8245.000000
2134, 17708832.000000, 2180.000000, 8226.000000, 8255.000000, 8275.000000
2135, 17708992.000000, 2188.000000, 8257.000000, 8272.000000, 8302.000000
2136, 17709152.000000, 2196.500000, 8261.000000, 8277.000000, 8306.000000
2137, 17709312.000000, 2166.000000, 8263.000000, 8275.000000, 8303.000000
2138, 17709472.000000, 2091.000000, 8239.000000, 8246.000000, 8268.000000
2139, 17709632.000000, 2017.000000, 8195.000000, 8215.000000, 8222.000000
2140, 17709792.000000, 1965.000000, 8171.000000, 8190.000000, 8183.000000
2141, 17709952.000000, 1903.000000, 8151.000000, 8163.000000, 8151.000000
2142, 17710112.000000, 1817.000000, 8154.000000, 8163.000000, 8149.000000
2143, 17710272.000000, 1727.000000, 8160.000000, 8168.000000, 8156.000000
2144, 17710432.000000, 1665.500000, 8167.000000, 8169.000000, 8156.000000
2145, 17710592.000000, 1602.000000, 8172.000000, 8163.000000, 8157.000000
2146, 17710752.000000, 1528.500000, 8168.000000, 8154.000000, 8139.000000
2147, 17710912.000000, 1477.000000, 8160.000000, 8142.000000, 8126.000000
2148, 17711072.000000, 1522.500000, 8171.000000, 8152.000000, 8145.000000
2149, 17711232.000000, 1729.000000, 8182.000000, 8152.000000, 8160.000000
2150, 17711392.000000, 2084.500000, 8180.000000, 8150.000000, 8147.000000
2151, 17711552.000000, 2499.000000, 8161.000000, 8153.000000, 8134.000000
2152, 17711712.000000, 2840.500000, 8147.000000, 8152.000000, 8125.000000
2153, 17711872.000000, 3048.000000, 8160.000000, 8162.000000, 8136.000000
2154, 17712032.000000, 3104.500000, 8153.000000, 8171.000000, 8146.000000
2155, 17712192.000000, 3089.000000, 8271.000000, 8266.000000, 8294.000000
2156, 17712352.000000, 3040.000000, 8537.000000, 8059.000000, 8216.000000
2157, 17712512.000000, 2964.000000, 8033.000000, 8116.000000, 8057.000000
2158, 17712672.000000, 2857.500000, 8089.000000, 8165.000000, 8082.000000
2159, 17712832.000000, 2722.000000, 8166.000000, 8219.000000, 8195.000000
2160, 17712992.000000, 2568.500000, 8179.000000, 8221.000000, 8208.000000
2161, 17713152.000000, 2421.000000, 8176.000000, 8223.000000, 8218.000000
2162, 17713312.000000, 2298.000000, 8196.000000, 8225.000000, 8227.000000
2163, 17713472.000000, 2217.000000, 8217.000000, 8231.000000, 8239.000000
2164, 17713632.000000, 2188.500000, 8218.000000, 8244.000000, 8250.000000
2165, 17713792.000000, 2179.000000, 8237.000000, 8273.000000, 8298.000000
2166, 17713952.000000, 2163.500000, 8259.000000, 8284.000000, 8314.000000
2167, 17714112.000000, 2127.000000, 8256.000000, 8282.000000, 8304.000000
2168, 17714272.000000, 2074.000000, 8248.000000, 8278.000000, 8300.000000
2169, 17714432.000000, 2005.000000, 8233.000000, 8247.000000, 8277.000000
2170, 17714592.000000, 1926.000000, 8189.000000, 8214.000000, 8225.000000
2171, 17714752.000000, 1845.000000, 8172.000000, 8173.000000, 8175.000000
2172, 17714912.000000, 1777.000000, 8158.000000, 8165.000000, 8158.000000
2173, 17715072.000000, 1724.000000, 8162.000000, 8169.000000, 8160.000000
2174, 17715232.000000, 1688.500000, 8173.000000, 8166.000000, 8163.000000
2175, 17715392.000000, 1660.000000, 8168.000000, 8169.000000, 8166.000000
2176, 17715552.000000, 1642.000000, 8167.000000, 8171.000000, 8166.000000
2177, 17715712.000000, 1631.000000, 8165.000000, 8168.000000, 8163.000000
2178, 17715872.000000, 1671.000000, 8169.000000, 8164.000000, 8160.000000
2179, 17716032.000000, 1832.000000, 8172.000000, 8165.000000, 8173.000000
2180, 17716192.000000, 2161.500000, 8179.000000, 8160.000000, 8176.000000
2181, 17716352.000000, 2580.000000, 8182.000000, 8164.000000, 8168.000000
2182, 17716512.000000, 2967.000000, 8155.000000, 8155.000000, 8140.000000
2183, 17716672.000000, 3245.000000, 8166.000000, 8157.000000, 8143.000000
2184, 17716832.000000, 3386.000000, 8158.000000, 8157.000000, 8138.000000
2185, 17716992.000000, 3424.000000, 8136.000000, 8192.000000, 8180.000000
2186, 17717152.000000, 3392.500000, 8498.000000, 8157.000000, 8290.000000
2187, 17717312.000000, 3339.000000, 8247.000000, 8035.000000, 8087.000000
2188, 17717472.000000, 3268.500000, 8038.000000, 8109.000000, 8034.000000
2189, 17717632.000000, 3160.000000, 8113.000000, 8169.000000, 8112.000000
2190, 17717792.000000, 3017.500000, 8166.000000, 8202.000000, 8188.000000
2191, 17717952.000000, 2830.000000, 8169.000000, 8217.000000, 8213.000000
2192, 17718112.000000, 2646.500000, 8182.000000, 8205.000000, 8200.000000
2193, 17718272.000000, 2516.000000, 8196.000000, 8218.000000, 8224.000000
2194, 17718432.000000, 2463.500000, 8206.000000, 8228.000000, 8244.000000
2195, 17718592.000000, 2438.000000, 8220.000000, 8238.000000, 8254.000000
2196, 17718752.000000, 2406.500000, 8242.000000, 8252.000000, 8276.000000
2197, 17718912.000000, 2366.000000, 8254.000000, 8271.000000, 8299.000000
2198, 17719072.000000, 2325.000000, 8252.000000, 8251.000000, 8272.000000
2199, 17719232.000000, 2282.000000, 8243.000000, 8255.000000, 8280.000000
2200, 17719392.000000, 2227.000000, 8209.000000, 8226.000000, 8238.000000
2201, 17719552.000000, 2144.000000, 8166.000000, 8192.000000, 8186.000000
2202, 17719712.000000, 2043.500000, 8145.000000, 8173.000000, 8153.000000
2203, 17719872.000000, 1970.000000, 8143.000000, 8181.000000, 8160.000000
2204, 17720032.000000, 1925.500000, 8139.000000, 8192.000000, 8176.000000
2205, 17720192.000000, 1874.000000, 8155.000000, 8191.000000, 8178.000000
2206, 17720352.000000, 1801.000000, 8171.000000, 8187.000000, 8182.000000
2207, 17720512.000000, 1741.000000, 8166.000000, 8185.000000, 8175.000000
2208, 17720672.000000, 1697.000000, 8163.000000, 8182.000000, 8168.000000
2209, 17720832.000000, 1691.000000, 8161.000000, 8175.000000, 8164.000000
2210, 17720992.000000, 1828.000000, 8182.000000, 8175.000000, 8175.000000
2211, 17721152.000000, 2140.000000, 8188.000000, 8174.000000, 8192.000000
2212, 17721312.000000, 2549.500000, 8196.000000, 8167.000000, 8173.000000
2213, 17721472.000000, 2890.000000, 8170.000000, 8166.000000, 8141.000000
2214, 17721632.000000, 3085.500000, 8171.000000, 8171.000000, 8154.000000
2215, 17721792.000000, 3155.000000, 8161.000000, 8170.000000, 8151.000000
2216, 17721952.000000, 3142.000000, 8150.000000, 8181.000000, 8160.000000
2217, 17722112.000000, 3099.000000, 8342.000000, 8243.000000, 8316.000000
2218, 17722272.000000, 3038.000000, 8538.000000, 8006.000000, 8164.000000
2219, 17722432.000000, 2962.000000, 8032.000000, 8110.000000, 8041.000000
2220, 17722592.000000, 2862.500000, 8096.000000, 8161.000000, 8082.000000
2221, 17722752.000000, 2733.000000, 8156.000000, 8199.000000, 8170.000000
2222, 17722912.000000, 2591.000000, 8189.000000, 8211.000000, 8210.000000
2223, 17723072.000000, 2471.000000, 8187.000000, 8210.000000, 8202.000000
2224, 17723232.000000, 2416.000000, 8196.000000, 8226.000000, 8226.000000
2225, 17723392.000000, 2420.000000, 8209.000000, 8232.000000, 8236.000000
2226, 17723552.000000, 2443.000000, 8211.000000, 8245.000000, 8253.000000
2227, 17723712.000000, 2452.000000, 8237.000000, 8256.000000, 8273.000000
2228, 17723872.000000, 2432.000000, 8250.000000, 8277.000000, 8299.000000
2229, 17724032.000000, 2395.000000, 8254.000000, 8279.000000, 8299.000000
2230, 17724192.000000, 2357.000000, 8251.000000, 8270.000000, 8290.000000
2231, 17724352.000000, 2332.000000, 8222.000000, 8241.000000, 8254.000000
2232, 17724512.000000, 2306.500000, 8192.000000, 8200.000000, 8197.000000
2233, 17724672.000000, 2259.000000, 8173.000000, 8177.000000, 8168.000000
2234, 17724832.000000, 2176.500000, 8151.000000, 8173.000000, 8151.000000
2235, 17724992.000000, 2086.000000, 8162.000000, 8171.000000, 8156.000000
2236, 17725152.000000, 2002.000000, 8160.000000, 8175.000000, 8161.000000
2237, 17725312.000000, 1927.000000, 8168.000000, 8173.000000, 8160.000000
2238, 17725472.000000, 1835.500000, 8165.000000, 8165.000000, 8154.000000
2239, 17725632.000000, 1711.000000, 8166.000000, 8151.000000, 8135.000000
2240, 17725792.000000, 1624.500000, 8169.000000, 8148.000000, 8130.000000
2241, 17725952.000000, 1678.000000, 8169.000000, 8144.000000, 8122.000000
2242, 17726112.000000, 1960.500000, 8167.000000, 8144.000000, 8137.000000
2243, 17726272.000000, 2379.000000, 8180.000000, 8140.000000, 8147.000000
2244, 17726432.000000, 2809.000000, 8187.000000, 8135.000000, 8133.000000
2245, 17726592.000000, 3125.000000, 8175.000000, 8146.000000, 8124.000000
2246, 17726752.000000, 3293.500000, 8170.000000, 8144.000000, 8119.000000
2247, 17726912.000000, 3334.000000, 8162.000000, 8144.000000, 8115.000000
2248, 17727072.000000, 3287.000000, 8160.000000, 8178.000000, 8154.000000
2249, 17727232.000000, 3201.000000, 8335.000000, 8256.000000, 8306.000000
2250, 17727392.000000, 3109.500000, 8512.000000, 8045.000000, 8179.000000
2251, 17727552.000000, 3016.000000, 8021.000000, 8133.000000, 8056.000000
2252, 17727712.000000, 2897.000000, 8082.000000, 8185.000000, 8097.000000
2253, 17727872.000000, 2749.000000, 8159.000000, 8216.000000, 8193.000000
2254, 17728032.000000, 2589.500000, 8181.000000, 8210.000000, 8198.000000
2255, 17728192.000000, 2439.000000, 8190.000000, 8216.000000, 8206.000000
2256, 17728352.000000, 2331.000000, 8201.000000, 8211.000000, 8206.000000
2257, 17728512.000000, 2264.000000, 8210.000000, 8222.000000, 8223.000000
2258, 17728672.000000, 2220.500000, 8226.000000, 8235.000000, 8245.000000
2259, 17728832.000000, 2182.000000, 8240.000000, 8256.000000, 8267.000000
2260, 17728992.000000, 2141.500000, 8253.000000, 8267.000000, 8287.000000
2261, 17729152.000000, 2114.000000, 8268.000000, 8279.000000, 8303.000000
2262, 17729312.000000, 2099.500000, 8262.000000, 8256.000000, 8284.000000
2263, 17729472.000000, 2072.000000, 8227.000000, 8234.000000, 8254.000000
2264, 17729632.000000, 2008.000000, 8201.000000, 8202.000000, 8215.000000
2265, 17729792.000000, 1932.000000, 8177.000000, 8170.000000, 8171.000000
2266, 17729952.000000, 1857.000000, 8162.000000, 8158.000000, 8145.000000
2267, 17730112.000000, 1801.000000, 8168.000000, 8162.000000, 8155.000000
2268, 17730272.000000, 1762.500000, 8171.000000, 8157.000000, 8148.000000
2269, 17730432.000000, 1746.000000, 8171.000000, 8172.000000, 8167.000000
2270, 17730592.000000, 1729.000000, 8170.000000, 8167.000000, 8160.000000
2271, 17730752.000000, 1694.000000, 8176.000000, 8172.000000, 8165.000000
2272, 17730912.000000, 1680.000000, 8170.000000, 8163.000000, 8152.000000
2273, 17731072.000000, 1779.000000, 8172.000000, 8169.000000, 8163.000000
2274, 17731232.000000, 2084.500000, 8189.000000, 8170.000000, 8189.000000
2275, 17731392.000000, 2506.000000, 8181.000000, 8162.000000, 8170.000000
2276, 17731552.000000, 2930.500000, 8170.000000, 8166.000000, 8155.000000
2277, 17731712.000000, 3255.000000, 8156.000000, 8164.000000, 8141.000000
2278, 17731872.000000, 3434.500000, 8168.000000, 8163.000000, 8144.000000
2279, 17732032.000000, 3482.000000, 8155.000000, 8168.000000, 8155.000000
2280, 17732192.000000, 3453.500000, 8286.000000, 8244.000000, 8280.000000
2281, 17732352.000000, 3407.000000, 8481.000000, 8067.000000, 8197.000000
2282, 17732512.000000, 3335.500000, 8033.000000, 8118.000000, 8053.000000
2283, 17732672.000000, 3223.000000, 8085.000000, 8145.000000, 8057.000000
2284, 17732832.000000, 3065.500000, 8156.000000, 8175.000000, 8138.000000
2285, 17732992.000000, 2906.000000, 8177.000000, 8177.000000, 8152.000000
2286, 17733152.000000, 2776.500000, 8181.000000, 8181.000000, 8159.000000
2287, 17733312.000000, 2676.000000, 8192.000000, 8192.000000, 8171.000000
2288, 17733472.000000, 2603.000000, 8205.000000, 8198.000000, 8186.000000
2289, 17733632.000000, 2555.000000, 8216.000000, 8216.000000, 8215.000000
2290, 17733792.000000, 2528.500000, 8237.000000, 8239.000000, 8242.000000
2291, 17733952.000000, 2497.000000, 8237.000000, 8273.000000, 8282.000000
2292, 17734112.000000, 2439.500000, 8242.000000, 8290.000000, 8290.000000
2293, 17734272.000000, 2355.000000, 8230.000000, 8291.000000, 8301.000000
2294, 17734432.000000, 2252.500000, 8196.000000, 8274.000000, 8274.000000
2295, 17734592.000000, 2147.000000, 8185.000000, 8237.000000, 8230.000000
2296, 17734752.000000, 2035.000000, 8144.000000, 8200.000000, 8175.000000
2297, 17734912.000000, 1932.000000, 8142.000000, 8179.000000, 8155.000000
2298, 17735072.000000, 1841.000000, 8150.000000, 8186.000000, 8165.000000
2299, 17735232.000000, 1752.000000, 8160.000000, 8168.000000, 8152.000000
2300, 17735392.000000, 1671.000000, 8161.000000, 8174.000000, 8157.000000
2301, 17735552.000000, 1588.000000, 8176.000000, 8169.000000, 8154.000000
2302, 17735712.000000, 1497.000000, 8173.000000, 8172.000000, 8157.000000
2303, 17735872.000000, 1427.000000, 8168.000000, 8172.000000, 8163.000000
2304, 17736032.000000, 1521.000000, 8170.000000, 8177.000000, 8179.000000
2305, 17736192.000000, 1829.000000, 8183.000000, 8171.000000, 8184.000000
2306, 17736352.000000, 2312.000000, 8196.000000, 8169.000000, 8181.000000
2307, 17736512.000000, 2789.000000, 8170.000000, 8168.000000, 8157.000000
2308, 17736672.000000, 3138.000000, 8164.000000, 8164.000000, 8147.000000
2309, 17736832.000000, 3341.000000, 8164.000000, 8168.000000, 8153.000000
2310, 17736992.000000, 3417.000000, 8147.000000, 8213.000000, 8204.000000
2311, 17737152.000000, 3413.000000, 8479.000000, 8172.000000, 8294.000000
2312, 17737312.000000, 3379.500000, 8207.000000, 8064.000000, 8095.000000
2313, 17737472.000000, 3332.000000, 8056.000000, 8120.000000, 8043.000000
2314, 17737632.000000, 3267.000000, 8114.000000, 8188.000000, 8127.000000
2315, 17737792.000000, 3166.000000, 8160.000000, 8198.000000, 8176.000000
2316, 17737952.000000, 3023.000000, 8181.000000, 8212.000000, 8200.000000
2317, 17738112.000000, 2871.000000, 8185.000000, 8215.000000, 8212.000000
2318, 17738272.000000, 2757.500000, 8191.000000, 8223.000000, 8223.000000
2319, 17738432.000000, 2708.000000, 8204.000000, 8234.000000, 8237.000000
2320, 17738592.000000, 2695.500000, 8219.000000, 8252.000000, 8263.000000
2321, 17738752.000000, 2668.000000, 8240.000000, 8265.000000, 8290.000000
2322, 17738912.000000, 2624.000000, 8245.000000, 8270.000000, 8296.000000
2323, 17739072.000000, 2585.000000, 8246.000000, 8280.000000, 8297.000000
2324, 17739232.000000, 2545.000000, 8233.000000, 8259.000000, 8275.000000
2325, 17739392.000000, 2467.000000, 8207.000000, 8226.000000, 8237.000000
2326, 17739552.000000, 2345.500000, 8171.000000, 8195.000000, 8188.000000
2327, 17739712.000000, 2211.000000, 8157.000000, 8172.000000, 8154.000000
2328, 17739872.000000, 2095.500000, 8154.000000, 8166.000000, 8146.000000
2329, 17740032.000000, 2005.000000, 8165.000000, 8171.000000, 8156.000000
2330, 17740192.000000, 1921.500000, 8172.000000, 8171.000000, 8155.000000
2331, 17740352.000000, 1841.000000, 8166.000000, 8165.000000, 8153.000000
2332, 17740512.000000, 1761.000000, 8168.000000, 8172.000000, 8161.000000
2333, 17740672.000000, 1672.000000, 8166.000000, 8182.000000, 8164.000000
2334, 17740832.000000, 1607.500000, 8157.000000, 8149.000000, 8133.000000
2335, 17740992.000000, 1654.000000, 8153.000000, 8129.000000, 8114.000000
2336, 17741152.000000, 1932.000000, 8161.000000, 8128.000000, 8123.000000
2337, 17741312.000000, 2387.000000, 8165.000000, 8140.000000, 8141.000000
2338, 17741472.000000, 2864.500000, 8178.000000, 8148.000000, 8134.000000
2339, 17741632.000000, 3221.000000, 8162.000000, 8161.000000, 8136.000000
2340, 17741792.000000, 3402.000000, 8158.000000, 8158.000000, 8123.000000
2341, 17741952.000000, 3459.000000, 8170.000000, 8175.000000, 8160.000000
2342, 17742112.000000, 3449.000000, 8204.000000, 8252.000000, 8263.000000
2343, 17742272.000000, 3398.000000, 8648.000000, 8074.000000, 8263.000000
2344, 17742432.000000, 3306.500000, 8049.000000, 8099.000000, 8061.000000
2345, 17742592.000000, 3180.000000, 8089.000000, 8144.000000, 8057.000000
2346, 17742752.000000, 3028.500000, 8167.000000, 8200.000000, 8185.000000
2347, 17742912.000000, 2886.000000, 8188.000000, 8210.000000, 8212.000000
2348, 17743072.000000, 2777.000000, 8192.000000, 8219.000000, 8224.000000
2349, 17743232.000000, 2698.000000, 8202.000000, 8231.000000, 8241.000000
2350, 17743392.000000, 2637.000000, 8209.000000, 8230.000000, 8246.000000
2351, 17743552.000000, 2609.000000, 8222.000000, 8242.000000, 8265.000000
2352, 17743712.000000, 2620.500000, 8239.000000, 8261.000000, 8289.000000
2353, 17743872.000000, 2639.000000, 8250.000000, 8280.000000, 8310.000000
2354, 17744032.000000, 2627.500000, 8261.000000, 8289.000000, 8320.000000
2355, 17744192.000000, 2580.000000, 8267.000000, 8273.000000, 8312.000000
2356, 17744352.000000, 2513.500000, 8237.000000, 8244.000000, 8271.000000
2357, 17744512.000000, 2445.000000, 8199.000000, 8218.000000, 8228.000000
2358, 17744672.000000, 2384.000000, 8167.000000, 8192.000000, 8185.000000
2359, 17744832.000000, 2333.000000, 8161.000000, 8176.000000, 8165.000000
2360, 17744992.000000, 2268.500000, 8154.000000, 8180.000000, 8176.000000
2361, 17745152.000000, 2189.000000, 8162.000000, 8172.000000, 8165.000000
2362, 17745312.000000, 2119.500000, 8171.000000, 8178.000000, 8177.000000
2363, 17745472.000000, 2067.000000, 8165.000000, 8179.000000, 8180.000000
2364, 17745632.000000, 1998.500000, 8157.000000, 8173.000000, 8165.000000
2365, 17745792.000000, 1910.000000, 8158.000000, 8166.000000, 8159.000000
2366, 17745952.000000, 1870.500000, 8161.000000, 8168.000000, 8159.000000
2367, 17746112.000000, 1989.000000, 8165.000000, 8165.000000, 8166.000000
2368, 17746272.000000, 2296.500000, 8180.000000, 8164.000000, 8175.000000
2369, 17746432.000000, 2713.000000, 8182.000000, 8158.000000, 8162.000000
2370, 17746592.000000, 3137.500000, 8170.000000, 8157.000000, 8144.000000
2371, 17746752.000000, 3484.000000, 8163.000000, 8150.000000, 8124.000000
2372, 17746912.000000, 3706.500000, 8168.000000, 8153.000000, 8130.000000
2373, 17747072.000000, 3807.000000, 8157.000000, 8170.000000, 8150.000000
2374, 17747232.000000, 3820.000000, 8325.000000, 8240.000000, 8292.000000
2375, 17747392.000000, 3783.000000, 8513.000000, 7922.000000, 8069.000000
2376, 17747552.000000, 3702.500000, 8034.000000, 7976.000000, 7904.000000
2377, 17747712.000000, 3578.000000, 8074.000000, 8027.000000, 7936.000000
2378, 17747872.000000, 3397.000000, 8134.000000, 8082.000000, 8045.000000
2379, 17748032.000000, 3195.000000, 8170.000000, 8169.000000, 8158.000000
2380, 17748192.000000, 3012.500000, 8182.000000, 8210.000000, 8203.000000
2381, 17748352.000000, 2878.000000, 8189.000000, 8235.000000, 8232.000000
2382, 17748512.000000, 2776.000000, 8202.000000, 8251.000000, 8253.000000
2383, 17748672.000000, 2695.000000, 8227.000000, 8278.000000, 8298.000000
2384, 17748832.000000, 2633.000000, 8251.000000, 8294.000000, 8324.000000
2385, 17748992.000000, 2580.000000, 8257.000000, 8310.000000, 8348.000000
2386, 17749152.000000, 2503.000000, 8268.000000, 8313.000000, 8347.000000
2387, 17749312.000000, 2406.000000, 8271.000000, 8308.000000, 8350.000000
2388, 17749472.000000, 2302.000000, 8231.000000, 8271.000000, 8302.000000
2389, 17749632.000000, 2219.000000, 8194.000000, 8234.000000, 8250.000000
2390, 17749792.000000, 2156.000000, 8165.000000, 8205.000000, 8210.000000
2391, 17749952.000000, 2100.000000, 8167.000000, 8201.000000, 8203.000000
2392, 17750112.000000, 2050.000000, 8164.000000, 8187.000000, 8184.000000
2393, 17750272.000000, 2003.000000, 8177.000000, 8199.000000, 8206.000000
2394, 17750432.000000, 1948.000000, 8171.000000, 8199.000000, 8200.000000
2395, 17750592.000000, 1892.000000, 8161.000000, 8191.000000, 8191.000000
2396, 17750752.000000, 1843.500000, 8161.000000, 8186.000000, 8181.000000
2397, 17750912.000000, 1806.000000, 8162.000000, 8186.000000, 8183.000000
2398, 17751072.000000, 1844.500000, 8173.000000, 8177.000000, 8177.000000
2399, 17751232.000000, 2048.000000, 8174.000000, 8185.000000, 8190.000000
2400, 17751392.000000, 2459.000000, 8174.000000, 8189.000000, 8208.000000
2401, 17751552.000000, 2968.000000, 8170.000000, 8172.000000, 8182.000000
2402, 17751712.000000, 3406.000000, 8158.000000, 8179.000000, 8168.000000
2403, 17751872.000000, 3704.000000, 8157.000000, 8179.000000, 8167.000000
2404, 17752032.000000, 3865.500000, 8145.000000, 8177.000000, 8161.000000
2405, 17752192.000000, 3940.000000, 8142.000000, 8185.000000, 8171.000000
2406, 17752352.000000, 3951.500000, 8337.000000, 8240.000000, 8308.000000
2407, 17752512.000000, 3921.000000, 8483.000000, 8013.000000, 8150.000000
2408, 17752672.000000, 3852.500000, 8010.000000, 8109.000000, 8021.000000
2409, 17752832.000000, 3743.000000, 8093.000000, 8172.000000, 8093.000000
2410, 17752992.000000, 3589.500000, 8160.000000, 8209.000000, 8185.000000
2411, 17753152.000000, 3419.000000, 8169.000000, 8213.000000, 8195.000000
2412, 17753312.000000, 3251.500000, 8180.000000, 8221.000000, 8208.000000
2413, 17753472.000000, 3116.000000, 8186.000000, 8229.000000, 8222.000000
2414, 17753632.000000, 3023.000000, 8208.000000, 8239.000000, 8239.000000
2415, 17753792.000000, 2962.000000, 8213.000000, 8237.000000, 8242.000000
2416, 17753952.000000, 2902.000000, 8235.000000, 8160.000000, 8172.000000
2417, 17754112.000000, 2826.000000, 8248.000000, 8149.000000, 8167.000000
2418, 17754272.000000, 2730.000000, 8235.000000, 8143.000000, 8155.000000
2419, 17754432.000000, 2629.000000, 8239.000000, 8157.000000, 8165.000000
2420, 17754592.000000, 2527.500000, 8225.000000, 8226.000000, 8223.000000
2421, 17754752.000000, 2404.000000, 8198.000000, 8232.000000, 8215.000000
2422, 17754912.000000, 2254.000000, 8183.000000, 8224.000000, 8203.000000
2423, 17755072.000000, 2100.000000, 8174.000000, 8222.000000, 8195.000000
2424, 17755232.000000, 1959.000000, 8190.000000, 8225.000000, 8201.000000
2425, 17755392.000000, 1846.000000, 8202.000000, 8231.000000, 8217.000000
2426, 17755552.000000, 1745.500000, 8199.000000, 8225.000000, 8213.000000
2427, 17755712.000000, 1637.000000, 8189.000000, 8215.000000, 8208.000000
2428, 17755872.000000, 1520.500000, 8172.000000, 8210.000000, 8208.000000
2429, 17756032.000000, 1439.000000, 8179.000000, 8203.000000, 8205.000000
2430, 17756192.000000, 1489.000000, 8172.000000, 8199.000000, 8203.000000
2431, 17756352.000000, 1744.000000, 8169.000000, 8202.000000, 8214.000000
2432, 17756512.000000, 2191.500000, 8182.000000, 8193.000000, 8219.000000
2433, 17756672.000000, 2716.000000, 8177.000000, 8200.000000, 8213.000000
2434, 17756832.000000, 3189.500000, 8162.000000, 8186.000000, 8181.000000
2435, 17756992.000000, 3541.000000, 8158.000000, 8188.000000, 8175.000000
2436, 17757152.000000, 3737.000000, 8166.000000, 8187.000000, 8181.000000
2437, 17757312.000000, 3821.000000, 8139.000000, 8230.000000, 8224.000000
2438, 17757472.000000, 3850.000000, 8519.000000, 8169.000000, 8312.000000
2439, 17757632.000000, 3844.000000, 8189.000000, 8083.000000, 8118.000000
2440, 17757792.000000, 3766.000000, 8045.000000, 8126.000000, 8055.000000
2441, 17757952.000000, 3620.000000, 8118.000000, 8183.000000, 8133.000000
2442, 17758112.000000, 3449.000000, 8164.000000, 8218.000000, 8209.000000
2443, 17758272.000000, 3298.000000, 8173.000000, 8233.000000, 8228.000000
2444, 17758432.000000, 3169.000000, 8185.000000, 8231.000000, 8239.000000
2445, 17758592.000000, 3045.000000, 8188.000000, 8241.000000, 8247.000000
2446, 17758752.000000, 2944.000000, 8199.000000, 8246.000000, 8258.000000
2447, 17758912.000000, 2879.000000, 8213.000000, 8257.000000, 8274.000000
2448, 17759072.000000, 2817.500000, 8229.000000, 8273.000000, 8285.000000
2449, 17759232.000000, 2739.000000, 8249.000000, 8284.000000, 8305.000000
2450, 17759392.000000, 2638.500000, 8254.000000, 8272.000000, 8294.000000
2451, 17759552.000000, 2527.000000, 8242.000000, 8251.000000, 8267.000000
2452, 17759712.000000, 2393.500000, 8203.000000, 8225.000000, 8229.000000
2453, 17759872.000000, 2252.000000, 8165.000000, 8199.000000, 8186.000000
2454, 17760032.000000, 2126.000000, 8147.000000, 8176.000000, 8155.000000
2455, 17760192.000000, 2024.000000, 8148.000000, 8179.000000, 8153.000000
2456, 17760352.000000, 1937.500000, 8166.000000, 8114.000000, 8082.000000
2457, 17760512.000000, 1851.000000, 8170.000000, 8058.000000, 8027.000000
2458, 17760672.000000, 1769.500000, 8175.000000, 8039.000000, 8007.000000
2459, 17760832.000000, 1696.000000, 8166.000000, 8041.000000, 8005.000000
2460, 17760992.000000, 1615.000000, 8169.000000, 8096.000000, 8058.000000
2461, 17761152.000000, 1525.000000, 8172.000000, 8168.000000, 8134.000000
2462, 17761312.000000, 1472.000000, 8175.000000, 8200.000000, 8170.000000
2463, 17761472.000000, 1572.000000, 8195.000000, 8214.000000, 8211.000000
2464, 17761632.000000, 1902.500000, 8196.000000, 8215.000000, 8199.000000
2465, 17761792.000000, 2366.000000, 8179.000000, 8214.000000, 8183.000000
2466, 17761952.000000, 2812.000000, 8188.000000, 8211.000000, 8180.000000
2467, 17762112.000000, 3144.000000, 8191.000000, 8214.000000, 8195.000000
2468, 17762272.000000, 3320.000000, 8176.000000, 8249.000000, 8228.000000
2469, 17762432.000000, 3396.000000, 8470.000000, 8247.000000, 8351.000000
2470, 17762592.000000, 3418.500000, 8242.000000, 8126.000000, 8170.000000
2471, 17762752.000000, 3396.000000, 8059.000000, 8156.000000, 8095.000000
2472, 17762912.000000, 3306.500000, 8116.000000, 8204.000000, 8151.000000
2473, 17763072.000000, 3156.000000, 8164.000000, 8228.000000, 8221.000000
2474, 17763232.000000, 2991.000000, 8180.000000, 8235.000000, 8242.000000
2475, 17763392.000000, 2868.000000, 8187.000000, 8240.000000, 8252.000000
2476, 17763552.000000, 2791.500000, 8193.000000, 8239.000000, 8249.000000
2477, 17763712.000000, 2746.000000, 8199.000000, 8245.000000, 8263.000000
2478, 17763872.000000, 2727.500000, 8219.000000, 8269.000000, 8292.000000
2479, 17764032.000000, 2723.000000, 8242.000000, 8271.000000, 8305.000000
2480, 17764192.000000, 2692.500000, 8248.000000, 8283.000000, 8321.000000
2481, 17764352.000000, 2592.000000, 8254.000000, 8276.000000, 8308.000000
2482, 17764512.000000, 2467.000000, 8230.000000, 8263.000000, 8291.000000
2483, 17764672.000000, 2388.000000, 8200.000000, 8246.000000, 8266.000000
2484, 17764832.000000, 2294.500000, 8158.000000, 8214.000000, 8222.000000
2485, 17764992.000000, 2177.000000, 8138.000000, 8193.000000, 8188.000000
2486, 17765152.000000, 2051.000000, 8139.000000, 8188.000000, 8184.000000
2487, 17765312.000000, 1910.000000, 8154.000000, 8186.000000, 8184.000000
2488, 17765472.000000, 1766.000000, 8150.000000, 8192.000000, 8191.000000
2489, 17765632.000000, 1641.000000, 8154.000000, 8184.000000, 8172.000000
2490, 17765792.000000, 1512.500000, 8155.000000, 8174.000000, 8165.000000
2491, 17765952.000000, 1403.000000, 8161.000000, 8174.000000, 8165.000000
2492, 17766112.000000, 1372.000000, 8159.000000, 8164.000000, 8153.000000
2493, 17766272.000000, 1563.000000, 8152.000000, 8173.000000, 8166.000000
2494, 17766432.000000, 2043.500000, 8165.000000, 8167.000000, 8172.000000
2495, 17766592.000000, 2553.000000, 8170.000000, 8167.000000, 8167.000000
2496, 17766752.000000, 2997.500000, 8154.000000, 8167.000000, 8143.000000
2497, 17766912.000000, 3312.000000, 8148.000000, 8065.000000, 8035.000000
2498, 17767072.000000, 3471.000000, 8148.000000, 8030.000000, 7994.000000
2499, 17767232.000000, 3530.000000, 8153.000000, 8038.000000, 8009.000000
2500, 17767392.000000, 3515.000000, 8455.000000, 8034.000000, 8120.000000
2501, 17767552.000000, 3444.000000, 8275.000000, 7956.000000, 7992.000000
2502, 17767712.000000, 3302.500000, 8056.000000, 8101.000000, 8004.000000
2503, 17767872.000000, 3095.000000, 8123.000000, 8198.000000, 8119.000000
2504, 17768032.000000, 2862.500000, 8183.000000, 8233.000000, 8200.000000
2505, 17768192.000000, 2661.000000, 8208.000000, 8241.000000, 8225.000000
2506, 17768352.000000, 2520.500000, 8197.000000, 8247.000000, 8226.000000
2507, 17768512.000000, 2424.000000, 8227.000000, 8266.000000, 8266.000000
2508, 17768672.000000, 2356.500000, 8234.000000, 8279.000000, 8286.000000
2509, 17768832.000000, 2315.000000, 8251.000000, 8294.000000, 8310.000000
2510, 17768992.000000, 2289.500000, 8266.000000, 8306.000000, 8326.000000
2511, 17769152.000000, 2247.000000, 8276.000000, 8315.000000, 8342.000000
2512, 17769312.000000, 2163.500000, 8278.000000, 8320.000000, 8346.000000
2513, 17769472.000000, 2057.000000, 8261.000000, 8292.000000, 8311.000000
2514, 17769632.000000, 1968.000000, 8223.000000, 8262.000000, 8276.000000
2515, 17769792.000000, 1889.000000, 8192.000000, 8229.000000, 8234.000000
2516, 17769952.000000, 1807.000000, 8151.000000, 8197.000000, 8193.000000
2517, 17770112.000000, 1728.000000, 8146.000000, 8194.000000, 8189.000000
2518, 17770272.000000, 1662.500000, 8151.000000, 8190.000000, 8190.000000
2519, 17770432.000000, 1614.000000, 8159.000000, 8193.000000, 8198.000000
2520, 17770592.000000, 1571.000000, 8156.000000, 8186.000000, 8191.000000
2521, 17770752.000000, 1507.000000, 8159.000000, 8177.000000, 8182.000000
2522, 17770912.000000, 1422.000000, 8146.000000, 8182.000000, 8179.000000
2523, 17771072.000000, 1427.000000, 8155.000000, 8179.000000, 8189.000000
2524, 17771232.000000, 1653.500000, 8150.000000, 8179.000000, 8192.000000
2525, 17771392.000000, 2085.000000, 8171.000000, 8170.000000, 8201.000000
2526, 17771552.000000, 2557.000000, 8162.000000, 8175.000000, 8192.000000
2527, 17771712.000000, 2936.000000, 8140.000000, 8175.000000, 8164.000000
2528, 17771872.000000, 3196.000000, 8143.000000, 8169.000000, 8162.000000
2529, 17772032.000000, 3362.000000, 8141.000000, 8169.000000, 8156.000000
2530, 17772192.000000, 3407.000000, 8131.000000, 8202.000000, 8197.000000
2531, 17772352.000000, 3365.000000, 8452.000000, 8194.000000, 8314.000000
2532, 17772512.000000, 3280.500000, 8239.000000, 8079.000000, 8135.000000
2533, 17772672.000000, 3180.000000, 8040.000000, 8119.000000, 8045.000000
2534, 17772832.000000, 3058.000000, 8110.000000, 8176.000000, 8115.000000
2535, 17772992.000000, 2903.000000, 8168.000000, 8210.000000, 8197.000000
2536, 17773152.000000, 2737.500000, 8177.000000, 8214.000000, 8203.000000
2537, 17773312.000000, 2599.000000, 8192.000000, 8183.000000, 8184.000000
2538, 17773472.000000, 2515.000000, 8202.000000, 8097.000000, 8089.000000
2539, 17773632.000000, 2455.000000, 8206.000000, 8083.000000, 8074.000000
2540, 17773792.000000, 2386.000000, 8235.000000, 8091.000000, 8089.000000
2541, 17773952.000000, 2295.000000, 8249.000000, 8102.000000, 8105.000000
2542, 17774112.000000, 2187.500000, 8263.000000, 8226.000000, 8236.000000
2543, 17774272.000000, 2069.000000, 8270.000000, 8254.000000, 8265.000000
2544, 17774432.000000, 1941.000000, 8252.000000, 8263.000000, 8270.000000
2545, 17774592.000000, 1812.000000, 8220.000000, 8239.000000, 8235.000000
2546, 17774752.000000, 1692.500000, 8199.000000, 8222.000000, 8214.000000
2547, 17774912.000000, 1583.000000, 8175.000000, 8208.000000, 8186.000000
2548, 17775072.000000, 1477.500000, 8174.000000, 8206.000000, 8189.000000
2549, 17775232.000000, 1369.000000, 8177.000000, 8211.000000, 8198.000000
2550, 17775392.000000, 1274.500000, 8182.000000, 8208.000000, 8193.000000
2551, 17775552.000000, 1187.000000, 8190.000000, 8209.000000, 8207.000000
2552, 17775712.000000, 1094.500000, 8182.000000, 8205.000000, 8196.000000
2553, 17775872.000000, 1027.000000, 8168.000000, 8202.000000, 8197.000000
2554, 17776032.000000, 1116.000000, 8167.000000, 8208.000000, 8216.000000
2555, 17776192.000000, 1415.000000, 8181.000000, 8202.000000, 8230.000000
2556, 17776352.000000, 1902.000000, 8171.000000, 8188.000000, 8201.000000
2557, 17776512.000000, 2438.000000, 8167.000000, 8194.000000, 8196.000000
2558, 17776672.000000, 2899.000000, 8148.000000, 8191.000000, 8183.000000
2559, 17776832.000000, 3227.000000, 8145.000000, 8196.000000, 8190.000000
2560, 17776992.000000, 3403.000000, 8141.000000, 8193.000000, 8182.000000
2561, 17777152.000000, 3483.000000, 8275.000000, 8275.000000, 8321.000000
2562, 17777312.000000, 3508.000000, 8437.000000, 8095.000000, 8233.000000
2563, 17777472.000000, 3491.000000, 8017.000000, 8152.000000, 8105.000000
2564, 17777632.000000, 3412.500000, 8075.000000, 8177.000000, 8106.000000
2565, 17777792.000000, 3267.000000, 8144.000000, 8220.000000, 8205.000000
2566, 17777952.000000, 3103.000000, 8165.000000, 8223.000000, 8220.000000
2567, 17778112.000000, 2947.000000, 8171.000000, 8226.000000, 8229.000000
2568, 17778272.000000, 2801.500000, 8169.000000, 8235.000000, 8241.000000
2569, 17778432.000000, 2669.000000, 8193.000000, 8246.000000, 8262.000000
2570, 17778592.000000, 2567.000000, 8207.000000, 8245.000000, 8256.000000
2571, 17778752.000000, 2496.000000, 8236.000000, 8256.000000, 8284.000000
2572, 17778912.000000, 2433.500000, 8258.000000, 8271.000000, 8298.000000
2573, 17779072.000000, 2353.000000, 8261.000000, 8279.000000, 8308.000000
2574, 17779232.000000, 2248.500000, 8253.000000, 8266.000000, 8282.000000
2575, 17779392.000000, 2126.000000, 8233.000000, 8237.000000, 8249.000000
2576, 17779552.000000, 2005.500000, 8197.000000, 8222.000000, 8215.000000
2577, 17779712.000000, 1879.000000, 8166.000000, 8188.000000, 8166.000000
2578, 17779872.000000, 1750.500000, 8146.000000, 8057.000000, 8018.000000
2579, 17780032.000000, 1639.000000, 8165.000000, 8040.000000, 8017.000000
2580, 17780192.000000, 1557.000000, 8172.000000, 8023.000000, 8001.000000
2581, 17780352.000000, 1466.000000, 8181.000000, 8009.000000, 7983.000000
2582, 17780512.000000, 1346.500000, 8169.000000, 8093.000000, 8069.000000
2583, 17780672.000000, 1211.000000, 8168.000000, 8162.000000, 8141.000000
2584, 17780832.000000, 1150.000000, 8179.000000, 8192.000000, 8177.000000
2585, 17780992.000000, 1250.000000, 8179.000000, 8191.000000, 8180.000000
2586, 17781152.000000, 1592.000000, 8191.000000, 8203.000000, 8209.000000
2587, 17781312.000000, 2054.000000, 8195.000000, 8195.000000, 8196.000000
2588, 17781472.000000, 2506.000000, 8183.000000, 8194.000000, 8173.000000
2589, 17781632.000000, 2855.000000, 8180.000000, 8199.000000, 8184.000000
2590, 17781792.000000, 3087.500000, 8177.000000, 8203.000000, 8184.000000
2591, 17781952.000000, 3211.000000, 8170.000000, 8195.000000, 8166.000000
2592, 17782112.000000, 3251.000000, 8247.000000, 8294.000000, 8318.000000
2593, 17782272.000000, 3257.000000, 8564.000000, 8108.000000, 8267.000000
2594, 17782432.000000, 3222.500000, 8053.000000, 8142.000000, 8093.000000
2595, 17782592.000000, 3140.000000, 8101.000000, 8189.000000, 8106.000000
2596, 17782752.000000, 3009.000000, 8165.000000, 8235.000000, 8210.000000
2597, 17782912.000000, 2868.000000, 8188.000000, 8250.000000, 8237.000000
2598, 17783072.000000, 2750.000000, 8185.000000, 8264.000000, 8259.000000
2599, 17783232.000000, 2662.000000, 8205.000000, 8257.000000, 8255.000000
2600, 17783392.000000, 2617.500000, 8203.000000, 8263.000000, 8265.000000
2601, 17783552.000000, 2580.000000, 8234.000000, 8270.000000, 8281.000000
2602, 17783712.000000, 2512.000000, 8236.000000, 8294.000000, 8306.000000
2603, 17783872.000000, 2403.000000, 8256.000000, 8307.000000, 8329.000000
2604, 17784032.000000, 2275.000000, 8261.000000, 8314.000000, 8339.000000
2605, 17784192.000000, 2144.000000, 8257.000000, 8292.000000, 8316.000000
2606, 17784352.000000, 2014.000000, 8214.000000, 8263.000000, 8273.000000
2607, 17784512.000000, 1873.000000, 8180.000000, 8238.000000, 8237.000000
2608, 17784672.000000, 1731.000000, 8154.000000, 8213.000000, 8199.000000
2609, 17784832.000000, 1596.000000, 8154.000000, 8209.000000, 8197.000000
2610, 17784992.000000, 1480.000000, 8151.000000, 8199.000000, 8187.000000
2611, 17785152.000000, 1372.000000, 8164.000000, 8200.000000, 8187.000000
2612, 17785312.000000, 1265.000000, 8164.000000, 8199.000000, 8184.000000
2613, 17785472.000000, 1157.000000, 8180.000000, 8195.000000, 8192.000000
2614, 17785632.000000, 1056.000000, 8176.000000, 8187.000000, 8180.000000
2615, 17785792.000000, 1006.000000, 8177.000000, 8184.000000, 8175.000000
2616, 17785952.000000, 1124.000000, 8179.000000, 8173.000000, 8166.000000
2617, 17786112.000000, 1450.000000, 8184.000000, 8181.000000, 8181.000000
2618, 17786272.000000, 1947.000000, 8188.000000, 8182.000000, 8192.000000
2619, 17786432.000000, 2461.000000, 8190.000000, 8092.000000, 8094.000000
2620, 17786592.000000, 2873.500000, 8153.000000, 8021.000000, 7998.000000
2621, 17786752.000000, 3125.000000, 8146.000000, 8002.000000, 7971.000000
2622, 17786912.000000, 3231.000000, 8145.000000, 7996.000000, 7968.000000
2623, 17787072.000000, 3268.000000, 8132.000000, 8035.000000, 8008.000000
2624, 17787232.000000, 3266.500000, 8436.000000, 8137.000000, 8237.000000
2625, 17787392.000000, 3214.000000, 8282.000000, 8038.000000, 8093.000000
2626, 17787552.000000, 3081.000000, 8042.000000, 8125.000000, 8048.000000
2627, 17787712.000000, 2902.000000, 8112.000000, 8191.000000, 8129.000000
2628, 17787872.000000, 2715.000000, 8176.000000, 8225.000000, 8214.000000
2629, 17788032.000000, 2538.000000, 8178.000000, 8230.000000, 8224.000000
2630, 17788192.000000, 2393.500000, 8182.000000, 8240.000000, 8237.000000
2631, 17788352.000000, 2294.000000, 8204.000000, 8247.000000, 8256.000000
2632, 17788512.000000, 2248.500000, 8219.000000, 8269.000000, 8292.000000
2633, 17788672.000000, 2221.000000, 8228.000000, 8278.000000, 8299.000000
2634, 17788832.000000, 2167.500000, 8247.000000, 8292.000000, 8322.000000
2635, 17788992.000000, 2085.000000, 8258.000000, 8316.000000, 8347.000000
2636, 17789152.000000, 1988.500000, 8264.000000, 8305.000000, 8338.000000
2637, 17789312.000000, 1896.000000, 8245.000000, 8285.000000, 8315.000000
2638, 17789472.000000, 1821.000000, 8213.000000, 8253.000000, 8272.000000
2639, 17789632.000000, 1765.000000, 8185.000000, 8219.000000, 8221.000000
2640, 17789792.000000, 1712.000000, 8150.000000, 8195.000000, 8184.000000
2641, 17789952.000000, 1642.000000, 8170.000000, 8183.000000, 8178.000000
2642, 17790112.000000, 1563.500000, 8152.000000, 8186.000000, 8175.000000
2643, 17790272.000000, 1501.000000, 8172.000000, 8197.000000, 8191.000000
2644, 17790432.000000, 1448.500000, 8162.000000, 8194.000000, 8181.000000
2645, 17790592.000000, 1362.000000, 8170.000000, 8188.000000, 8183.000000
2646, 17790752.000000, 1270.000000, 8158.000000, 8181.000000, 8172.000000
2647, 17790912.000000, 1258.000000, 8158.000000, 8192.000000, 8177.000000
2648, 17791072.000000, 1423.500000, 8158.000000, 8190.000000, 8179.000000
2649, 17791232.000000, 1751.000000, 8167.000000, 8195.000000, 8186.000000
2650, 17791392.000000, 2197.000000, 8166.000000, 8199.000000, 8201.000000
2651, 17791552.000000, 2662.000000, 8190.000000, 8188.000000, 8206.000000
2652, 17791712.000000, 3047.500000, 8184.000000, 8199.000000, 8199.000000
2653, 17791872.000000, 3295.000000, 8154.000000, 8191.000000, 8171.000000
2654, 17792032.000000, 3416.500000, 8158.000000, 8194.000000, 8177.000000
2655, 17792192.000000, 3463.000000, 8160.000000, 8197.000000, 8177.000000
2656, 17792352.000000, 3451.000000, 8146.000000, 8257.000000, 8252.000000
2657, 17792512.000000, 3393.000000, 8587.000000, 8133.000000, 8307.000000
2658, 17792672.000000, 3261.000000, 8073.000000, 8102.000000, 8080.000000
2659, 17792832.000000, 3080.000000, 8061.000000, 8142.000000, 8058.000000
2660, 17792992.000000, 2888.000000, 8138.000000, 8209.000000, 8164.000000
2661, 17793152.000000, 2711.000000, 8184.000000, 8219.000000, 8209.000000
2662, 17793312.000000, 2553.500000, 8179.000000, 8224.000000, 8217.000000
2663, 17793472.000000, 2409.000000, 8203.000000, 8228.000000, 8228.000000
2664, 17793632.000000, 2293.000000, 8214.000000, 8239.000000, 8247.000000
2665, 17793792.000000, 2200.000000, 8219.000000, 8251.000000, 8262.000000
2666, 17793952.000000, 2113.500000, 8234.000000, 8263.000000, 8278.000000
2667, 17794112.000000, 2026.000000, 8245.000000, 8288.000000, 8312.000000
2668, 17794272.000000, 1949.000000, 8268.000000, 8245.000000, 8273.000000
2669, 17794432.000000, 1866.000000, 8256.000000, 8239.000000, 8263.000000
2670, 17794592.000000, 1752.000000, 8226.000000, 8227.000000, 8239.000000
2671, 17794752.000000, 1602.000000, 8197.000000, 8219.000000, 8223.000000
2672, 17794912.000000, 1446.500000, 8158.000000, 8205.000000, 8202.000000
2673, 17795072.000000, 1307.000000, 8156.000000, 8196.000000, 8185.000000
2674, 17795232.000000, 1183.000000, 8143.000000, 8194.000000, 8183.000000
2675, 17795392.000000, 1060.000000, 8158.000000, 8195.000000, 8186.000000
2676, 17795552.000000, 951.000000, 8170.000000, 8187.000000, 8178.000000
2677, 17795712.000000, 866.000000, 8170.000000, 8192.000000, 8189.000000
2678, 17795872.000000, 786.000000, 8170.000000, 8190.000000, 8190.000000
2679, 17796032.000000, 727.000000, 8162.000000, 8183.000000, 8174.000000
2680, 17796192.000000, 801.500000, 8169.000000, 8171.000000, 8155.000000
2681, 17796352.000000, 1070.000000, 8169.000000, 8183.000000, 8175.000000
2682, 17796512.000000, 1534.000000, 8170.000000, 8187.000000, 8197.000000
2683, 17796672.000000, 2043.000000, 8186.000000, 8187.000000, 8208.000000
2684, 17796832.000000, 2486.500000, 8183.000000, 8182.000000, 8191.000000
2685, 17796992.000000, 2801.000000, 8175.000000, 8178.000000, 8170.000000
2686, 17797152.000000, 2978.000000, 8169.000000, 8181.000000, 8165.000000
2687, 17797312.000000, 3061.000000, 8165.000000, 8172.000000, 8155.000000
2688, 17797472.000000, 3107.000000, 8163.000000, 8202.000000, 8196.000000
2689, 17797632.000000, 3136.000000, 8466.000000, 8198.000000, 8314.000000
2690, 17797792.000000, 3100.500000, 8221.000000, 8083.000000, 8123.000000
2691, 17797952.000000, 2981.000000, 8049.000000, 8121.000000, 8039.000000
2692, 17798112.000000, 2806.000000, 8119.000000, 8177.000000, 8112.000000
2693, 17798272.000000, 2632.000000, 8172.000000, 8213.000000, 8197.000000
2694, 17798432.000000, 2475.000000, 8181.000000, 8215.000000, 8209.000000
2695, 17798592.000000, 2334.000000, 8186.000000, 8218.000000, 8211.000000
2696, 17798752.000000, 2216.000000, 8197.000000, 8236.000000, 8240.000000
2697, 17798912.000000, 2123.000000, 8206.000000, 8238.000000, 8250.000000
2698, 17799072.000000, 2055.000000, 8224.000000, 8249.000000, 8265.000000
2699, 17799232.000000, 1995.000000, 8253.000000, 8266.000000, 8288.000000
2700, 17799392.000000, 1925.500000, 8260.000000, 8273.000000, 8297.000000
2701, 17799552.000000, 1833.000000, 8259.000000, 8282.000000, 8308.000000
2702, 17799712.000000, 1724.500000, 8247.000000, 8258.000000, 8280.000000
2703, 17799872.000000, 1588.000000, 8210.000000, 8234.000000, 8247.000000
2704, 17800032.000000, 1443.000000, 8166.000000, 8206.000000, 8196.000000
2705, 17800192.000000, 1310.000000, 8146.000000, 8187.000000, 8170.000000
2706, 17800352.000000, 1182.000000, 8157.000000, 8183.000000, 8173.000000
2707, 17800512.000000, 1056.000000, 8156.000000, 8186.000000, 8175.000000
2708, 17800672.000000, 947.000000, 8162.000000, 8187.000000, 8182.000000
2709, 17800832.000000, 871.000000, 8165.000000, 8184.000000, 8175.000000
2710, 17800992.000000, 813.000000, 8168.000000, 8184.000000, 8179.000000
2711, 17801152.000000, 752.000000, 8165.000000, 8174.000000, 8167.000000
2712, 17801312.000000, 734.000000, 8164.000000, 8176.000000, 8167.000000
2713, 17801472.000000, 827.000000, 8162.000000, 8175.000000, 8166.000000
2714, 17801632.000000, 1115.500000, 8169.000000, 8174.000000, 8164.000000
2715, 17801792.000000, 1516.000000, 8172.000000, 8176.000000, 8176.000000
2716, 17801952.000000, 1914.500000, 8183.000000, 8169.000000, 8180.000000
2717, 17802112.000000, 2206.000000, 8184.000000, 8172.000000, 8178.000000
2718, 17802272.000000, 2386.500000, 8167.000000, 8165.000000, 8152.000000
2719, 17802432.000000, 2489.000000, 8174.000000, 8169.000000, 8156.000000
2720, 17802592.000000, 2534.500000, 8172.000000, 8162.000000, 8144.000000
2721, 17802752.000000, 2529.000000, 8157.000000, 8200.000000, 8190.000000
2722, 17802912.000000, 2470.000000, 8499.000000, 8170.000000, 8304.000000
2723, 17803072.000000, 2365.000000, 8212.000000, 8073.000000, 8107.000000
2724, 17803232.000000, 2221.500000, 8058.000000, 8124.000000, 8044.000000
2725, 17803392.000000, 2057.000000, 8111.000000, 8196.000000, 8131.000000
2726, 17803552.000000, 1900.000000, 8168.000000, 8224.000000, 8201.000000
2727, 17803712.000000, 1773.000000, 8163.000000, 8236.000000, 8222.000000
2728, 17803872.000000, 1679.000000, 8180.000000, 8234.000000, 8229.000000
2729, 17804032.000000, 1611.000000, 8191.000000, 8240.000000, 8240.000000
2730, 17804192.000000, 1552.500000, 8209.000000, 8254.000000, 8262.000000
2731, 17804352.000000, 1491.000000, 8223.000000, 8269.000000, 8279.000000
2732, 17804512.000000, 1422.000000, 8245.000000, 8282.000000, 8308.000000
2733, 17804672.000000, 1347.000000, 8256.000000, 8291.000000, 8321.000000
2734, 17804832.000000, 1271.500000, 8262.000000, 8291.000000, 8325.000000
2735, 17804992.000000, 1192.000000, 8243.000000, 8274.000000, 8297.000000
2736, 17805152.000000, 1105.000000, 8203.000000, 8235.000000, 8245.000000
2737, 17805312.000000, 1023.000000, 8180.000000, 8208.000000, 8215.000000
2738, 17805472.000000, 950.500000, 8161.000000, 8180.000000, 8173.000000
2739, 17805632.000000, 886.000000, 8151.000000, 8174.000000, 8168.000000
2740, 17805792.000000, 829.500000, 8155.000000, 8175.000000, 8170.000000
2741, 17805952.000000, 792.000000, 8170.000000, 8186.000000, 8181.000000
2742, 17806112.000000, 768.000000, 8167.000000, 8179.000000, 8183.000000
2743, 17806272.000000, 738.000000, 8172.000000, 8172.000000, 8170.000000
2744, 17806432.000000, 700.000000, 8168.000000, 8167.000000, 8164.000000
2745, 17806592.000000, 688.000000, 8167.000000, 8166.000000, 8159.000000
2746, 17806752.000000, 808.500000, 8168.000000, 8157.000000, 8148.000000
2747, 17806912.000000, 1076.000000, 8174.000000, 8162.000000, 8153.000000
2748, 17807072.000000, 1451.000000, 8172.000000, 8169.000000, 8169.000000
2749, 17807232.000000, 1814.000000, 8173.000000, 8170.000000, 8178.000000
2750, 17807392.000000, 2097.000000, 8184.000000, 8160.000000, 8178.000000
2751, 17807552.000000, 2275.000000, 8184.000000, 8161.000000, 8163.000000
2752, 17807712.000000, 2348.500000, 8171.000000, 8168.000000, 8161.000000
2753, 17807872.000000, 2362.000000, 8167.000000, 8166.000000, 8155.000000
2754, 17808032.000000, 2347.000000, 8164.000000, 8161.000000, 8146.000000
2755, 17808192.000000, 2311.000000, 8153.000000, 8220.000000, 8219.000000
2756, 17808352.000000, 2232.000000, 8565.000000, 8102.000000, 8262.000000
2757, 17808512.000000, 2124.000000, 8122.000000, 8040.000000, 8042.000000
2758, 17808672.000000, 2006.500000, 8064.000000, 8112.000000, 8034.000000
2759, 17808832.000000, 1893.000000, 8127.000000, 8182.000000, 8138.000000
2760, 17808992.000000, 1793.500000, 8168.000000, 8204.000000, 8191.000000
2761, 17809152.000000, 1714.000000, 8188.000000, 8211.000000, 8206.000000
2762, 17809312.000000, 1659.000000, 8187.000000, 8220.000000, 8220.000000
2763, 17809472.000000, 1620.000000, 8188.000000, 8228.000000, 8234.000000
2764, 17809632.000000, 1577.000000, 8196.000000, 8240.000000, 8248.000000
2765, 17809792.000000, 1515.000000, 8230.000000, 8256.000000, 8276.000000
2766, 17809952.000000, 1442.500000, 8224.000000, 8278.000000, 8294.000000
2767, 17810112.000000, 1386.000000, 8240.000000, 8294.000000, 8321.000000
2768, 17810272.000000, 1337.000000, 8241.000000, 8288.000000, 8310.000000
2769, 17810432.000000, 1278.000000, 8234.000000, 8259.000000, 8284.000000
2770, 17810592.000000, 1195.500000, 8204.000000, 8220.000000, 8233.000000
2771, 17810752.000000, 1113.000000, 8172.000000, 8189.000000, 8185.000000
2772, 17810912.000000, 1045.500000, 8149.000000, 8172.000000, 8161.000000
2773, 17811072.000000, 992.000000, 8153.000000, 8166.000000, 8157.000000
2774, 17811232.000000, 940.500000, 8161.000000, 8169.000000, 8158.000000
2775, 17811392.000000, 886.000000, 8162.000000, 8167.000000, 8160.000000
2776, 17811552.000000, 842.500000, 8169.000000, 8164.000000, 8156.000000
2777, 17811712.000000, 814.000000, 8163.000000, 8165.000000, 8161.000000
2778, 17811872.000000, 788.500000, 8157.000000, 8161.000000, 8149.000000
2779, 17812032.000000, 786.000000, 8160.000000, 8159.000000, 8145.000000
2780, 17812192.000000, 869.500000, 8155.000000, 8150.000000, 8135.000000
2781, 17812352.000000, 1082.000000, 8159.000000, 8149.000000, 8136.000000
2782, 17812512.000000, 1402.500000, 8160.000000, 8153.000000, 8141.000000
2783, 17812672.000000, 1761.000000, 8167.000000, 8163.000000, 8163.000000
2784, 17812832.000000, 2069.500000, 8181.000000, 8167.000000, 8179.000000
2785, 17812992.000000, 2296.000000, 8175.000000, 8145.000000, 8153.000000
2786, 17813152.000000, 2424.500000, 8181.000000, 8154.000000, 8150.000000
2787, 17813312.000000, 2485.000000, 8166.000000, 8153.000000, 8133.000000
2788, 17813472.000000, 2493.500000, 8170.000000, 8158.000000, 8145.000000
2789, 17813632.000000, 2470.000000, 8169.000000, 8154.000000, 8136.000000
2790, 17813792.000000, 2408.500000, 8230.000000, 8241.000000, 8261.000000
2791, 17813952.000000, 2310.000000, 8615.000000, 8028.000000, 8209.000000
2792, 17814112.000000, 2183.000000, 8043.000000, 8090.000000, 8042.000000
2793, 17814272.000000, 2059.000000, 8091.000000, 8145.000000, 8063.000000
2794, 17814432.000000, 1946.000000, 8159.000000, 8200.000000, 8171.000000
2795, 17814592.000000, 1841.000000, 8178.000000, 8213.000000, 8199.000000
2796, 17814752.000000, 1751.500000, 8180.000000, 8222.000000, 8213.000000
2797, 17814912.000000, 1688.000000, 8188.000000, 8228.000000, 8221.000000
2798, 17815072.000000, 1642.500000, 8199.000000, 8238.000000, 8238.000000
2799, 17815232.000000, 1596.000000, 8218.000000, 8250.000000, 8262.000000
2800, 17815392.000000, 1538.500000, 8227.000000, 8268.000000, 8278.000000
2801, 17815552.000000, 1468.000000, 8244.000000, 8286.000000, 8306.000000
2802, 17815712.000000, 1393.500000, 8256.000000, 8294.000000, 8320.000000
2803, 17815872.000000, 1320.000000, 8251.000000, 8285.000000, 8307.000000
2804, 17816032.000000, 1245.500000, 8231.000000, 8260.000000, 8275.000000
2805, 17816192.000000, 1169.000000, 8194.000000, 8223.000000, 8229.000000
2806, 17816352.000000, 1093.000000, 8165.000000, 8187.000000, 8176.000000
2807, 17816512.000000, 1029.000000, 8161.000000, 8170.000000, 8155.000000
2808, 17816672.000000, 968.000000, 8157.000000, 8176.000000, 8162.000000
2809, 17816832.000000, 917.000000, 8161.000000, 8174.000000, 8163.000000
2810, 17816992.000000, 884.500000, 8168.000000, 8169.000000, 8162.000000
2811, 17817152.000000, 856.000000, 8168.000000, 8170.000000, 8161.000000
2812, 17817312.000000, 825.500000, 8158.000000, 8162.000000, 8149.000000
2813, 17817472.000000, 806.000000, 8160.000000, 8164.000000, 8156.000000
2814, 17817632.000000, 846.000000, 8162.000000, 8160.000000, 8147.000000
2815, 17817792.000000, 992.000000, 8155.000000, 8156.000000, 8137.000000
2816, 17817952.000000, 1284.000000, 8168.000000, 8166.000000, 8167.000000
2817, 17818112.000000, 1667.000000, 8170.000000, 8173.000000, 8179.000000
2818, 17818272.000000, 2044.000000, 8184.000000, 8166.000000, 8186.000000
2819, 17818432.000000, 2334.000000, 8179.000000, 8166.000000, 8166.000000
2820, 17818592.000000, 2497.000000, 8162.000000, 8158.000000, 8139.000000
2821, 17818752.000000, 2558.000000, 8167.000000, 8157.000000, 8142.000000
2822, 17818912.000000, 2558.500000, 8173.000000, 8167.000000, 8156.000000
2823, 17819072.000000, 2533.000000, 8185.000000, 8243.000000, 8255.000000
2824, 17819232.000000, 2478.000000, 8593.000000, 8098.000000, 8280.000000
2825, 17819392.000000, 2388.000000, 8048.000000, 8089.000000, 8058.000000
2826, 17819552.000000, 2262.500000, 8077.000000, 8124.000000, 8047.000000
2827, 17819712.000000, 2146.000000, 8150.000000, 8190.000000, 8159.000000
2828, 17819872.000000, 2056.000000, 8180.000000, 8202.000000, 8195.000000
2829, 17820032.000000, 1982.000000, 8188.000000, 8208.000000, 8210.000000
2830, 17820192.000000, 1909.500000, 8195.000000, 8211.000000, 8210.000000
2831, 17820352.000000, 1848.000000, 8205.000000, 8214.000000, 8224.000000
2832, 17820512.000000, 1807.000000, 8219.000000, 8225.000000, 8236.000000
2833, 17820672.000000, 1795.000000, 8232.000000, 8244.000000, 8260.000000
2834, 17820832.000000, 1787.000000, 8254.000000, 8265.000000, 8289.000000
2835, 17820992.000000, 1755.000000, 8260.000000, 8265.000000, 8299.000000
2836, 17821152.000000, 1691.500000, 8248.000000, 8256.000000, 8280.000000
2837, 17821312.000000, 1620.000000, 8235.000000, 8241.000000, 8261.000000
2838, 17821472.000000, 1559.000000, 8188.000000, 8213.000000, 8217.000000
2839, 17821632.000000, 1510.000000, 8175.000000, 8197.000000, 8197.000000
2840, 17821792.000000, 1464.500000, 8153.000000, 8168.000000, 8157.000000
2841, 17821952.000000, 1401.000000, 8153.000000, 8165.000000, 8152.000000
2842, 17822112.000000, 1330.000000, 8163.000000, 8174.000000, 8164.000000
2843, 17822272.000000, 1280.000000, 8167.000000, 8172.000000, 8163.000000
2844, 17822432.000000, 1256.000000, 8162.000000, 8162.000000, 8147.000000
2845, 17822592.000000, 1213.000000, 8160.000000, 8161.000000, 8149.000000
2846, 17822752.000000, 1140.500000, 8161.000000, 8166.000000, 8153.000000
2847, 17822912.000000, 1087.000000, 8164.000000, 8166.000000, 8153.000000
2848, 17823072.000000, 1148.000000, 8158.000000, 8173.000000, 8166.000000
2849, 17823232.000000, 1339.000000, 8172.000000, 8171.000000, 8179.000000
2850, 17823392.000000, 1654.500000, 8174.000000, 8162.000000, 8167.000000
2851, 17823552.000000, 2016.000000, 8171.000000, 8165.000000, 8156.000000
2852, 17823712.000000, 2349.500000, 8153.000000, 8169.000000, 8144.000000
2853, 17823872.000000, 2587.000000, 8157.000000, 8168.000000, 8146.000000
2854, 17824032.000000, 2713.000000, 8155.000000, 8168.000000, 8145.000000
2855, 17824192.000000, 2757.000000, 8237.000000, 8244.000000, 8261.000000
2856, 17824352.000000, 2751.000000, 8490.000000, 8093.000000, 8231.000000
2857, 17824512.000000, 2712.000000, 8036.000000, 8109.000000, 8062.000000
2858, 17824672.000000, 2621.500000, 8087.000000, 8156.000000, 8075.000000
2859, 17824832.000000, 2496.000000, 8153.000000, 8196.000000, 8169.000000
2860, 17824992.000000, 2371.000000, 8176.000000, 8206.000000, 8195.000000
2861, 17825152.000000, 2260.000000, 8183.000000, 8201.000000, 8194.000000
2862, 17825312.000000, 2162.500000, 8192.000000, 8212.000000, 8211.000000
2863, 17825472.000000, 2078.000000, 8206.000000, 8218.000000, 8224.000000
2864, 17825632.000000, 2025.000000, 8216.000000, 8229.000000, 8242.000000
2865, 17825792.000000, 2002.000000, 8239.000000, 8244.000000, 8262.000000
2866, 17825952.000000, 1986.500000, 8255.000000, 8256.000000, 8279.000000
2867, 17826112.000000, 1953.000000, 8253.000000, 8263.000000, 8283.000000
2868, 17826272.000000, 1892.000000, 8249.000000, 8259.000000, 8282.000000
2869, 17826432.000000, 1821.000000, 8226.000000, 8227.000000, 8239.000000
2870, 17826592.000000, 1762.500000, 8185.000000, 8196.000000, 8200.000000
2871, 17826752.000000, 1715.000000, 8165.000000, 8174.000000, 8167.000000
2872, 17826912.000000, 1658.000000, 8157.000000, 8168.000000, 8152.000000
2873, 17827072.000000, 1583.000000, 8157.000000, 8168.000000, 8158.000000
2874, 17827232.000000, 1505.500000, 8173.000000, 8167.000000, 8160.000000
2875, 17827392.000000, 1446.000000, 8167.000000, 8166.000000, 8157.000000
2876, 17827552.000000, 1400.000000, 8172.000000, 8171.000000, 8161.000000
2877, 17827712.000000, 1356.000000, 8169.000000, 8173.000000, 8167.000000
2878, 17827872.000000, 1298.000000, 8167.000000, 8169.000000, 8158.000000
2879, 17828032.000000, 1253.000000, 8167.000000, 8168.000000, 8155.000000
2880, 17828192.000000, 1316.500000, 8164.000000, 8175.000000, 8162.000000
2881, 17828352.000000, 1525.000000, 8159.000000, 8190.000000, 8181.000000
2882, 17828512.000000, 1882.500000, 8170.000000, 8181.000000, 8191.000000
2883, 17828672.000000, 2262.000000, 8185.000000, 8177.000000, 8187.000000
2884, 17828832.000000, 2573.000000, 8171.000000, 8174.000000, 8159.000000
2885, 17828992.000000, 2775.000000, 8168.000000, 8179.000000, 8162.000000
2886, 17829152.000000, 2878.500000, 8173.000000, 8175.000000, 8158.000000
2887, 17829312.000000, 2907.000000, 8156.000000, 8223.000000, 8218.000000
2888, 17829472.000000, 2883.000000, 8542.000000, 8147.000000, 8299.000000
2889, 17829632.000000, 2823.000000, 8099.000000, 8103.000000, 8096.000000
2890, 17829792.000000, 2726.000000, 8062.000000, 8136.000000, 8057.000000
2891, 17829952.000000, 2609.000000, 8148.000000, 8184.000000, 8140.000000
2892, 17830112.000000, 2484.500000, 8178.000000, 8210.000000, 8196.000000
2893, 17830272.000000, 2384.000000, 8187.000000, 8221.000000, 8217.000000
2894, 17830432.000000, 2312.500000, 8195.000000, 8215.000000, 8216.000000
2895, 17830592.000000, 2256.000000, 8202.000000, 8219.000000, 8223.000000
2896, 17830752.000000, 2218.000000, 8214.000000, 8239.000000, 8247.000000
2897, 17830912.000000, 2197.000000, 8228.000000, 8248.000000, 8265.000000
2898, 17831072.000000, 2181.500000, 8248.000000, 8261.000000, 8287.000000
2899, 17831232.000000, 2154.000000, 8253.000000, 8272.000000, 8300.000000
2900, 17831392.000000, 2109.500000, 8252.000000, 8280.000000, 8307.000000
2901, 17831552.000000, 2050.000000, 8237.000000, 8256.000000, 8273.000000
2902, 17831712.000000, 1977.500000, 8203.000000, 8224.000000, 8234.000000
2903, 17831872.000000, 1906.000000, 8177.000000, 8193.000000, 8200.000000
2904, 17832032.000000, 1845.500000, 8165.000000, 8179.000000, 8168.000000
2905, 17832192.000000, 1795.000000, 8157.000000, 8161.000000, 8147.000000
2906, 17832352.000000, 1747.500000, 8165.000000, 8168.000000, 8163.000000
2907, 17832512.000000, 1694.000000, 8173.000000, 8181.000000, 8178.000000
2908, 17832672.000000, 1641.500000, 8171.000000, 8166.000000, 8157.000000
2909, 17832832.000000, 1597.000000, 8177.000000, 8172.000000, 8173.000000
2910, 17832992.000000, 1553.000000, 8166.000000, 8169.000000, 8165.000000
2911, 17833152.000000, 1511.000000, 8172.000000, 8169.000000, 8163.000000
2912, 17833312.000000, 1532.000000, 8170.000000, 8162.000000, 8151.000000
2913, 17833472.000000, 1686.000000, 8174.000000, 8170.000000, 8169.000000
2914, 17833632.000000, 2025.000000, 8177.000000, 8179.000000, 8194.000000
2915, 17833792.000000, 2453.000000, 8190.000000, 8163.000000, 8177.000000
2916, 17833952.000000, 2851.000000, 8189.000000, 8168.000000, 8171.000000
2917, 17834112.000000, 3131.000000, 8163.000000, 8164.000000, 8148.000000
2918, 17834272.000000, 3292.000000, 8163.000000, 8164.000000, 8146.000000
2919, 17834432.000000, 3374.000000, 8164.000000, 8173.000000, 8160.000000
2920, 17834592.000000, 3411.000000, 8191.000000, 8247.000000, 8255.000000
2921, 17834752.000000, 3409.000000, 8617.000000, 8070.000000, 8252.000000
2922, 17834912.000000, 3334.000000, 8038.000000, 8071.000000, 8026.000000
2923, 17835072.000000, 3218.000000, 8080.000000, 8145.000000, 8068.000000
2924, 17835232.000000, 3104.500000, 8157.000000, 8202.000000, 8176.000000
2925, 17835392.000000, 3010.000000, 8178.000000, 8209.000000, 8197.000000
2926, 17835552.000000, 2921.000000, 8182.000000, 8209.000000, 8200.000000
2927, 17835712.000000, 2827.000000, 8192.000000, 8224.000000, 8227.000000
2928, 17835872.000000, 2772.000000, 8194.000000, 8237.000000, 8241.000000
2929, 17836032.000000, 2762.000000, 8216.000000, 8243.000000, 8254.000000
2930, 17836192.000000, 2750.000000, 8224.000000, 8253.000000, 8261.000000
2931, 17836352.000000, 2698.000000, 8247.000000, 8282.000000, 8306.000000
2932, 17836512.000000, 2617.000000, 8255.000000, 8285.000000, 8314.000000
2933, 17836672.000000, 2547.000000, 8252.000000, 8282.000000, 8307.000000
2934, 17836832.000000, 2485.500000, 8230.000000, 8249.000000, 8265.000000
2935, 17836992.000000, 2406.000000, 8197.000000, 8214.000000, 8218.000000
2936, 17837152.000000, 2306.500000, 8158.000000, 8182.000000, 8173.000000
2937, 17837312.000000, 2213.000000, 8146.000000, 8169.000000, 8154.000000
2938, 17837472.000000, 2137.500000, 8148.000000, 8167.000000, 8151.000000
2939, 17837632.000000, 2061.000000, 8162.000000, 8173.000000, 8162.000000
2940, 17837792.000000, 1969.500000, 8169.000000, 8176.000000, 8172.000000
2941, 17837952.000000, 1880.000000, 8171.000000, 8172.000000, 8169.000000
2942, 17838112.000000, 1802.000000, 8172.000000, 8163.000000, 8151.000000
2943, 17838272.000000, 1727.000000, 8167.000000, 8162.000000, 8155.000000
2944, 17838432.000000, 1668.000000, 8162.000000, 8158.000000, 8145.000000
2945, 17838592.000000, 1688.000000, 8172.000000, 8158.000000, 8146.000000
2946, 17838752.000000, 1906.000000, 8176.000000, 8174.000000, 8176.000000
2947, 17838912.000000, 2292.000000, 8180.000000, 8167.000000, 8182.000000
2948, 17839072.000000, 2756.500000, 8181.000000, 8158.000000, 8168.000000
2949, 17839232.000000, 3172.000000, 8166.000000, 8164.000000, 8150.000000
2950, 17839392.000000, 3491.000000, 8162.000000, 8161.000000, 8142.000000
2951, 17839552.000000, 3712.000000, 8158.000000, 8158.000000, 8139.000000
2952, 17839712.000000, 3831.000000, 8159.000000, 8169.000000, 8150.000000
2953, 17839872.000000, 3873.000000, 8331.000000, 8240.000000, 8302.000000
2954, 17840032.000000, 3861.000000, 8453.000000, 8017.000000, 8140.000000
2955, 17840192.000000, 3808.000000, 8054.000000, 8099.000000, 8034.000000
2956, 17840352.000000, 3708.000000, 8103.000000, 8165.000000, 8097.000000
2957, 17840512.000000, 3562.000000, 8170.000000, 8192.000000, 8175.000000
2958, 17840672.000000, 3394.500000, 8184.000000, 8206.000000, 8196.000000
2959, 17840832.000000, 3245.000000, 8197.000000, 8200.000000, 8200.000000
2960, 17840992.000000, 3130.000000, 8204.000000, 8203.000000, 8202.000000
2961, 17841152.000000, 3039.000000, 8217.000000, 8213.000000, 8219.000000
2962, 17841312.000000, 2958.500000, 8234.000000, 8235.000000, 8248.000000
2963, 17841472.000000, 2891.000000, 8246.000000, 8251.000000, 8272.000000
2964, 17841632.000000, 2833.500000, 8266.000000, 8263.000000, 8289.000000
2965, 17841792.000000, 2756.000000, 8273.000000, 8267.000000, 8290.000000
2966, 17841952.000000, 2649.500000, 8265.000000, 8253.000000, 8279.000000
2967, 17842112.000000, 2541.000000, 8222.000000, 8229.000000, 8246.000000
2968, 17842272.000000, 2455.500000, 8184.000000, 8197.000000, 8193.000000
2969, 17842432.000000, 2372.000000, 8162.000000, 8174.000000, 8157.000000
2970, 17842592.000000, 2263.500000, 8154.000000, 8168.000000, 8152.000000
2971, 17842752.000000, 2140.000000, 8151.000000, 8172.000000, 8156.000000
2972, 17842912.000000, 2027.000000, 8158.000000, 8173.000000, 8160.000000
2973, 17843072.000000, 1934.000000, 8166.000000, 8178.000000, 8168.000000
2974, 17843232.000000, 1848.500000, 8176.000000, 8163.000000, 8154.000000
2975, 17843392.000000, 1750.000000, 8166.000000, 8159.000000, 8145.000000
2976, 17843552.000000, 1645.500000, 8172.000000, 8164.000000, 8150.000000
2977, 17843712.000000, 1587.000000, 8167.000000, 8155.000000, 8142.000000
2978, 17843872.000000, 1688.500000, 8173.000000, 8152.000000, 8149.000000
2979, 17844032.000000, 1987.000000, 8182.000000, 8157.000000, 8163.000000
2980, 17844192.000000, 2455.000000, 8192.000000, 8155.000000, 8164.000000
2981, 17844352.000000, 2949.000000, 8172.000000, 8147.000000, 8139.000000
2982, 17844512.000000, 3372.000000, 8164.000000, 8149.000000, 8128.000000
2983, 17844672.000000, 3679.000000, 8165.000000, 8153.000000, 8132.000000
2984, 17844832.000000, 3861.000000, 8166.000000, 8151.000000, 8133.000000
2985, 17844992.000000, 3954.000000, 8213.000000, 8230.000000, 8243.000000
2986, 17845152.000000, 3979.000000, 8552.000000, 8077.000000, 8236.000000
2987, 17845312.000000, 3945.000000, 8041.000000, 8100.000000, 8055.000000
2988, 17845472.000000, 3842.500000, 8086.000000, 8134.000000, 8053.000000
2989, 17845632.000000, 3701.000000, 8162.000000, 8186.000000, 8157.000000
2990, 17845792.000000, 3535.500000, 8181.000000, 8198.000000, 8188.000000
2991, 17845952.000000, 3383.000000, 8195.000000, 8206.000000, 8203.000000
2992, 17846112.000000, 3269.000000, 8201.000000, 8196.000000, 8193.000000
2993, 17846272.000000, 3167.000000, 8210.000000, 8210.000000, 8217.000000
2994, 17846432.000000, 3089.000000, 8223.000000, 8224.000000, 8238.000000
2995, 17846592.000000, 3014.000000, 8236.000000, 8239.000000, 8257.000000
2996, 17846752.000000, 2917.000000, 8262.000000, 8253.000000, 8277.000000
2997, 17846912.000000, 2811.000000, 8263.000000, 8261.000000, 8289.000000
2998, 17847072.000000, 2710.500000, 8265.000000, 8245.000000, 8271.000000
2999, 17847232.000000, 2583.000000, 8222.000000, 8227.000000, 8236.000000
3000, 17847392.000000, 2430.500000, 8194.000000, 8213.000000, 8215.000000
3001, 17847552.000000, 2298.000000, 8156.000000, 8182.000000, 8173.000000
3002, 17847712.000000, 2189.500000, 8151.000000, 8172.000000, 8160.000000
3003, 17847872.000000, 2100.000000, 8158.000000, 8170.000000, 8153.000000
3004, 17848032.000000, 2008.500000, 8154.000000, 8165.000000, 8151.000000
3005, 17848192.000000, 1905.000000, 8169.000000, 8169.000000, 8165.000000
3006, 17848352.000000, 1802.000000, 8169.000000, 8174.000000, 8168.000000
3007, 17848512.000000, 1708.000000, 8171.000000, 8170.000000, 8165.000000
3008, 17848672.000000, 1651.500000, 8168.000000, 8162.000000, 8157.000000
3009, 17848832.000000, 1688.000000, 8162.000000, 8158.000000, 8147.000000
3010, 17848992.000000, 1991.000000, 8165.000000, 8168.000000, 8161.000000
3011, 17849152.000000, 2524.000000, 8168.000000, 8166.000000, 8155.000000
3012, 17849312.000000, 3030.000000, 8159.000000, 8172.000000, 8169.000000
3013, 17849472.000000, 3455.000000, 8179.000000, 8165.000000, 8183.000000
3014, 17849632.000000, 3748.500000, 8188.000000, 8167.000000, 8179.000000
3015, 17849792.000000, 3924.000000, 8164.000000, 8172.000000, 8157.000000
3016, 17849952.000000, 4007.000000, 8155.000000, 8168.000000, 8151.000000
3017, 17850112.000000, 4026.000000, 8167.000000, 8162.000000, 8151.000000
3018, 17850272.000000, 3970.000000, 8145.000000, 8190.000000, 8182.000000
3019, 17850432.000000, 3845.000000, 8433.000000, 8197.000000, 8307.000000
3020, 17850592.000000, 3662.000000, 8248.000000, 8051.000000, 8109.000000
3021, 17850752.000000, 3467.000000, 8037.000000, 8121.000000, 8057.000000
3022, 17850912.000000, 3296.000000, 8109.000000, 8174.000000, 8120.000000
3023, 17851072.000000, 3155.000000, 8152.000000, 8193.000000, 8182.000000
3024, 17851232.000000, 3039.000000, 8162.000000, 8207.000000, 8204.000000
3025, 17851392.000000, 2945.000000, 8172.000000, 8207.000000, 8207.000000
3026, 17851552.000000, 2872.000000, 8184.000000, 8207.000000, 8209.000000
3027, 17851712.000000, 2805.000000, 8191.000000, 8220.000000, 8232.000000
3028, 17851872.000000, 2737.500000, 8207.000000, 8239.000000, 8256.000000
3029, 17852032.000000, 2646.000000, 8226.000000, 8251.000000, 8275.000000
3030, 17852192.000000, 2523.500000, 8242.000000, 8255.000000, 8283.000000
3031, 17852352.000000, 2372.000000, 8246.000000, 8255.000000, 8282.000000
3032, 17852512.000000, 2220.500000, 8238.000000, 8249.000000, 8277.000000
3033, 17852672.000000, 2091.000000, 8198.000000, 8222.000000, 8237.000000
3034, 17852832.000000, 1984.000000, 8169.000000, 8188.000000, 8192.000000
3035, 17852992.000000, 1875.000000, 8135.000000, 8160.000000, 8149.000000
3036, 17853152.000000, 1756.000000, 8139.000000, 8161.000000, 8151.000000
3037, 17853312.000000, 1638.000000, 8145.000000, 8172.000000, 8166.000000
3038, 17853472.000000, 1538.000000, 8149.000000, 8171.000000, 8164.000000
3039, 17853632.000000, 1439.000000, 8153.000000, 8160.000000, 8155.000000
3040, 17853792.000000, 1339.500000, 8159.000000, 8167.000000, 8164.000000
3041, 17853952.000000, 1263.000000, 8153.000000, 8164.000000, 8155.000000
3042, 17854112.000000, 1285.000000, 8155.000000, 8156.000000, 8147.000000
3043, 17854272.000000, 1460.000000, 8155.000000, 8163.000000, 8158.000000
3044, 17854432.000000, 1844.000000, 8154.000000, 8158.000000, 8148.000000
3045, 17854592.000000, 2370.000000, 8151.000000, 8151.000000, 8141.000000
3046, 17854752.000000, 2916.000000, 8156.000000, 8163.000000, 8158.000000
3047, 17854912.000000, 3355.000000, 8173.000000, 8168.000000, 8174.000000
3048, 17855072.000000, 3638.000000, 8181.000000, 8154.000000, 8170.000000
3049, 17855232.000000, 3814.000000, 8176.000000, 8159.000000, 8163.000000
3050, 17855392.000000, 3896.000000, 8159.000000, 8158.000000, 8141.000000
3051, 17855552.000000, 3893.000000, 8166.000000, 8160.000000, 8150.000000
3052, 17855712.000000, 3810.000000, 8173.000000, 8162.000000, 8145.000000
3053, 17855872.000000, 3673.000000, 8191.000000, 8250.000000, 8252.000000
3054, 17856032.000000, 3500.500000, 8648.000000, 8067.000000, 8248.000000
3055, 17856192.000000, 3298.000000, 8057.000000, 8087.000000, 8038.000000
3056, 17856352.000000, 3101.500000, 8088.000000, 8149.000000, 8055.000000
3057, 17856512.000000, 2947.000000, 8162.000000, 8206.000000, 8165.000000
3058, 17856672.000000, 2835.000000, 8184.000000, 8215.000000, 8191.000000
3059, 17856832.000000, 2734.000000, 8195.000000, 8224.000000, 8207.000000
3060, 17856992.000000, 2644.000000, 8199.000000, 8228.000000, 8214.000000
3061, 17857152.000000, 2551.000000, 8211.000000, 8246.000000, 8236.000000
3062, 17857312.000000, 2440.500000, 8229.000000, 8258.000000, 8260.000000
3063, 17857472.000000, 2305.000000, 8241.000000, 8272.000000, 8282.000000
3064, 17857632.000000, 2156.000000, 8265.000000, 8287.000000, 8305.000000
3065, 17857792.000000, 2012.000000, 8281.000000, 8287.000000, 8309.000000
3066, 17857952.000000, 1882.500000, 8280.000000, 8285.000000, 8309.000000
3067, 17858112.000000, 1763.000000, 8258.000000, 8267.000000, 8282.000000
3068, 17858272.000000, 1647.500000, 8212.000000, 8231.000000, 8233.000000
3069, 17858432.000000, 1546.000000, 8184.000000, 8198.000000, 8190.000000
3070, 17858592.000000, 1458.500000, 8163.000000, 8177.000000, 8159.000000
3071, 17858752.000000, 1376.000000, 8172.000000, 8187.000000, 8169.000000
3072, 17858912.000000, 1283.500000, 8171.000000, 8178.000000, 8169.000000
3073, 17859072.000000, 1198.000000, 8174.000000, 8182.000000, 8171.000000
3074, 17859232.000000, 1121.500000, 8177.000000, 8183.000000, 8174.000000
3075, 17859392.000000, 1054.000000, 8182.000000, 8176.000000, 8169.000000
3076, 17859552.000000, 1035.000000, 8168.000000, 8173.000000, 8164.000000
3077, 17859712.000000, 1175.000000, 8166.000000, 8170.000000, 8158.000000
3078, 17859872.000000, 1534.500000, 8170.000000, 8175.000000, 8164.000000
3079, 17860032.000000, 2080.000000, 8171.000000, 8164.000000, 8153.000000
3080, 17860192.000000, 2672.000000, 8164.000000, 8168.000000, 8151.000000
3081, 17860352.000000, 3180.000000, 8173.000000, 8168.000000, 8161.000000
3082, 17860512.000000, 3522.500000, 8187.000000, 8180.000000, 8188.000000
3083, 17860672.000000, 3739.000000, 8182.000000, 8177.000000, 8189.000000
3084, 17860832.000000, 3859.000000, 8207.000000, 8168.000000, 8175.000000
3085, 17860992.000000, 3897.000000, 8164.000000, 8170.000000, 8153.000000
3086, 17861152.000000, 3868.000000, 8176.000000, 8177.000000, 8170.000000
3087, 17861312.000000, 3770.000000, 8171.000000, 8178.000000, 8163.000000
3088, 17861472.000000, 3607.000000, 8177.000000, 8183.000000, 8168.000000
3089, 17861632.000000, 3401.000000, 8337.000000, 8242.000000, 8306.000000
3090, 17861792.000000, 3186.500000, 8517.000000, 7980.000000, 8124.000000
3091, 17861952.000000, 2997.000000, 8052.000000, 8102.000000, 8030.000000
3092, 17862112.000000, 2847.500000, 8107.000000, 8178.000000, 8109.000000
3093, 17862272.000000, 2734.000000, 8163.000000, 8221.000000, 8203.000000
3094, 17862432.000000, 2640.000000, 8171.000000, 8222.000000, 8215.000000
3095, 17862592.000000, 2555.000000, 8181.000000, 8225.000000, 8217.000000
3096, 17862752.000000, 2472.500000, 8188.000000, 8235.000000, 8239.000000
3097, 17862912.000000, 2380.000000, 8186.000000, 8242.000000, 8253.000000
3098, 17863072.000000, 2264.500000, 8200.000000, 8258.000000, 8284.000000
3099, 17863232.000000, 2134.000000, 8217.000000, 8267.000000, 8297.000000
3100, 17863392.000000, 2001.000000, 8239.000000, 8284.000000, 8320.000000
3101, 17863552.000000, 1885.000000, 8241.000000, 8287.000000, 8321.000000
3102, 17863712.000000, 1781.500000, 8244.000000, 8266.000000, 8308.000000
3103, 17863872.000000, 1682.000000, 8214.000000, 8246.000000, 8276.000000
3104, 17864032.000000, 1589.000000, 8178.000000, 8199.000000, 8215.000000
3105, 17864192.000000, 1505.000000, 8143.000000, 8168.000000, 8165.000000
3106, 17864352.000000, 1425.000000, 8134.000000, 8160.000000, 8155.000000
3107, 17864512.000000, 1342.000000, 8129.000000, 8164.000000, 8159.000000
3108, 17864672.000000, 1262.500000, 8140.000000, 8167.000000, 8164.000000
3109, 17864832.000000, 1189.000000, 8145.000000, 8169.000000, 8167.000000
3110, 17864992.000000, 1122.000000, 8148.000000, 8168.000000, 8162.000000
3111, 17865152.000000, 1061.000000, 8152.000000, 8169.000000, 8171.000000
3112, 17865312.000000, 1061.000000, 8159.000000, 8156.000000, 8161.000000
3113, 17865472.000000, 1199.000000, 8152.000000, 8153.000000, 8148.000000
3114, 17865632.000000, 1575.000000, 8145.000000, 8154.000000, 8144.000000
3115, 17865792.000000, 2116.000000, 8154.000000, 8158.000000, 8148.000000
3116, 17865952.000000, 2723.000000, 8146.000000, 8156.000000, 8149.000000
3117, 17866112.000000, 3249.000000, 8152.000000, 8153.000000, 8144.000000
3118, 17866272.000000, 3638.500000, 8158.000000, 8159.000000, 8152.000000
3119, 17866432.000000, 3880.000000, 8162.000000, 8171.000000, 8178.000000
3120, 17866592.000000, 3991.500000, 8173.000000, 8169.000000, 8189.000000
3121, 17866752.000000, 4014.000000, 8180.000000, 8157.000000, 8170.000000
3122, 17866912.000000, 3966.000000, 8176.000000, 8169.000000, 8164.000000
3123, 17867072.000000, 3853.000000, 8155.000000, 8162.000000, 8153.000000
3124, 17867232.000000, 3666.500000, 8161.000000, 8167.000000, 8152.000000
3125, 17867392.000000, 3427.000000, 8147.000000, 8175.000000, 8162.000000
3126, 17867552.000000, 3179.000000, 8318.000000, 8250.000000, 8313.000000
3127, 17867712.000000, 2959.000000, 8558.000000, 7993.000000, 8156.000000
3128, 17867872.000000, 2785.000000, 8026.000000, 8094.000000, 8029.000000
3129, 17868032.000000, 2643.000000, 8088.000000, 8163.000000, 8087.000000
3130, 17868192.000000, 2527.000000, 8161.000000, 8205.000000, 8188.000000
3131, 17868352.000000, 2431.000000, 8181.000000, 8209.000000, 8203.000000
3132, 17868512.000000, 2337.500000, 8187.000000, 8215.000000, 8215.000000
3133, 17868672.000000, 2223.000000, 8198.000000, 8219.000000, 8220.000000
3134, 17868832.000000, 2084.000000, 8203.000000, 8228.000000, 8238.000000
3135, 17868992.000000, 1939.000000, 8228.000000, 8240.000000, 8257.000000
3136, 17869152.000000, 1811.500000, 8250.000000, 8254.000000, 8282.000000
3137, 17869312.000000, 1692.000000, 8270.000000, 8275.000000, 8306.000000
3138, 17869472.000000, 1555.500000, 8275.000000, 8278.000000, 8312.000000
3139, 17869632.000000, 1411.000000, 8272.000000, 8274.000000, 8306.000000
3140, 17869792.000000, 1274.000000, 8250.000000, 8237.000000, 8263.000000
3141, 17869952.000000, 1162.000000, 8198.000000, 8213.000000, 8222.000000
3142, 17870112.000000, 1071.000000, 8172.000000, 8195.000000, 8187.000000
3143, 17870272.000000, 989.000000, 8151.000000, 8184.000000, 8164.000000
3144, 17870432.000000, 914.000000, 8153.000000, 8182.000000, 8155.000000
3145, 17870592.000000, 848.000000, 8175.000000, 8184.000000, 8160.000000
3146, 17870752.000000, 783.500000, 8187.000000, 8200.000000, 8178.000000
3147, 17870912.000000, 715.000000, 8183.000000, 8193.000000, 8172.000000
3148, 17871072.000000, 654.000000, 8192.000000, 8183.000000, 8162.000000
3149, 17871232.000000, 656.000000, 8196.000000, 8178.000000, 8154.000000
3150, 17871392.000000, 822.500000, 8189.000000, 8182.000000, 8159.000000
3151, 17871552.000000, 1211.000000, 8184.000000, 8181.000000, 8155.000000
3152, 17871712.000000, 1791.000000, 8182.000000, 8178.000000, 8155.000000
3153, 17871872.000000, 2404.000000, 8187.000000, 8173.000000, 8147.000000
3154, 17872032.000000, 2906.000000, 8187.000000, 8175.000000, 8151.000000
3155, 17872192.000000, 3266.000000, 8184.000000, 8186.000000, 8170.000000
3156, 17872352.000000, 3487.000000, 8189.000000, 8184.000000, 8177.000000
3157, 17872512.000000, 3604.000000, 8201.000000, 8173.000000, 8178.000000
3158, 17872672.000000, 3650.000000, 8208.000000, 8184.000000, 8182.000000
3159, 17872832.000000, 3635.000000, 8179.000000, 8173.000000, 8148.000000
3160, 17872992.000000, 3531.000000, 8175.000000, 8184.000000, 8160.000000
3161, 17873152.000000, 3351.000000, 8187.000000, 8177.000000, 8155.000000
3162, 17873312.000000, 3118.000000, 8166.000000, 8240.000000, 8230.000000
3163, 17873472.000000, 2889.000000, 8640.000000, 8110.000000, 8288.000000
3164, 17873632.000000, 2700.000000, 8094.000000, 8090.000000, 8068.000000
3165, 17873792.000000, 2561.000000, 8075.000000, 8130.000000, 8041.000000
3166, 17873952.000000, 2469.000000, 8136.000000, 8201.000000, 8145.000000
3167, 17874112.000000, 2399.000000, 8186.000000, 8221.000000, 8208.000000
3168, 17874272.000000, 2325.000000, 8198.000000, 8223.000000, 8216.000000
3169, 17874432.000000, 2238.000000, 8207.000000, 8224.000000, 8221.000000
3170, 17874592.000000, 2133.500000, 8207.000000, 8234.000000, 8237.000000
3171, 17874752.000000, 2015.000000, 8221.000000, 8242.000000, 8248.000000
3172, 17874912.000000, 1882.000000, 8243.000000, 8248.000000, 8265.000000
3173, 17875072.000000, 1741.000000, 8260.000000, 8273.000000, 8301.000000
3174, 17875232.000000, 1609.500000, 8279.000000, 8278.000000, 8305.000000
3175, 17875392.000000, 1487.000000, 8277.000000, 8273.000000, 8307.000000
3176, 17875552.000000, 1370.000000, 8261.000000, 8252.000000, 8281.000000
3177, 17875712.000000, 1247.000000, 8220.000000, 8232.000000, 8250.000000
3178, 17875872.000000, 1129.000000, 8176.000000, 8199.000000, 8203.000000
3179, 17876032.000000, 1025.000000, 8142.000000, 8169.000000, 8163.000000
3180, 17876192.000000, 949.000000, 8132.000000, 8166.000000, 8159.000000
3181, 17876352.000000, 889.000000, 8140.000000, 8166.000000, 8163.000000
3182, 17876512.000000, 827.500000, 8147.000000, 8172.000000, 8169.000000
3183, 17876672.000000, 775.000000, 8151.000000, 8167.000000, 8167.000000
3184, 17876832.000000, 746.500000, 8153.000000, 8175.000000, 8176.000000
3185, 17876992.000000, 740.000000, 8153.000000, 8161.000000, 8164.000000
3186, 17877152.000000, 785.000000, 8152.000000, 8161.000000, 8158.000000
3187, 17877312.000000, 940.000000, 8152.000000, 8157.000000, 8152.000000
3188, 17877472.000000, 1283.000000, 8152.000000, 8165.000000, 8158.000000
3189, 17877632.000000, 1800.000000, 8153.000000, 8163.000000, 8164.000000
3190, 17877792.000000, 2372.000000, 8148.000000, 8169.000000, 8171.000000
3191, 17877952.000000, 2865.000000, 8171.000000, 8181.000000, 8200.000000
3192, 17878112.000000, 3199.000000, 8178.000000, 8168.000000, 8184.000000
3193, 17878272.000000, 3403.000000, 8157.000000, 8162.000000, 8158.000000
3194, 17878432.000000, 3503.500000, 8147.000000, 8167.000000, 8154.000000
3195, 17878592.000000, 3529.000000, 8154.000000, 8174.000000, 8160.000000
3196, 17878752.000000, 3473.500000, 8149.000000, 8167.000000, 8156.000000
3197, 17878912.000000, 3341.000000, 8261.000000, 8247.000000, 8284.000000
3198, 17879072.000000, 3147.500000, 8502.000000, 8072.000000, 8220.000000
3199, 17879232.000000, 2922.000000, 8032.000000, 8107.000000, 8062.000000
3200, 17879392.000000, 2699.000000, 8085.000000, 8153.000000, 8081.000000
3201, 17879552.000000, 2505.000000, 8153.000000, 8202.000000, 8183.000000
3202, 17879712.000000, 2362.500000, 8170.000000, 8208.000000, 8203.000000
3203, 17879872.000000, 2264.000000, 8186.000000, 8210.000000, 8213.000000
3204, 17880032.000000, 2185.000000, 8185.000000, 8213.000000, 8217.000000
3205, 17880192.000000, 2095.000000, 8201.000000, 8228.000000, 8235.000000
3206, 17880352.000000, 1991.500000, 8209.000000, 8232.000000, 8248.000000
3207, 17880512.000000, 1883.000000, 8232.000000, 8254.000000, 8280.000000
3208, 17880672.000000, 1764.000000, 8256.000000, 8258.000000, 8288.000000
3209, 17880832.000000, 1627.000000, 8286.000000, 8261.000000, 8303.000000
3210, 17880992.000000, 1484.000000, 8267.000000, 8253.000000, 8284.000000
3211, 17881152.000000, 1359.000000, 8244.000000, 8232.000000, 8254.000000
3212, 17881312.000000, 1258.500000, 8205.000000, 8214.000000, 8226.000000
3213, 17881472.000000, 1158.000000, 8168.000000, 8185.000000, 8186.000000
3214, 17881632.000000, 1055.000000, 8154.000000, 8159.000000, 8143.000000
3215, 17881792.000000, 954.000000, 8155.000000, 8168.000000, 8153.000000
3216, 17881952.000000, 863.000000, 8164.000000, 8174.000000, 8159.000000
3217, 17882112.000000, 788.000000, 8174.000000, 8185.000000, 8170.000000
3218, 17882272.000000, 725.000000, 8188.000000, 8190.000000, 8177.000000
3219, 17882432.000000, 662.000000, 8186.000000, 8188.000000, 8171.000000
3220, 17882592.000000, 611.000000, 8184.000000, 8192.000000, 8166.000000
3221, 17882752.000000, 662.000000, 8181.000000, 8182.000000, 8160.000000
3222, 17882912.000000, 918.000000, 8172.000000, 8187.000000, 8159.000000
3223, 17883072.000000, 1393.000000, 8177.000000, 8191.000000, 8166.000000
3224, 17883232.000000, 1968.000000, 8167.000000, 8186.000000, 8155.000000
3225, 17883392.000000, 2496.000000, 8188.000000, 8191.000000, 8172.000000
3226, 17883552.000000, 2873.000000, 8195.000000, 8195.000000, 8188.000000
3227, 17883712.000000, 3109.000000, 8203.000000, 8183.000000, 8180.000000
3228, 17883872.000000, 3225.500000, 8198.000000, 8186.000000, 8179.000000
3229, 17884032.000000, 3257.000000, 8175.000000, 8185.000000, 8159.000000
3230, 17884192.000000, 3222.000000, 8184.000000, 8172.000000, 8146.000000
3231, 17884352.000000, 3126.000000, 8187.000000, 8183.000000, 8159.000000
3232, 17884512.000000, 2962.500000, 8172.000000, 8248.000000, 8242.000000
3233, 17884672.000000, 2753.000000, 8624.000000, 8105.000000, 8278.000000
3234, 17884832.000000, 2528.000000, 8092.000000, 8069.000000, 8034.000000
3235, 17884992.000000, 2329.000000, 8077.000000, 8133.000000, 8042.000000
3236, 17885152.000000, 2181.000000, 8144.000000, 8210.000000, 8159.000000
3237, 17885312.000000, 2085.000000, 8180.000000, 8229.000000, 8212.000000
3238, 17885472.000000, 2023.000000, 8192.000000, 8230.000000, 8223.000000
3239, 17885632.000000, 1970.000000, 8194.000000, 8224.000000, 8219.000000
3240, 17885792.000000, 1900.000000, 8203.000000, 8233.000000, 8230.000000
3241, 17885952.000000, 1812.000000, 8213.000000, 8249.000000, 8252.000000
3242, 17886112.000000, 1711.000000, 8227.000000, 8277.000000, 8291.000000
3243, 17886272.000000, 1606.000000, 8255.000000, 8275.000000, 8304.000000
3244, 17886432.000000, 1496.000000, 8273.000000, 8293.000000, 8320.000000
3245, 17886592.000000, 1390.000000, 8273.000000, 8290.000000, 8313.000000
3246, 17886752.000000, 1287.500000, 8261.000000, 8275.000000, 8304.000000
3247, 17886912.000000, 1188.000000, 8228.000000, 8242.000000, 8261.000000
3248, 17887072.000000, 1096.000000, 8187.000000, 8197.000000, 8197.000000
3249, 17887232.000000, 1018.000000, 8159.000000, 8175.000000, 8154.000000
3250, 17887392.000000, 950.000000, 8151.000000, 8161.000000, 8147.000000
3251, 17887552.000000, 886.000000, 8145.000000, 8162.000000, 8156.000000
3252, 17887712.000000, 829.500000, 8158.000000, 8172.000000, 8178.000000
3253, 17887872.000000, 782.000000, 8157.000000, 8167.000000, 8171.000000
3254, 17888032.000000, 737.500000, 8155.000000, 8154.000000, 8154.000000
3255, 17888192.000000, 701.000000, 8151.000000, 8160.000000, 8164.000000
3256, 17888352.000000, 725.500000, 8144.000000, 8154.000000, 8155.000000
3257, 17888512.000000, 880.000000, 8151.000000, 8149.000000, 8147.000000
3258, 17888672.000000, 1263.500000, 8145.000000, 8150.000000, 8144.000000
3259, 17888832.000000, 1795.000000, 8146.000000, 8158.000000, 8153.000000
3260, 17888992.000000, 2348.000000, 8146.000000, 8149.000000, 8146.000000
3261, 17889152.000000, 2786.000000, 8147.000000, 8155.000000, 8150.000000
3262, 17889312.000000, 3069.500000, 8159.000000, 8166.000000, 8171.000000
3263, 17889472.000000, 3220.000000, 8148.000000, 8165.000000, 8169.000000
3264, 17889632.000000, 3271.000000, 8168.000000, 8152.000000, 8171.000000
3265, 17889792.000000, 3266.000000, 8173.000000, 8159.000000, 8163.000000
3266, 17889952.000000, 3217.000000, 8156.000000, 8154.000000, 8143.000000
3267, 17890112.000000, 3117.000000, 8149.000000, 8159.000000, 8144.000000
3268, 17890272.000000, 2955.000000, 8159.000000, 8168.000000, 8159.000000
3269, 17890432.000000, 2750.000000, 8149.000000, 8229.000000, 8231.000000
3270, 17890592.000000, 2544.000000, 8637.000000, 8064.000000, 8256.000000
3271, 17890752.000000, 2365.000000, 8070.000000, 8051.000000, 8031.000000
3272, 17890912.000000, 2230.000000, 8052.000000, 8119.000000, 8035.000000
3273, 17891072.000000, 2130.000000, 8133.000000, 8195.000000, 8165.000000
3274, 17891232.000000, 2050.500000, 8157.000000, 8216.000000, 8202.000000
3275, 17891392.000000, 1968.000000, 8174.000000, 8221.000000, 8218.000000
3276, 17891552.000000, 1875.000000, 8176.000000, 8223.000000, 8220.000000
3277, 17891712.000000, 1767.000000, 8196.000000, 8227.000000, 8235.000000
3278, 17891872.000000, 1654.000000, 8197.000000, 8244.000000, 8252.000000
3279, 17892032.000000, 1534.000000, 8219.000000, 8259.000000, 8278.000000
3280, 17892192.000000, 1411.000000, 8240.000000, 8280.000000, 8305.000000
3281, 17892352.000000, 1288.000000, 8256.000000, 8285.000000, 8317.000000
3282, 17892512.000000, 1170.500000, 8265.000000, 8278.000000, 8312.000000
3283, 17892672.000000, 1061.000000, 8246.000000, 8262.000000, 8287.000000
3284, 17892832.000000, 966.000000, 8211.000000, 8231.000000, 8249.000000
3285, 17892992.000000, 882.000000, 8167.000000, 8193.000000, 8190.000000
3286, 17893152.000000, 811.000000, 8152.000000, 8165.000000, 8152.000000
3287, 17893312.000000, 753.000000, 8141.000000, 8163.000000, 8144.000000
3288, 17893472.000000, 714.000000, 8141.000000, 8169.000000, 8152.000000
3289, 17893632.000000, 687.000000, 8149.000000, 8161.000000, 8146.000000
3290, 17893792.000000, 656.500000, 8157.000000, 8158.000000, 8146.000000
3291, 17893952.000000, 610.000000, 8163.000000, 8163.000000, 8149.000000
3292, 17894112.000000, 560.500000, 8164.000000, 8156.000000, 8147.000000
3293, 17894272.000000, 575.000000, 8161.000000, 8151.000000, 8140.000000
3294, 17894432.000000, 748.000000, 8165.000000, 8148.000000, 8135.000000
3295, 17894592.000000, 1116.000000, 8160.000000, 8148.000000, 8134.000000
3296, 17894752.000000, 1632.000000, 8166.000000, 8151.000000, 8137.000000
3297, 17894912.000000, 2159.000000, 8161.000000, 8157.000000, 8144.000000
3298, 17895072.000000, 2574.500000, 8164.000000, 8149.000000, 8132.000000
3299, 17895232.000000, 2854.000000, 8158.000000, 8151.000000, 8134.000000
3300, 17895392.000000, 3005.500000, 8163.000000, 8156.000000, 8140.000000
3301, 17895552.000000, 3072.000000, 8165.000000, 8173.000000, 8156.000000
3302, 17895712.000000, 3082.500000, 8180.000000, 8160.000000, 8149.000000
3303, 17895872.000000, 3041.000000, 8183.000000, 8158.000000, 8147.000000
3304, 17896032.000000, 2937.000000, 8162.000000, 8159.000000, 8140.000000
3305, 17896192.000000, 2782.000000, 8167.000000, 8163.000000, 8146.000000
3306, 17896352.000000, 2590.000000, 8162.000000, 8174.000000, 8159.000000
3307, 17896512.000000, 2390.000000, 8209.000000, 8257.000000, 8279.000000
3308, 17896672.000000, 2207.500000, 8694.000000, 8023.000000, 8227.000000
3309, 17896832.000000, 2064.000000, 8038.000000, 8087.000000, 8032.000000
3310, 17896992.000000, 1970.500000, 8091.000000, 8149.000000, 8069.000000
3311, 17897152.000000, 1902.000000, 8175.000000, 8213.000000, 8183.000000
3312, 17897312.000000, 1836.000000, 8205.000000, 8232.000000, 8218.000000
3313, 17897472.000000, 1755.000000, 8208.000000, 8232.000000, 8218.000000
3314, 17897632.000000, 1659.000000, 8218.000000, 8241.000000, 8230.000000
3315, 17897792.000000, 1553.000000, 8229.000000, 8245.000000, 8239.000000
3316, 17897952.000000, 1440.500000, 8242.000000, 8269.000000, 8271.000000
3317, 17898112.000000, 1327.000000, 8262.000000, 8275.000000, 8281.000000
3318, 17898272.000000, 1219.000000, 8278.000000, 8294.000000, 8308.000000
3319, 17898432.000000, 1118.000000, 8294.000000, 8298.000000, 8315.000000
3320, 17898592.000000, 1027.500000, 8293.000000, 8285.000000, 8305.000000
3321, 17898752.000000, 951.000000, 8276.000000, 8269.000000, 8280.000000
3322, 17898912.000000, 882.500000, 8227.000000, 8243.000000, 8243.000000
3323, 17899072.000000, 824.000000, 8184.000000, 8202.000000, 8186.000000
3324, 17899232.000000, 777.500000, 8163.000000, 8179.000000, 8147.000000
3325, 17899392.000000, 739.000000, 8168.000000, 8173.000000, 8146.000000
3326, 17899552.000000, 707.500000, 8170.000000, 8185.000000, 8162.000000
3327, 17899712.000000, 684.000000, 8167.000000, 8193.000000, 8174.000000
