1416, 21262536.000000, 1079.500000, 8171.000000, 8168.500000, 8154.500000
1417, 21262696.000000, 1251.000000, 8151.500000, 8167.000000, 8144.500000
1418, 21262856.000000, 1537.375000, 8187.500000, 8158.000000, 8143.000000
1419, 21263016.000000, 1869.750000, 8161.500000, 8167.500000, 8146.500000
1420, 21263176.000000, 2196.625000, 8163.000000, 8166.500000, 8142.500000
1421, 21263336.000000, 2484.125000, 8151.500000, 8183.000000, 8151.000000
1422, 21263496.000000, 2674.125000, 8182.500000, 8175.000000, 8160.000000
1423, 21263656.000000, 2759.000000, 8190.500000, 8173.000000, 8159.500000
1424, 21263816.000000, 2764.750000, 8172.000000, 8179.500000, 8163.500000
1425, 21263976.000000, 2729.750000, 8189.000000, 8186.500000, 8193.500000
1426, 21264136.000000, 2667.750000, 8188.000000, 8189.000000, 8199.500000
1427, 21264296.000000, 2570.500000, 8199.000000, 8254.500000, 8275.000000
1428, 21264456.000000, 2449.500000, 8598.500000, 8154.000000, 8344.000000
1429, 21264616.000000, 2323.625000, 8039.500000, 8174.000000, 8161.500000
1430, 21264776.000000, 2219.000000, 8077.000000, 8151.000000, 8095.500000
1431, 21264936.000000, 2153.500000, 8148.500000, 8194.000000, 8163.000000
1432, 21265096.000000, 2120.125000, 8189.000000, 8202.500000, 8201.500000
1433, 21265256.000000, 2102.625000, 8202.000000, 8216.500000, 8230.000000
1434, 21265416.000000, 2073.625000, 8212.000000, 8210.500000, 8230.500000
1435, 21265576.000000, 2017.125000, 8224.000000, 8215.000000, 8236.500000
1436, 21265736.000000, 1934.250000, 8241.000000, 8224.500000, 8246.000000
1437, 21265896.000000, 1838.625000, 8254.500000, 8237.000000, 8256.000000
1438, 21266056.000000, 1740.375000, 8286.000000, 8247.000000, 8292.500000
1439, 21266216.000000, 1650.125000, 8301.000000, 8261.000000, 8309.000000
1440, 21266376.000000, 1561.625000, 8301.000000, 8242.500000, 8286.500000
1441, 21266536.000000, 1478.000000, 8270.000000, 8240.500000, 8278.500000
1442, 21266696.000000, 1412.875000, 8218.500000, 8223.000000, 8255.500000
1443, 21266856.000000, 1383.875000, 8186.500000, 8213.000000, 8242.500000
1444, 21267016.000000, 1383.125000, 8176.000000, 8197.000000, 8220.000000
1445, 21267176.000000, 1378.875000, 8170.500000, 8196.000000, 8214.500000
1446, 21267336.000000, 1351.875000, 8166.000000, 8192.500000, 8204.000000
1447, 21267496.000000, 1301.000000, 8172.500000, 8198.000000, 8216.000000
1448, 21267656.000000, 1245.375000, 8185.000000, 8188.000000, 8209.000000
1449, 21267816.000000, 1191.625000, 8181.000000, 8188.500000, 8204.000000
1450, 21267976.000000, 1128.375000, 8177.500000, 8191.000000, 8206.500000
1451, 21268136.000000, 1065.125000, 8169.000000, 8193.500000, 8198.500000
1452, 21268296.000000, 1076.750000, 8173.500000, 8180.000000, 8191.500000
1453, 21268456.000000, 1214.125000, 8172.500000, 8182.000000, 8188.000000
1454, 21268616.000000, 1450.375000, 8176.000000, 8179.000000, 8183.500000
1455, 21268776.000000, 1725.625000, 8163.500000, 8182.000000, 8181.000000
1456, 21268936.000000, 2002.875000, 8168.000000, 8185.000000, 8172.000000
1457, 21269096.000000, 2230.500000, 8165.500000, 8183.000000, 8168.000000
1458, 21269256.000000, 2363.750000, 8179.000000, 8179.000000, 8175.500000
1459, 21269416.000000, 2385.875000, 8172.500000, 8190.000000, 8185.500000
1460, 21269576.000000, 2337.875000, 8181.500000, 8179.500000, 8172.000000
1461, 21269736.000000, 2245.125000, 8170.000000, 8184.000000, 8175.000000
1462, 21269896.000000, 2115.375000, 8161.500000, 8191.000000, 8182.000000
1463, 21270056.000000, 1951.875000, 8309.000000, 8270.500000, 8328.500000
1464, 21270216.000000, 1783.875000, 8543.500000, 8061.500000, 8220.000000
1465, 21270376.000000, 1657.125000, 8009.000000, 8125.000000, 8058.500000
1466, 21270536.000000, 1571.875000, 8079.000000, 8166.500000, 8078.500000
1467, 21270696.000000, 1519.000000, 8147.500000, 8211.000000, 8181.000000
1468, 21270856.000000, 1486.875000, 8165.500000, 8213.500000, 8196.000000
1469, 21271016.000000, 1468.250000, 8170.500000, 8223.000000, 8204.000000
1470, 21271176.000000, 1460.375000, 8193.500000, 8230.500000, 8216.500000
1471, 21271336.000000, 1439.500000, 8191.000000, 8224.000000, 8211.500000
1472, 21271496.000000, 1395.875000, 8217.000000, 8246.500000, 8252.000000
1473, 21271656.000000, 1326.250000, 8237.000000, 8264.500000, 8273.500000
1474, 21271816.000000, 1248.125000, 8265.500000, 8290.500000, 8301.500000
1475, 21271976.000000, 1172.250000, 8268.500000, 8292.500000, 8306.500000
1476, 21272136.000000, 1098.250000, 8259.000000, 8297.500000, 8309.500000
1477, 21272296.000000, 1022.625000, 8226.500000, 8288.000000, 8277.500000
1478, 21272456.000000, 946.750000, 8186.500000, 8240.500000, 8216.000000
1479, 21272616.000000, 889.750000, 8149.500000, 8221.000000, 8185.000000
1480, 21272776.000000, 860.375000, 8145.000000, 8229.000000, 8191.000000
1481, 21272936.000000, 846.250000, 8146.500000, 8220.000000, 8180.000000
1482, 21273096.000000, 828.750000, 8161.000000, 8224.000000, 8190.500000
1483, 21273256.000000, 802.125000, 8161.500000, 8214.000000, 8179.000000
1484, 21273416.000000, 781.625000, 8159.500000, 8206.500000, 8174.000000
1485, 21273576.000000, 777.375000, 8161.500000, 8205.500000, 8168.500000
1486, 21273736.000000, 778.625000, 8160.500000, 8205.500000, 8171.500000
1487, 21273896.000000, 817.375000, 8162.500000, 8200.500000, 8172.500000
1488, 21274056.000000, 951.875000, 8158.000000, 8192.000000, 8157.000000
1489, 21274216.000000, 1221.875000, 8159.500000, 8186.500000, 8143.000000
1490, 21274376.000000, 1592.125000, 8169.500000, 8193.000000, 8164.000000
1491, 21274536.000000, 1992.500000, 8151.500000, 8190.000000, 8154.500000
1492, 21274696.000000, 2326.625000, 8167.500000, 8191.000000, 8145.000000
1493, 21274856.000000, 2538.375000, 8176.000000, 8191.500000, 8160.000000
1494, 21275016.000000, 2637.500000, 8173.500000, 8185.500000, 8159.500000
1495, 21275176.000000, 2666.625000, 8162.000000, 8181.500000, 8154.000000
1496, 21275336.000000, 2651.250000, 8161.500000, 8189.000000, 8163.000000
1497, 21275496.000000, 2599.500000, 8170.000000, 8190.500000, 8162.500000
1498, 21275656.000000, 2511.875000, 8167.500000, 8268.000000, 8262.000000
1499, 21275816.000000, 2375.875000, 8670.500000, 8115.500000, 8310.500000
1500, 21275976.000000, 2217.125000, 8057.000000, 8123.500000, 8094.000000
1501, 21276136.000000, 2068.875000, 8047.500000, 8139.000000, 8038.000000
1502, 21276296.000000, 1964.000000, 8117.500000, 8221.000000, 8167.500000
1503, 21276456.000000, 1896.875000, 8161.000000, 8241.000000, 8218.500000
1504, 21276616.000000, 1856.625000, 8155.500000, 8238.500000, 8209.500000
1505, 21276776.000000, 1836.875000, 8181.000000, 8240.500000, 8218.500000
1506, 21276936.000000, 1828.375000, 8212.500000, 8259.500000, 8259.500000
1507, 21277096.000000, 1809.125000, 8202.500000, 8264.000000, 8262.000000
1508, 21277256.000000, 1761.750000, 8227.500000, 8279.500000, 8281.000000
1509, 21277416.000000, 1691.250000, 8264.000000, 8292.500000, 8314.500000
1510, 21277576.000000, 1621.750000, 8272.500000, 8302.000000, 8323.500000
1511, 21277736.000000, 1555.500000, 8263.500000, 8299.500000, 8312.000000
1512, 21277896.000000, 1482.125000, 8235.500000, 8273.000000, 8281.000000
1513, 21278056.000000, 1406.875000, 8194.000000, 8239.000000, 8231.000000
1514, 21278216.000000, 1336.625000, 8143.500000, 8205.500000, 8176.500000
1515, 21278376.000000, 1272.000000, 8135.500000, 8183.000000, 8147.500000
1516, 21278536.000000, 1217.500000, 8120.500000, 8178.000000, 8136.000000
1517, 21278696.000000, 1173.625000, 8126.500000, 8183.500000, 8151.000000
1518, 21278856.000000, 1139.625000, 8138.000000, 8182.000000, 8152.500000
1519, 21279016.000000, 1111.125000, 8146.500000, 8188.000000, 8164.000000
1520, 21279176.000000, 1085.625000, 8147.000000, 8177.000000, 8148.500000
1521, 21279336.000000, 1057.750000, 8155.500000, 8177.000000, 8154.000000
1522, 21279496.000000, 1051.250000, 8148.500000, 8175.000000, 8152.500000
1523, 21279656.000000, 1131.250000, 8149.500000, 8176.000000, 8151.000000
1524, 21279816.000000, 1351.375000, 8151.000000, 8178.500000, 8153.500000
1525, 21279976.000000, 1714.875000, 8159.000000, 8164.500000, 8144.000000
1526, 21280136.000000, 2134.125000, 8145.500000, 8165.000000, 8143.500000
1527, 21280296.000000, 2497.875000, 8155.000000, 8188.500000, 8156.500000
1528, 21280456.000000, 2736.875000, 8137.000000, 8174.000000, 8145.000000
1529, 21280616.000000, 2854.125000, 8160.000000, 8175.000000, 8158.000000
1530, 21280776.000000, 2893.250000, 8144.000000, 8177.500000, 8156.500000
1531, 21280936.000000, 2884.750000, 8151.000000, 8180.500000, 8164.500000
1532, 21281096.000000, 2843.125000, 8157.500000, 8168.500000, 8157.000000
1533, 21281256.000000, 2777.000000, 8163.000000, 8212.000000, 8216.500000
1534, 21281416.000000, 2677.875000, 8549.000000, 8143.500000, 8296.500000
1535, 21281576.000000, 2546.375000, 8263.000000, 8047.000000, 8112.500000
1536, 21281736.000000, 2396.500000, 8029.000000, 8108.000000, 8027.500000
1537, 21281896.000000, 2254.500000, 8106.500000, 8185.000000, 8131.000000
1538, 21282056.000000, 2138.250000, 8177.000000, 8216.000000, 8211.500000
1539, 21282216.000000, 2053.250000, 8174.500000, 8225.500000, 8222.000000
1540, 21282376.000000, 1990.250000, 8172.500000, 8234.000000, 8233.000000
1541, 21282536.000000, 1934.625000, 8195.500000, 8244.000000, 8254.000000
1542, 21282696.000000, 1866.125000, 8216.000000, 8242.500000, 8255.500000
1543, 21282856.000000, 1786.750000, 8233.500000, 8264.000000, 8285.000000
1544, 21283016.000000, 1700.500000, 8258.000000, 8287.000000, 8325.000000
1545, 21283176.000000, 1608.250000, 8283.500000, 8294.500000, 8339.500000
1546, 21283336.000000, 1511.125000, 8284.000000, 8292.500000, 8336.000000
1547, 21283496.000000, 1417.500000, 8272.000000, 8265.500000, 8302.000000
1548, 21283656.000000, 1334.375000, 8234.500000, 8230.500000, 8257.000000
1549, 21283816.000000, 1265.125000, 8178.500000, 8196.000000, 8199.000000
1550, 21283976.000000, 1205.125000, 8150.000000, 8164.000000, 8153.500000
1551, 21284136.000000, 1152.125000, 8162.500000, 8168.000000, 8161.500000
1552, 21284296.000000, 1113.500000, 8163.500000, 8167.000000, 8156.500000
1553, 21284456.000000, 1083.500000, 8156.500000, 8172.000000, 8162.000000
1554, 21284616.000000, 1056.625000, 8165.000000, 8171.000000, 8164.500000
1555, 21284776.000000, 1026.875000, 8186.500000, 8169.500000, 8170.000000
1556, 21284936.000000, 991.375000, 8178.500000, 8156.000000, 8152.500000
1557, 21285096.000000, 971.625000, 8173.500000, 8159.000000, 8154.000000
1558, 21285256.000000, 1025.000000, 8174.000000, 8154.000000, 8145.500000
1559, 21285416.000000, 1200.875000, 8179.000000, 8148.000000, 8143.500000
1560, 21285576.000000, 1510.750000, 8175.500000, 8149.000000, 8139.500000
1561, 21285736.000000, 1898.375000, 8168.500000, 8148.000000, 8135.500000
1562, 21285896.000000, 2264.500000, 8177.000000, 8164.000000, 8155.500000
1563, 21286056.000000, 2509.125000, 8173.500000, 8149.500000, 8133.500000
1564, 21286216.000000, 2630.625000, 8194.500000, 8144.000000, 8141.000000
1565, 21286376.000000, 2662.250000, 8188.500000, 8143.500000, 8136.500000
1566, 21286536.000000, 2644.000000, 8181.500000, 8143.000000, 8147.000000
1567, 21286696.000000, 2594.375000, 8184.000000, 8160.000000, 8160.000000
1568, 21286856.000000, 2520.250000, 8179.500000, 8157.500000, 8162.000000
1569, 21287016.000000, 2410.750000, 8392.500000, 8217.500000, 8301.000000
1570, 21287176.000000, 2274.375000, 8544.500000, 8003.000000, 8177.000000
1571, 21287336.000000, 2120.250000, 8034.000000, 8099.500000, 8046.500000
1572, 21287496.000000, 1975.375000, 8104.000000, 8153.500000, 8090.000000
1573, 21287656.000000, 1854.125000, 8180.500000, 8201.500000, 8197.500000
1574, 21287816.000000, 1767.875000, 8191.500000, 8213.000000, 8216.000000
1575, 21287976.000000, 1714.375000, 8194.000000, 8225.500000, 8234.000000
1576, 21288136.000000, 1678.250000, 8208.000000, 8228.000000, 8242.500000
1577, 21288296.000000, 1639.375000, 8222.500000, 8237.500000, 8251.500000
1578, 21288456.000000, 1592.375000, 8234.500000, 8259.000000, 8274.500000
1579, 21288616.000000, 1539.500000, 8256.000000, 8270.500000, 8304.000000
1580, 21288776.000000, 1490.500000, 8281.500000, 8292.500000, 8336.000000
1581, 21288936.000000, 1442.750000, 8311.000000, 8347.000000, 8391.000000
1582, 21289096.000000, 1403.250000, 8289.500000, 8361.500000, 8394.500000
1583, 21289256.000000, 1368.250000, 8245.000000, 8343.000000, 8364.500000
1584, 21289416.000000, 1333.375000, 8187.000000, 8294.500000, 8301.000000
1585, 21289576.000000, 1305.375000, 8170.500000, 8253.000000, 8246.000000
1586, 21289736.000000, 1288.625000, 8152.000000, 8234.000000, 8217.000000
1587, 21289896.000000, 1282.375000, 8159.000000, 8250.000000, 8240.000000
1588, 21290056.000000, 1279.125000, 8165.000000, 8236.000000, 8240.000000
1589, 21290216.000000, 1282.250000, 8171.000000, 8238.500000, 8250.500000
1590, 21290376.000000, 1280.500000, 8176.500000, 8227.000000, 8237.500000
1591, 21290536.000000, 1263.125000, 8176.000000, 8225.000000, 8234.500000
1592, 21290696.000000, 1236.375000, 8173.000000, 8216.500000, 8223.000000
1593, 21290856.000000, 1248.250000, 8167.500000, 8203.500000, 8210.500000
1594, 21291016.000000, 1346.875000, 8164.000000, 8201.500000, 8206.500000
1595, 21291176.000000, 1559.500000, 8159.000000, 8201.000000, 8201.000000
1596, 21291336.000000, 1845.625000, 8166.500000, 8198.000000, 8188.500000
1597, 21291496.000000, 2155.000000, 8175.000000, 8184.500000, 8181.500000
1598, 21291656.000000, 2418.625000, 8180.500000, 8191.500000, 8199.000000
1599, 21291816.000000, 2592.250000, 8164.000000, 8185.000000, 8190.000000
1600, 21291976.000000, 2674.875000, 8177.500000, 8187.000000, 8197.000000
1601, 21292136.000000, 2692.375000, 8175.500000, 8187.500000, 8190.500000
1602, 21292296.000000, 2671.875000, 8159.000000, 8230.000000, 8246.000000
1603, 21292456.000000, 2622.625000, 8582.500000, 8157.000000, 8335.000000
1604, 21292616.000000, 2551.500000, 8143.000000, 8103.000000, 8132.000000
1605, 21292776.000000, 2454.750000, 8051.000000, 8136.000000, 8070.500000
1606, 21292936.000000, 2339.000000, 8119.500000, 8183.500000, 8148.500000
1607, 21293096.000000, 2219.625000, 8163.000000, 8214.000000, 8211.000000
1608, 21293256.000000, 2108.125000, 8186.000000, 8220.500000, 8228.500000
1609, 21293416.000000, 2018.625000, 8197.000000, 8220.000000, 8228.500000
1610, 21293576.000000, 1956.750000, 8205.500000, 8224.500000, 8242.500000
1611, 21293736.000000, 1917.875000, 8212.000000, 8238.000000, 8257.500000
1612, 21293896.000000, 1892.875000, 8233.500000, 8257.000000, 8284.500000
1613, 21294056.000000, 1866.250000, 8252.000000, 8273.500000, 8306.500000
1614, 21294216.000000, 1812.250000, 8278.000000, 8284.000000, 8324.500000
1615, 21294376.000000, 1721.500000, 8283.500000, 8287.000000, 8335.000000
1616, 21294536.000000, 1595.875000, 8260.000000, 8256.000000, 8289.500000
1617, 21294696.000000, 1446.250000, 8205.000000, 8237.500000, 8249.500000
1618, 21294856.000000, 1298.750000, 8167.500000, 8194.000000, 8194.000000
1619, 21295016.000000, 1187.250000, 8154.500000, 8178.000000, 8170.500000
1620, 21295176.000000, 1106.625000, 8154.000000, 8166.000000, 8149.000000
1621, 21295336.000000, 1045.875000, 8164.000000, 8164.500000, 8154.500000
1622, 21295496.000000, 1003.375000, 8157.500000, 8156.500000, 8140.500000
1623, 21295656.000000, 968.625000, 8167.500000, 8156.500000, 8144.500000
1624, 21295816.000000, 928.875000, 8167.000000, 8158.000000, 8144.000000
1625, 21295976.000000, 887.000000, 8172.000000, 8149.500000, 8131.500000
1626, 21296136.000000, 862.875000, 8169.500000, 8136.000000, 8107.500000
1627, 21296296.000000, 909.000000, 8155.000000, 8130.500000, 8099.500000
1628, 21296456.000000, 1048.875000, 8155.000000, 8137.000000, 8107.000000
1629, 21296616.000000, 1255.750000, 8160.000000, 8137.500000, 8102.500000
1630, 21296776.000000, 1454.750000, 8161.500000, 8134.000000, 8099.000000
1631, 21296936.000000, 1618.125000, 8173.000000, 8125.500000, 8100.500000
1632, 21297096.000000, 1773.875000, 8170.000000, 8107.500000, 8080.000000
1633, 21297256.000000, 1927.875000, 8157.500000, 8104.500000, 8065.000000
1634, 21297416.000000, 2054.500000, 8154.000000, 8106.000000, 8069.000000
1635, 21297576.000000, 2124.875000, 8144.500000, 8118.500000, 8090.000000
1636, 21297736.000000, 2141.250000, 8324.000000, 8205.500000, 8248.500000
1637, 21297896.000000, 2116.625000, 8523.500000, 7972.000000, 8105.000000
1638, 21298056.000000, 2063.625000, 8011.000000, 8071.000000, 7983.500000
1639, 21298216.000000, 1991.250000, 8067.000000, 8157.000000, 8053.000000
1640, 21298376.000000, 1916.250000, 8132.000000, 8201.000000, 8164.500000
1641, 21298536.000000, 1841.875000, 8155.000000, 8214.000000, 8185.500000
1642, 21298696.000000, 1776.500000, 8168.000000, 8216.000000, 8187.500000
1643, 21298856.000000, 1737.750000, 8183.000000, 8225.500000, 8198.000000
1644, 21299016.000000, 1726.875000, 8186.500000, 8233.000000, 8215.000000
1645, 21299176.000000, 1723.750000, 8208.500000, 8247.500000, 8238.500000
1646, 21299336.000000, 1707.875000, 8233.000000, 8276.500000, 8284.000000
1647, 21299496.000000, 1680.500000, 8246.000000, 8296.000000, 8304.000000
1648, 21299656.000000, 1652.500000, 8267.500000, 8300.000000, 8317.000000
1649, 21299816.000000, 1621.875000, 8256.000000, 8276.500000, 8284.000000
1650, 21299976.000000, 1587.125000, 8209.000000, 8251.000000, 8255.500000
1651, 21300136.000000, 1549.000000, 8158.000000, 8215.000000, 8201.500000
1652, 21300296.000000, 1503.125000, 8143.000000, 8182.000000, 8157.500000
1653, 21300456.000000, 1442.125000, 8129.000000, 8175.500000, 8143.000000
1654, 21300616.000000, 1367.375000, 8140.000000, 8167.000000, 8141.500000
1655, 21300776.000000, 1304.125000, 8146.500000, 8178.000000, 8160.000000
1656, 21300936.000000, 1281.375000, 8149.000000, 8181.000000, 8163.000000
1657, 21301096.000000, 1297.250000, 8146.000000, 8189.000000, 8170.500000
1658, 21301256.000000, 1310.250000, 8153.000000, 8174.500000, 8161.500000
1659, 21301416.000000, 1281.375000, 8153.500000, 8176.500000, 8163.000000
1660, 21301576.000000, 1254.625000, 8154.000000, 8170.500000, 8158.500000
1661, 21301736.000000, 1301.750000, 8149.500000, 8175.500000, 8157.500000
1662, 21301896.000000, 1464.000000, 8151.000000, 8159.500000, 8145.500000
1663, 21302056.000000, 1696.000000, 8152.500000, 8187.500000, 8161.500000
1664, 21302216.000000, 1928.125000, 8151.000000, 8177.000000, 8158.000000
1665, 21302376.000000, 2103.625000, 8167.000000, 8171.000000, 8159.500000
1666, 21302536.000000, 2213.250000, 8149.500000, 8169.000000, 8157.000000
1667, 21302696.000000, 2262.125000, 8150.500000, 8167.000000, 8157.500000
1668, 21302856.000000, 2276.875000, 8163.500000, 8168.000000, 8160.000000
1669, 21303016.000000, 2266.000000, 8155.000000, 8238.000000, 8248.500000
1670, 21303176.000000, 2234.875000, 8620.500000, 8100.500000, 8294.500000
1671, 21303336.000000, 2185.000000, 8119.000000, 8038.000000, 8045.500000
1672, 21303496.000000, 2117.125000, 8051.000000, 8106.000000, 8033.000000
1673, 21303656.000000, 2037.000000, 8115.500000, 8197.000000, 8156.500000
1674, 21303816.000000, 1958.500000, 8171.000000, 8215.500000, 8212.000000
1675, 21303976.000000, 1894.625000, 8165.000000, 8211.000000, 8199.500000
1676, 21304136.000000, 1843.250000, 8153.500000, 8203.000000, 8171.000000
1677, 21304296.000000, 1813.750000, 8159.000000, 8214.000000, 8186.000000
1678, 21304456.000000, 1795.250000, 8170.000000, 8234.500000, 8216.000000
1679, 21304616.000000, 1777.375000, 8201.000000, 8245.500000, 8230.500000
1680, 21304776.000000, 1747.250000, 8223.000000, 8265.500000, 8262.500000
1681, 21304936.000000, 1707.750000, 8255.500000, 8285.000000, 8292.500000
1682, 21305096.000000, 1658.375000, 8257.000000, 8281.000000, 8290.000000
1683, 21305256.000000, 1605.875000, 8238.000000, 8244.500000, 8246.500000
1684, 21305416.000000, 1544.750000, 8194.000000, 8202.000000, 8186.500000
1685, 21305576.000000, 1492.000000, 8156.500000, 8164.500000, 8135.000000
1686, 21305736.000000, 1453.000000, 8152.000000, 8146.000000, 8113.500000
1687, 21305896.000000, 1413.000000, 8142.500000, 8144.000000, 8107.500000
1688, 21306056.000000, 1372.625000, 8148.000000, 8146.000000, 8104.000000
1689, 21306216.000000, 1343.625000, 8155.500000, 8152.500000, 8124.500000
1690, 21306376.000000, 1322.375000, 8162.000000, 8158.500000, 8135.000000
1691, 21306536.000000, 1294.125000, 8167.000000, 8168.000000, 8150.500000
1692, 21306696.000000, 1274.750000, 8169.000000, 8143.000000, 8122.000000
1693, 21306856.000000, 1317.375000, 8174.500000, 8144.500000, 8125.000000
1694, 21307016.000000, 1506.500000, 8168.000000, 8145.000000, 8126.500000
1695, 21307176.000000, 1809.125000, 8161.500000, 8147.000000, 8125.000000
1696, 21307336.000000, 2069.000000, 8159.000000, 8138.500000, 8117.500000
1697, 21307496.000000, 2256.500000, 8180.000000, 8157.000000, 8142.000000
1698, 21307656.000000, 2366.000000, 8185.000000, 8157.000000, 8158.000000
1699, 21307816.000000, 2410.875000, 8190.000000, 8163.000000, 8169.500000
1700, 21307976.000000, 2421.750000, 8187.000000, 8157.000000, 8165.500000
1701, 21308136.000000, 2410.625000, 8187.000000, 8161.000000, 8173.500000
1702, 21308296.000000, 2387.625000, 8191.000000, 8164.500000, 8191.000000
1703, 21308456.000000, 2352.750000, 8182.500000, 8237.500000, 8279.500000
1704, 21308616.000000, 2293.125000, 8686.000000, 8093.000000, 8321.500000
1705, 21308776.000000, 2208.500000, 8161.000000, 8049.500000, 8096.500000
1706, 21308936.000000, 2121.375000, 8073.000000, 8098.500000, 8052.500000
1707, 21309096.000000, 2058.500000, 8159.500000, 8179.000000, 8167.500000
1708, 21309256.000000, 2020.750000, 8201.000000, 8195.500000, 8214.500000
1709, 21309416.000000, 2001.875000, 8207.000000, 8213.500000, 8234.500000
1710, 21309576.000000, 1990.500000, 8212.500000, 8219.500000, 8250.000000
1711, 21309736.000000, 1976.000000, 8227.500000, 8229.500000, 8266.500000
1712, 21309896.000000, 1951.500000, 8272.500000, 8225.000000, 8274.500000
1713, 21310056.000000, 1919.250000, 8294.500000, 8250.000000, 8307.500000
1714, 21310216.000000, 1882.000000, 8311.000000, 8284.500000, 8354.000000
1715, 21310376.000000, 1840.375000, 8316.500000, 8295.000000, 8363.000000
1716, 21310536.000000, 1799.125000, 8304.000000, 8275.000000, 8344.500000
1717, 21310696.000000, 1760.000000, 8260.500000, 8257.500000, 8313.000000
1718, 21310856.000000, 1723.500000, 8211.000000, 8226.000000, 8263.000000
1719, 21311016.000000, 1695.750000, 8173.000000, 8196.000000, 8213.500000
1720, 21311176.000000, 1678.125000, 8154.500000, 8168.000000, 8176.000000
1721, 21311336.000000, 1657.375000, 8142.500000, 8160.000000, 8161.000000
1722, 21311496.000000, 1634.750000, 8152.500000, 8148.000000, 8152.000000
1723, 21311656.000000, 1612.625000, 8161.000000, 8156.500000, 8161.000000
1724, 21311816.000000, 1598.375000, 8161.000000, 8162.500000, 8170.500000
1725, 21311976.000000, 1582.625000, 8159.000000, 8164.500000, 8170.500000
1726, 21312136.000000, 1579.375000, 8156.500000, 8157.500000, 8163.000000
1727, 21312296.000000, 1646.000000, 8152.000000, 8157.000000, 8157.500000
1728, 21312456.000000, 1827.250000, 8163.000000, 8160.000000, 8161.500000
1729, 21312616.000000, 2088.750000, 8157.500000, 8167.500000, 8168.500000
1730, 21312776.000000, 2347.875000, 8160.500000, 8159.500000, 8162.500000
1731, 21312936.000000, 2538.000000, 8138.500000, 8170.000000, 8160.000000
1732, 21313096.000000, 2650.125000, 8153.000000, 8192.500000, 8180.000000
1733, 21313256.000000, 2696.250000, 8144.000000, 8174.000000, 8150.000000
1734, 21313416.000000, 2702.750000, 8145.000000, 8177.000000, 8161.000000
1735, 21313576.000000, 2692.625000, 8148.500000, 8159.000000, 8143.000000
1736, 21313736.000000, 2665.875000, 8142.500000, 8157.000000, 8138.500000
1737, 21313896.000000, 2612.750000, 8134.500000, 8163.000000, 8144.000000
1738, 21314056.000000, 2535.750000, 8128.500000, 8198.000000, 8187.000000
1739, 21314216.000000, 2450.750000, 8547.500000, 8107.500000, 8266.500000
1740, 21314376.000000, 2369.250000, 8244.000000, 8007.500000, 8071.000000
1741, 21314536.000000, 2299.375000, 8020.500000, 8083.000000, 7996.000000
1742, 21314696.000000, 2251.375000, 8108.500000, 8171.500000, 8111.500000
1743, 21314856.000000, 2227.250000, 8163.000000, 8201.000000, 8191.000000
1744, 21315016.000000, 2214.375000, 8172.500000, 8218.500000, 8214.000000
1745, 21315176.000000, 2194.125000, 8194.500000, 8226.500000, 8228.000000
1746, 21315336.000000, 2161.875000, 8209.500000, 8239.500000, 8246.000000
1747, 21315496.000000, 2117.125000, 8226.500000, 8256.500000, 8262.500000
1748, 21315656.000000, 2067.500000, 8247.500000, 8263.000000, 8283.000000
1749, 21315816.000000, 2017.500000, 8272.000000, 8306.500000, 8337.000000
1750, 21315976.000000, 1967.500000, 8296.000000, 8322.500000, 8359.000000
1751, 21316136.000000, 1916.875000, 8301.000000, 8309.500000, 8343.000000
1752, 21316296.000000, 1865.625000, 8285.000000, 8285.000000, 8318.000000
1753, 21316456.000000, 1822.000000, 8241.000000, 8255.500000, 8280.000000
1754, 21316616.000000, 1786.375000, 8198.500000, 8221.000000, 8228.500000
1755, 21316776.000000, 1753.250000, 8176.000000, 8184.500000, 8182.000000
1756, 21316936.000000, 1715.875000, 8155.500000, 8172.000000, 8162.000000
1757, 21317096.000000, 1676.625000, 8164.000000, 8169.000000, 8158.500000
1758, 21317256.000000, 1639.250000, 8172.000000, 8174.000000, 8166.000000
1759, 21317416.000000, 1602.000000, 8172.500000, 8172.500000, 8169.000000
1760, 21317576.000000, 1562.000000, 8179.500000, 8163.000000, 8162.500000
1761, 21317736.000000, 1535.125000, 8171.500000, 8161.500000, 8156.000000
1762, 21317896.000000, 1568.750000, 8176.500000, 8154.000000, 8151.000000
1763, 21318056.000000, 1724.000000, 8175.500000, 8152.500000, 8144.500000
1764, 21318216.000000, 1969.625000, 8175.000000, 8154.000000, 8147.000000
1765, 21318376.000000, 2233.875000, 8171.500000, 8160.500000, 8152.000000
1766, 21318536.000000, 2439.875000, 8170.500000, 8145.500000, 8131.500000
1767, 21318696.000000, 2572.625000, 8176.000000, 8159.500000, 8137.000000
1768, 21318856.000000, 2647.250000, 8174.500000, 8154.000000, 8144.500000
1769, 21319016.000000, 2681.625000, 8181.000000, 8152.500000, 8149.500000
1770, 21319176.000000, 2692.875000, 8170.000000, 8158.000000, 8155.000000
1771, 21319336.000000, 2686.500000, 8159.000000, 8145.500000, 8136.500000
1772, 21319496.000000, 2665.250000, 8158.000000, 8156.000000, 8148.000000
1773, 21319656.000000, 2622.875000, 8150.500000, 8236.000000, 8251.000000
1774, 21319816.000000, 2556.125000, 8691.500000, 8077.500000, 8300.500000
1775, 21319976.000000, 2479.250000, 8044.000000, 8069.500000, 8049.000000
1776, 21320136.000000, 2410.500000, 8025.500000, 8089.500000, 7996.000000
1777, 21320296.000000, 2377.250000, 8116.000000, 8171.000000, 8128.500000
1778, 21320456.000000, 2376.375000, 8148.000000, 8201.000000, 8187.000000
1779, 21320616.000000, 2382.000000, 8168.500000, 8200.000000, 8194.000000
1780, 21320776.000000, 2371.875000, 8173.500000, 8205.500000, 8198.500000
1781, 21320936.000000, 2346.125000, 8184.500000, 8212.500000, 8217.500000
1782, 21321096.000000, 2316.375000, 8197.000000, 8229.000000, 8235.500000
1783, 21321256.000000, 2277.500000, 8213.000000, 8252.000000, 8266.000000
1784, 21321416.000000, 2219.625000, 8239.000000, 8269.500000, 8293.000000
1785, 21321576.000000, 2154.000000, 8251.500000, 8286.500000, 8312.000000
1786, 21321736.000000, 2100.125000, 8269.000000, 8274.500000, 8306.500000
1787, 21321896.000000, 2067.500000, 8232.500000, 8242.500000, 8259.500000
1788, 21322056.000000, 2029.500000, 8188.000000, 8220.000000, 8223.500000
1789, 21322216.000000, 1977.250000, 8153.500000, 8184.500000, 8172.000000
1790, 21322376.000000, 1932.375000, 8136.000000, 8168.500000, 8147.500000
1791, 21322536.000000, 1906.375000, 8130.500000, 8164.500000, 8138.000000
1792, 21322696.000000, 1884.500000, 8128.000000, 8168.500000, 8143.000000
1793, 21322856.000000, 1849.375000, 8130.500000, 8168.500000, 8150.500000
1794, 21323016.000000, 1804.750000, 8137.000000, 8180.000000, 8161.000000
1795, 21323176.000000, 1762.000000, 8140.000000, 8176.000000, 8158.500000
1796, 21323336.000000, 1733.750000, 8150.000000, 8166.000000, 8151.000000
1797, 21323496.000000, 1754.000000, 8140.500000, 8157.000000, 8137.000000
1798, 21323656.000000, 1883.000000, 8142.000000, 8160.500000, 8139.500000
1799, 21323816.000000, 2120.375000, 8131.500000, 8170.500000, 8148.500000
1800, 21323976.000000, 2410.000000, 8140.500000, 8158.500000, 8131.500000
1801, 21324136.000000, 2666.875000, 8143.000000, 8167.000000, 8134.000000
1802, 21324296.000000, 2854.625000, 8163.500000, 8167.500000, 8149.000000
1803, 21324456.000000, 2964.250000, 8169.000000, 8168.000000, 8153.000000
1804, 21324616.000000, 3017.250000, 8157.500000, 8172.500000, 8155.000000
1805, 21324776.000000, 3034.875000, 8154.500000, 8170.500000, 8147.000000
1806, 21324936.000000, 3025.875000, 8157.000000, 8181.000000, 8161.000000
1807, 21325096.000000, 2989.875000, 8313.000000, 8250.000000, 8299.500000
1808, 21325256.000000, 2921.625000, 8520.500000, 8063.000000, 8207.000000
1809, 21325416.000000, 2825.125000, 8032.000000, 8128.000000, 8070.000000
1810, 21325576.000000, 2719.750000, 8099.500000, 8175.500000, 8090.000000
1811, 21325736.000000, 2620.500000, 8169.000000, 8215.500000, 8184.500000
1812, 21325896.000000, 2544.125000, 8185.500000, 8219.500000, 8201.500000
1813, 21326056.000000, 2495.625000, 8197.500000, 8227.000000, 8221.000000
1814, 21326216.000000, 2464.375000, 8199.000000, 8223.500000, 8216.500000
1815, 21326376.000000, 2430.625000, 8205.000000, 8238.500000, 8231.500000
1816, 21326536.000000, 2387.625000, 8232.500000, 8238.000000, 8243.000000
1817, 21326696.000000, 2338.500000, 8252.000000, 8260.500000, 8272.500000
1818, 21326856.000000, 2285.125000, 8277.000000, 8269.000000, 8293.500000
1819, 21327016.000000, 2220.250000, 8285.000000, 8270.500000, 8296.500000
1820, 21327176.000000, 2139.625000, 8280.000000, 8256.500000, 8280.000000
1821, 21327336.000000, 2054.375000, 8249.000000, 8241.500000, 8253.500000
1822, 21327496.000000, 1975.500000, 8183.000000, 8200.000000, 8189.500000
1823, 21327656.000000, 1902.625000, 8154.000000, 8173.500000, 8152.500000
1824, 21327816.000000, 1828.500000, 8141.000000, 8162.500000, 8140.000000
1825, 21327976.000000, 1762.375000, 8148.500000, 8158.000000, 8130.500000
1826, 21328136.000000, 1709.750000, 8148.500000, 8162.000000, 8134.500000
1827, 21328296.000000, 1665.375000, 8158.500000, 8175.000000, 8162.000000
1828, 21328456.000000, 1621.375000, 8159.500000, 8169.000000, 8156.000000
1829, 21328616.000000, 1571.750000, 8168.500000, 8161.500000, 8146.500000
1830, 21328776.000000, 1555.250000, 8158.500000, 8154.500000, 8129.500000
1831, 21328936.000000, 1630.625000, 8156.500000, 8158.000000, 8132.500000
1832, 21329096.000000, 1838.000000, 8153.500000, 8160.000000, 8141.500000
1833, 21329256.000000, 2145.125000, 8150.000000, 8149.000000, 8119.000000
1834, 21329416.000000, 2473.875000, 8146.500000, 8160.500000, 8120.500000
1835, 21329576.000000, 2745.000000, 8158.000000, 8156.000000, 8144.500000
1836, 21329736.000000, 2930.250000, 8164.000000, 8160.000000, 8148.500000
1837, 21329896.000000, 3032.750000, 8165.500000, 8159.500000, 8145.500000
1838, 21330056.000000, 3080.125000, 8161.500000, 8159.000000, 8144.000000
1839, 21330216.000000, 3091.000000, 8161.000000, 8157.500000, 8146.500000
1840, 21330376.000000, 3081.000000, 8180.500000, 8245.000000, 8260.500000
1841, 21330536.000000, 3047.500000, 8663.500000, 8070.000000, 8272.500000
1842, 21330696.000000, 2978.000000, 8040.500000, 8065.000000, 8029.500000
1843, 21330856.000000, 2871.500000, 8052.500000, 8127.000000, 8043.500000
1844, 21331016.000000, 2767.500000, 8132.500000, 8200.500000, 8171.500000
1845, 21331176.000000, 2687.750000, 8157.000000, 8222.500000, 8213.500000
1846, 21331336.000000, 2637.000000, 8170.000000, 8213.000000, 8205.500000
1847, 21331496.000000, 2600.875000, 8172.500000, 8228.000000, 8218.500000
1848, 21331656.000000, 2574.250000, 8178.000000, 8241.500000, 8238.500000
1849, 21331816.000000, 2559.250000, 8193.500000, 8260.000000, 8264.000000
1850, 21331976.000000, 2537.000000, 8205.500000, 8281.000000, 8287.000000
1851, 21332136.000000, 2484.750000, 8236.000000, 8291.000000, 8306.500000
1852, 21332296.000000, 2414.250000, 8265.000000, 8306.500000, 8337.000000
1853, 21332456.000000, 2339.875000, 8246.500000, 8291.000000, 8312.500000
1854, 21332616.000000, 2268.125000, 8223.500000, 8265.500000, 8283.500000
1855, 21332776.000000, 2186.125000, 8167.000000, 8230.500000, 8223.500000
1856, 21332936.000000, 2097.625000, 8139.500000, 8196.500000, 8180.000000
1857, 21333096.000000, 2014.625000, 8133.500000, 8160.000000, 8140.000000
1858, 21333256.000000, 1946.875000, 8131.500000, 8166.500000, 8143.500000
1859, 21333416.000000, 1887.625000, 8133.000000, 8175.000000, 8156.000000
1860, 21333576.000000, 1829.250000, 8142.000000, 8176.000000, 8160.000000
1861, 21333736.000000, 1775.250000, 8147.500000, 8182.500000, 8169.500000
1862, 21333896.000000, 1721.375000, 8149.000000, 8176.500000, 8161.000000
1863, 21334056.000000, 1678.750000, 8147.500000, 8167.500000, 8151.000000
1864, 21334216.000000, 1687.625000, 8147.000000, 8162.500000, 8145.500000
1865, 21334376.000000, 1815.500000, 8147.000000, 8166.000000, 8150.000000
1866, 21334536.000000, 2068.125000, 8139.500000, 8167.000000, 8147.500000
1867, 21334696.000000, 2406.500000, 8146.000000, 8158.500000, 8141.000000
1868, 21334856.000000, 2737.625000, 8157.500000, 8178.000000, 8149.500000
1869, 21335016.000000, 3001.875000, 8154.000000, 8163.000000, 8137.000000
1870, 21335176.000000, 3173.875000, 8168.000000, 8174.000000, 8159.500000
1871, 21335336.000000, 3265.375000, 8177.500000, 8168.000000, 8152.000000
1872, 21335496.000000, 3293.750000, 8174.500000, 8182.000000, 8166.500000
1873, 21335656.000000, 3272.000000, 8168.000000, 8172.500000, 8155.500000
1874, 21335816.000000, 3220.250000, 8150.500000, 8211.500000, 8204.500000
1875, 21335976.000000, 3134.000000, 8523.000000, 8170.500000, 8313.500000
1876, 21336136.000000, 3013.875000, 8283.500000, 8015.000000, 8071.000000
1877, 21336296.000000, 2865.250000, 8038.500000, 8089.000000, 7997.000000
1878, 21336456.000000, 2719.500000, 8115.000000, 8181.000000, 8126.000000
1879, 21336616.000000, 2602.000000, 8164.000000, 8215.000000, 8199.500000
1880, 21336776.000000, 2521.000000, 8179.000000, 8217.000000, 8210.000000
1881, 21336936.000000, 2466.500000, 8184.000000, 8222.000000, 8220.500000
1882, 21337096.000000, 2411.875000, 8195.500000, 8225.500000, 8221.000000
1883, 21337256.000000, 2343.875000, 8207.000000, 8238.500000, 8246.500000
1884, 21337416.000000, 2266.875000, 8220.000000, 8256.500000, 8266.500000
1885, 21337576.000000, 2184.375000, 8238.500000, 8281.500000, 8297.500000
1886, 21337736.000000, 2094.375000, 8266.500000, 8281.500000, 8309.000000
1887, 21337896.000000, 1996.375000, 8275.500000, 8279.500000, 8308.500000
1888, 21338056.000000, 1894.375000, 8264.000000, 8266.000000, 8291.000000
1889, 21338216.000000, 1807.625000, 8219.500000, 8235.000000, 8239.500000
1890, 21338376.000000, 1738.000000, 8179.000000, 8179.000000, 8170.500000
1891, 21338536.000000, 1678.000000, 8161.500000, 8152.000000, 8135.000000
1892, 21338696.000000, 1619.250000, 8157.500000, 8154.500000, 8134.000000
1893, 21338856.000000, 1564.875000, 8159.000000, 8158.500000, 8143.500000
1894, 21339016.000000, 1521.125000, 8156.500000, 8161.000000, 8141.000000
1895, 21339176.000000, 1483.625000, 8162.000000, 8161.000000, 8145.000000
1896, 21339336.000000, 1441.625000, 8160.000000, 8164.500000, 8150.500000
1897, 21339496.000000, 1397.000000, 8170.000000, 8165.500000, 8154.000000
1898, 21339656.000000, 1387.125000, 8177.500000, 8144.500000, 8137.500000
1899, 21339816.000000, 1499.750000, 8190.500000, 8139.500000, 8134.000000
1900, 21339976.000000, 1770.125000, 8193.000000, 8139.000000, 8131.000000
1901, 21340136.000000, 2158.750000, 8189.500000, 8143.000000, 8131.000000
1902, 21340296.000000, 2560.375000, 8171.500000, 8141.000000, 8131.000000
1903, 21340456.000000, 2893.250000, 8165.000000, 8166.500000, 8141.500000
1904, 21340616.000000, 3123.250000, 8160.000000, 8168.500000, 8141.500000
1905, 21340776.000000, 3253.500000, 8165.000000, 8164.500000, 8144.500000
1906, 21340936.000000, 3310.250000, 8159.500000, 8167.500000, 8151.500000
1907, 21341096.000000, 3319.750000, 8150.500000, 8170.500000, 8154.000000
1908, 21341256.000000, 3300.125000, 8155.000000, 8179.000000, 8163.000000
1909, 21341416.000000, 3251.125000, 8142.500000, 8198.000000, 8187.500000
1910, 21341576.000000, 3160.000000, 8445.500000, 8189.500000, 8299.500000
1911, 21341736.000000, 3025.500000, 8375.000000, 7990.000000, 8091.000000
1912, 21341896.000000, 2874.000000, 8026.500000, 8092.500000, 8008.500000
1913, 21342056.000000, 2747.500000, 8089.500000, 8178.500000, 8114.500000
1914, 21342216.000000, 2653.250000, 8153.500000, 8211.500000, 8197.500000
1915, 21342376.000000, 2584.375000, 8166.000000, 8218.000000, 8210.000000
1916, 21342536.000000, 2525.000000, 8170.000000, 8224.500000, 8225.000000
1917, 21342696.000000, 2467.250000, 8181.000000, 8229.500000, 8241.000000
1918, 21342856.000000, 2400.000000, 8191.500000, 8242.000000, 8258.000000
1919, 21343016.000000, 2311.000000, 8215.000000, 8269.000000, 8300.500000
1920, 21343176.000000, 2206.625000, 8231.000000, 8292.500000, 8333.500000
1921, 21343336.000000, 2102.000000, 8250.500000, 8302.000000, 8353.000000
1922, 21343496.000000, 2006.250000, 8251.500000, 8309.000000, 8359.000000
1923, 21343656.000000, 1915.125000, 8241.500000, 8287.000000, 8326.000000
1924, 21343816.000000, 1826.750000, 8214.000000, 8247.000000, 8280.500000
1925, 21343976.000000, 1744.000000, 8177.500000, 8209.000000, 8225.000000
1926, 21344136.000000, 1664.125000, 8152.500000, 8174.500000, 8180.000000
1927, 21344296.000000, 1588.250000, 8156.500000, 8182.500000, 8183.000000
1928, 21344456.000000, 1515.500000, 8162.000000, 8204.000000, 8199.500000
1929, 21344616.000000, 1450.625000, 8165.000000, 8212.000000, 8203.500000
1930, 21344776.000000, 1396.375000, 8170.500000, 8207.500000, 8203.500000
1931, 21344936.000000, 1342.250000, 8184.000000, 8201.500000, 8201.500000
1932, 21345096.000000, 1287.625000, 8184.000000, 8178.000000, 8175.000000
1933, 21345256.000000, 1261.250000, 8180.000000, 8167.500000, 8162.500000
1934, 21345416.000000, 1340.625000, 8173.500000, 8161.000000, 8156.000000
1935, 21345576.000000, 1578.750000, 8176.000000, 8171.500000, 8164.000000
1936, 21345736.000000, 1955.250000, 8174.000000, 8148.000000, 8142.000000
1937, 21345896.000000, 2377.125000, 8180.000000, 8148.500000, 8140.000000
1938, 21346056.000000, 2750.875000, 8183.000000, 8152.500000, 8148.000000
1939, 21346216.000000, 3009.500000, 8165.000000, 8151.500000, 8134.000000
1940, 21346376.000000, 3149.500000, 8168.500000, 8162.000000, 8144.000000
1941, 21346536.000000, 3193.125000, 8195.000000, 8145.500000, 8143.500000
1942, 21346696.000000, 3177.875000, 8184.000000, 8149.500000, 8145.500000
1943, 21346856.000000, 3120.625000, 8172.500000, 8155.500000, 8151.000000
1944, 21347016.000000, 3028.125000, 8172.500000, 8157.500000, 8155.000000
1945, 21347176.000000, 2896.500000, 8175.000000, 8158.500000, 8159.500000
1946, 21347336.000000, 2734.375000, 8306.000000, 8243.000000, 8303.000000
1947, 21347496.000000, 2561.500000, 8664.000000, 7981.000000, 8190.000000
1948, 21347656.000000, 2407.625000, 8024.500000, 8073.500000, 8016.500000
1949, 21347816.000000, 2298.125000, 8094.500000, 8153.500000, 8090.000000
1950, 21347976.000000, 2236.875000, 8167.500000, 8227.500000, 8219.500000
1951, 21348136.000000, 2198.250000, 8188.000000, 8239.500000, 8241.000000
1952, 21348296.000000, 2157.500000, 8196.000000, 8239.500000, 8243.000000
1953, 21348456.000000, 2101.375000, 8201.000000, 8254.000000, 8270.000000
1954, 21348616.000000, 2028.750000, 8217.500000, 8263.500000, 8278.500000
1955, 21348776.000000, 1938.250000, 8228.500000, 8279.000000, 8293.500000
1956, 21348936.000000, 1842.125000, 8252.500000, 8297.000000, 8322.000000
1957, 21349096.000000, 1747.500000, 8264.000000, 8313.000000, 8346.000000
1958, 21349256.000000, 1658.875000, 8289.000000, 8323.500000, 8363.000000
1959, 21349416.000000, 1578.000000, 8279.000000, 8315.000000, 8351.000000
1960, 21349576.000000, 1501.625000, 8265.000000, 8268.000000, 8296.500000
1961, 21349736.000000, 1435.375000, 8225.500000, 8236.000000, 8257.000000
1962, 21349896.000000, 1381.750000, 8184.500000, 8198.500000, 8199.500000
1963, 21350056.000000, 1340.250000, 8160.500000, 8191.500000, 8181.000000
1964, 21350216.000000, 1310.750000, 8164.000000, 8187.000000, 8176.500000
1965, 21350376.000000, 1288.000000, 8160.000000, 8181.000000, 8172.000000
1966, 21350536.000000, 1269.125000, 8157.000000, 8181.000000, 8171.000000
1967, 21350696.000000, 1249.750000, 8159.000000, 8182.500000, 8167.500000
1968, 21350856.000000, 1222.500000, 8165.000000, 8177.000000, 8166.000000
1969, 21351016.000000, 1208.875000, 8162.500000, 8167.500000, 8158.000000
1970, 21351176.000000, 1267.000000, 8159.500000, 8163.500000, 8149.000000
1971, 21351336.000000, 1485.875000, 8154.500000, 8168.000000, 8149.500000
1972, 21351496.000000, 1863.875000, 8161.000000, 8168.000000, 8147.000000
1973, 21351656.000000, 2327.625000, 8160.500000, 8170.500000, 8155.500000
1974, 21351816.000000, 2740.125000, 8160.500000, 8166.500000, 8149.000000
1975, 21351976.000000, 3024.125000, 8145.500000, 8168.000000, 8146.500000
1976, 21352136.000000, 3168.500000, 8138.500000, 8174.500000, 8142.000000
1977, 21352296.000000, 3208.875000, 8146.000000, 8191.000000, 8152.000000
1978, 21352456.000000, 3193.250000, 8153.000000, 8179.000000, 8159.500000
1979, 21352616.000000, 3150.875000, 8156.000000, 8174.500000, 8160.000000
1980, 21352776.000000, 3085.750000, 8161.500000, 8166.000000, 8152.000000
1981, 21352936.000000, 2988.250000, 8164.000000, 8178.500000, 8165.500000
1982, 21353096.000000, 2849.125000, 8163.500000, 8172.000000, 8159.500000
1983, 21353256.000000, 2690.250000, 8174.500000, 8259.500000, 8266.500000
1984, 21353416.000000, 2543.625000, 8714.000000, 8070.000000, 8293.000000
1985, 21353576.000000, 2432.250000, 8033.500000, 8091.500000, 8061.000000
1986, 21353736.000000, 2349.500000, 8044.000000, 8137.500000, 8046.000000
1987, 21353896.000000, 2280.500000, 8129.000000, 8209.000000, 8173.500000
1988, 21354056.000000, 2212.500000, 8169.500000, 8222.500000, 8211.000000
1989, 21354216.000000, 2144.125000, 8180.000000, 8232.000000, 8225.500000
1990, 21354376.000000, 2065.625000, 8188.000000, 8238.500000, 8239.000000
1991, 21354536.000000, 1969.125000, 8200.000000, 8235.500000, 8238.000000
1992, 21354696.000000, 1858.500000, 8225.000000, 8249.500000, 8257.500000
1993, 21354856.000000, 1752.375000, 8240.500000, 8264.500000, 8280.000000
1994, 21355016.000000, 1653.125000, 8259.500000, 8285.500000, 8308.500000
1995, 21355176.000000, 1555.000000, 8281.500000, 8303.500000, 8337.000000
1996, 21355336.000000, 1459.375000, 8267.000000, 8289.500000, 8314.500000
1997, 21355496.000000, 1370.750000, 8247.000000, 8241.000000, 8250.500000
1998, 21355656.000000, 1293.750000, 8203.500000, 8226.500000, 8217.500000
1999, 21355816.000000, 1229.750000, 8159.500000, 8186.500000, 8160.000000
2000, 21355976.000000, 1165.875000, 8139.000000, 8162.500000, 8129.500000
2001, 21356136.000000, 1104.625000, 8141.000000, 8150.500000, 8114.000000
2002, 21356296.000000, 1049.625000, 8141.500000, 8160.000000, 8127.500000
2003, 21356456.000000, 1008.250000, 8145.500000, 8159.000000, 8126.500000
2004, 21356616.000000, 977.500000, 8149.500000, 8165.000000, 8140.000000
2005, 21356776.000000, 946.250000, 8155.000000, 8151.000000, 8125.500000
2006, 21356936.000000, 907.375000, 8153.000000, 8142.500000, 8114.500000
2007, 21357096.000000, 900.375000, 8153.000000, 8147.000000, 8126.000000
2008, 21357256.000000, 1004.625000, 8149.000000, 8150.000000, 8121.000000
2009, 21357416.000000, 1290.250000, 8158.000000, 8149.500000, 8123.000000
2010, 21357576.000000, 1711.250000, 8161.000000, 8136.500000, 8113.000000
2011, 21357736.000000, 2173.500000, 8155.500000, 8138.000000, 8114.000000
2012, 21357896.000000, 2564.500000, 8146.500000, 8146.500000, 8113.500000
2013, 21358056.000000, 2828.625000, 8156.500000, 8158.000000, 8120.500000
2014, 21358216.000000, 2954.750000, 8176.000000, 8148.000000, 8131.000000
2015, 21358376.000000, 2982.375000, 8173.500000, 8152.000000, 8136.000000
2016, 21358536.000000, 2957.750000, 8165.000000, 8157.500000, 8136.000000
2017, 21358696.000000, 2899.250000, 8158.000000, 8164.000000, 8139.000000
2018, 21358856.000000, 2805.625000, 8169.500000, 8165.500000, 8153.500000
2019, 21359016.000000, 2665.875000, 8244.000000, 8245.500000, 8271.000000
2020, 21359176.000000, 2507.125000, 8594.000000, 8062.000000, 8232.000000
2021, 21359336.000000, 2356.625000, 8011.000000, 8093.500000, 8041.500000
2022, 21359496.000000, 2238.750000, 8068.000000, 8141.500000, 8061.000000
2023, 21359656.000000, 2171.125000, 8157.500000, 8186.000000, 8168.500000
2024, 21359816.000000, 2136.875000, 8181.500000, 8200.500000, 8198.500000
2025, 21359976.000000, 2115.375000, 8190.500000, 8202.000000, 8196.000000
2026, 21360136.000000, 2087.000000, 8200.500000, 8210.000000, 8214.500000
2027, 21360296.000000, 2041.500000, 8220.000000, 8208.000000, 8218.000000
2028, 21360456.000000, 1981.375000, 8222.000000, 8230.000000, 8244.000000
2029, 21360616.000000, 1904.375000, 8235.000000, 8251.000000, 8266.500000
2030, 21360776.000000, 1815.625000, 8261.000000, 8266.500000, 8286.500000
2031, 21360936.000000, 1729.750000, 8268.500000, 8272.500000, 8299.500000
2032, 21361096.000000, 1648.125000, 8269.000000, 8260.000000, 8285.500000
2033, 21361256.000000, 1573.250000, 8245.500000, 8234.000000, 8251.000000
2034, 21361416.000000, 1499.625000, 8204.000000, 8205.500000, 8208.500000
2035, 21361576.000000, 1433.375000, 8163.500000, 8178.500000, 8165.500000
2036, 21361736.000000, 1378.625000, 8135.500000, 8171.000000, 8151.500000
2037, 21361896.000000, 1334.000000, 8128.000000, 8171.000000, 8144.000000
2038, 21362056.000000, 1294.125000, 8133.000000, 8175.000000, 8150.000000
2039, 21362216.000000, 1257.625000, 8149.500000, 8179.500000, 8157.500000
2040, 21362376.000000, 1222.375000, 8150.500000, 8165.000000, 8151.000000
2041, 21362536.000000, 1191.500000, 8146.000000, 8169.000000, 8157.500000
2042, 21362696.000000, 1161.625000, 8152.000000, 8167.500000, 8155.000000
2043, 21362856.000000, 1141.750000, 8157.500000, 8168.000000, 8150.000000
2044, 21363016.000000, 1197.375000, 8157.500000, 8156.500000, 8142.500000
2045, 21363176.000000, 1403.250000, 8159.500000, 8162.500000, 8149.000000
2046, 21363336.000000, 1773.500000, 8161.500000, 8174.000000, 8168.000000
2047, 21363496.000000, 2210.125000, 8153.000000, 8169.500000, 8155.500000
2048, 21363656.000000, 2599.625000, 8170.000000, 8177.000000, 8161.500000
2049, 21363816.000000, 2859.375000, 8176.500000, 8181.000000, 8181.500000
2050, 21363976.000000, 2999.250000, 8164.000000, 8178.500000, 8178.500000
2051, 21364136.000000, 3037.500000, 8166.500000, 8174.000000, 8169.500000
2052, 21364296.000000, 3011.000000, 8175.000000, 8175.500000, 8175.000000
2053, 21364456.000000, 2939.125000, 8171.500000, 8176.500000, 8171.500000
2054, 21364616.000000, 2828.375000, 8241.500000, 8268.500000, 8304.500000
2055, 21364776.000000, 2683.000000, 8595.000000, 8068.500000, 8254.000000
2056, 21364936.000000, 2510.250000, 8036.500000, 8096.000000, 8055.500000
2057, 21365096.000000, 2342.000000, 8079.500000, 8145.000000, 8067.500000
2058, 21365256.000000, 2199.375000, 8161.500000, 8198.500000, 8178.500000
2059, 21365416.000000, 2101.625000, 8171.500000, 8208.500000, 8204.000000
2060, 21365576.000000, 2043.875000, 8185.000000, 8213.500000, 8212.000000
2061, 21365736.000000, 2004.625000, 8192.000000, 8209.500000, 8206.500000
2062, 21365896.000000, 1964.750000, 8204.000000, 8221.500000, 8222.500000
2063, 21366056.000000, 1914.000000, 8213.500000, 8230.000000, 8237.000000
2064, 21366216.000000, 1845.000000, 8232.000000, 8243.500000, 8260.000000
2065, 21366376.000000, 1756.625000, 8258.000000, 8264.500000, 8286.500000
2066, 21366536.000000, 1656.000000, 8274.000000, 8274.000000, 8302.000000
2067, 21366696.000000, 1557.625000, 8266.500000, 8263.000000, 8289.500000
2068, 21366856.000000, 1463.375000, 8233.500000, 8235.500000, 8252.000000
2069, 21367016.000000, 1370.250000, 8188.000000, 8191.500000, 8192.000000
2070, 21367176.000000, 1285.125000, 8160.000000, 8164.000000, 8152.000000
2071, 21367336.000000, 1214.375000, 8147.500000, 8152.500000, 8133.000000
2072, 21367496.000000, 1160.500000, 8144.000000, 8147.500000, 8127.000000
2073, 21367656.000000, 1110.500000, 8150.000000, 8157.000000, 8140.500000
2074, 21367816.000000, 1060.625000, 8162.500000, 8170.000000, 8155.500000
2075, 21367976.000000, 1017.625000, 8165.000000, 8168.500000, 8161.500000
2076, 21368136.000000, 976.750000, 8157.000000, 8158.500000, 8139.500000
2077, 21368296.000000, 927.875000, 8165.000000, 8161.000000, 8148.500000
2078, 21368456.000000, 901.125000, 8168.500000, 8164.000000, 8147.500000
2079, 21368616.000000, 988.750000, 8162.500000, 8161.500000, 8146.000000
2080, 21368776.000000, 1259.750000, 8151.000000, 8156.000000, 8134.000000
2081, 21368936.000000, 1703.125000, 8155.500000, 8166.500000, 8155.500000
2082, 21369096.000000, 2205.375000, 8149.500000, 8162.000000, 8136.000000
2083, 21369256.000000, 2637.625000, 8152.500000, 8154.500000, 8115.500000
2084, 21369416.000000, 2930.625000, 8176.500000, 8164.500000, 8144.500000
2085, 21369576.000000, 3081.000000, 8168.000000, 8162.000000, 8151.500000
2086, 21369736.000000, 3132.375000, 8165.000000, 8154.000000, 8141.500000
2087, 21369896.000000, 3120.250000, 8170.500000, 8154.000000, 8143.000000
2088, 21370056.000000, 3070.125000, 8180.000000, 8153.000000, 8140.500000
2089, 21370216.000000, 2978.125000, 8191.000000, 8252.500000, 8267.000000
2090, 21370376.000000, 2851.500000, 8678.000000, 8043.500000, 8253.500000
2091, 21370536.000000, 2696.000000, 8039.500000, 8053.000000, 8016.500000
2092, 21370696.000000, 2541.875000, 8067.000000, 8115.000000, 8025.000000
2093, 21370856.000000, 2409.625000, 8143.500000, 8201.500000, 8178.500000
2094, 21371016.000000, 2314.625000, 8163.000000, 8209.500000, 8196.500000
2095, 21371176.000000, 2263.875000, 8172.500000, 8219.000000, 8214.500000
2096, 21371336.000000, 2244.250000, 8176.500000, 8215.500000, 8207.500000
2097, 21371496.000000, 2223.125000, 8184.500000, 8232.000000, 8225.000000
2098, 21371656.000000, 2190.625000, 8196.500000, 8244.000000, 8249.000000
2099, 21371816.000000, 2138.250000, 8225.500000, 8274.000000, 8293.000000
2100, 21371976.000000, 2075.500000, 8240.500000, 8290.000000, 8310.500000
2101, 21372136.000000, 2002.000000, 8251.000000, 8298.000000, 8324.500000
2102, 21372296.000000, 1914.500000, 8262.000000, 8286.000000, 8315.500000
2103, 21372456.000000, 1821.625000, 8234.000000, 8260.500000, 8277.500000
2104, 21372616.000000, 1727.375000, 8192.500000, 8209.000000, 8213.500000
2105, 21372776.000000, 1637.125000, 8156.500000, 8174.500000, 8167.000000
2106, 21372936.000000, 1549.500000, 8147.000000, 8158.000000, 8140.500000
2107, 21373096.000000, 1464.000000, 8141.000000, 8156.000000, 8135.000000
2108, 21373256.000000, 1389.750000, 8148.000000, 8163.000000, 8149.000000
2109, 21373416.000000, 1327.000000, 8146.000000, 8163.500000, 8147.000000
2110, 21373576.000000, 1275.500000, 8156.500000, 8164.000000, 8150.000000
2111, 21373736.000000, 1224.875000, 8159.500000, 8162.000000, 8146.000000
2112, 21373896.000000, 1172.750000, 8153.000000, 8162.000000, 8144.000000
2113, 21374056.000000, 1145.750000, 8152.000000, 8158.500000, 8143.000000
2114, 21374216.000000, 1197.500000, 8150.000000, 8161.000000, 8142.500000
2115, 21374376.000000, 1433.125000, 8155.500000, 8149.000000, 8134.000000
2116, 21374536.000000, 1844.000000, 8160.500000, 8158.500000, 8143.500000
2117, 21374696.000000, 2353.125000, 8158.500000, 8162.500000, 8143.500000
2118, 21374856.000000, 2818.750000, 8163.000000, 8172.000000, 8148.000000
2119, 21375016.000000, 3153.000000, 8164.000000, 8170.000000, 8149.500000
2120, 21375176.000000, 3342.500000, 8181.000000, 8167.500000, 8153.500000
2121, 21375336.000000, 3415.125000, 8173.500000, 8167.500000, 8156.500000
2122, 21375496.000000, 3411.875000, 8166.500000, 8166.000000, 8150.500000
2123, 21375656.000000, 3357.125000, 8168.500000, 8174.500000, 8163.000000
2124, 21375816.000000, 3271.500000, 8155.500000, 8186.500000, 8180.500000
2125, 21375976.000000, 3143.875000, 8437.000000, 8186.000000, 8297.500000
2126, 21376136.000000, 2964.000000, 8405.500000, 7984.500000, 8099.500000
2127, 21376296.000000, 2761.375000, 8032.000000, 8093.500000, 8016.500000
2128, 21376456.000000, 2574.000000, 8106.000000, 8167.000000, 8105.000000
2129, 21376616.000000, 2433.625000, 8170.500000, 8210.500000, 8200.500000
2130, 21376776.000000, 2334.250000, 8178.500000, 8215.500000, 8207.000000
2131, 21376936.000000, 2270.875000, 8186.500000, 8224.500000, 8224.000000
2132, 21377096.000000, 2222.625000, 8192.500000, 8226.500000, 8231.000000
2133, 21377256.000000, 2170.000000, 8205.500000, 8239.500000, 8246.500000
2134, 21377416.000000, 2092.375000, 8223.500000, 8265.000000, 8278.000000
2135, 21377576.000000, 1989.875000, 8243.500000, 8279.000000, 8301.500000
2136, 21377736.000000, 1873.875000, 8267.500000, 8293.500000, 8328.000000
2137, 21377896.000000, 1754.250000, 8275.500000, 8295.000000, 8328.500000
2138, 21378056.000000, 1640.625000, 8270.500000, 8276.500000, 8305.000000
2139, 21378216.000000, 1537.625000, 8229.500000, 8232.000000, 8249.000000
2140, 21378376.000000, 1449.125000, 8185.500000, 8200.000000, 8205.000000
2141, 21378536.000000, 1377.375000, 8162.500000, 8170.500000, 8162.000000
2142, 21378696.000000, 1324.875000, 8153.000000, 8151.500000, 8130.500000
2143, 21378856.000000, 1284.625000, 8151.500000, 8150.500000, 8125.500000
2144, 21379016.000000, 1247.250000, 8161.500000, 8162.500000, 8151.500000
2145, 21379176.000000, 1211.250000, 8151.500000, 8152.000000, 8124.500000
2146, 21379336.000000, 1180.375000, 8160.000000, 8167.500000, 8149.500000
2147, 21379496.000000, 1145.625000, 8160.500000, 8168.500000, 8143.500000
2148, 21379656.000000, 1110.250000, 8163.500000, 8169.500000, 8160.000000
2149, 21379816.000000, 1127.875000, 8161.500000, 8146.500000, 8134.500000
2150, 21379976.000000, 1300.500000, 8183.500000, 8140.000000, 8126.500000
2151, 21380136.000000, 1669.625000, 8204.500000, 8133.500000, 8127.000000
2152, 21380296.000000, 2186.125000, 8209.000000, 8141.500000, 8144.500000
2153, 21380456.000000, 2705.875000, 8193.500000, 8133.000000, 8133.000000
2154, 21380616.000000, 3124.375000, 8185.500000, 8152.500000, 8140.500000
2155, 21380776.000000, 3378.125000, 8188.000000, 8157.500000, 8137.500000
2156, 21380936.000000, 3499.750000, 8188.500000, 8155.500000, 8148.500000
2157, 21381096.000000, 3532.875000, 8176.500000, 8159.000000, 8148.000000
2158, 21381256.000000, 3520.500000, 8161.500000, 8166.500000, 8152.500000
2159, 21381416.000000, 3475.750000, 8163.500000, 8173.000000, 8165.500000
2160, 21381576.000000, 3387.875000, 8155.000000, 8172.000000, 8154.500000
2161, 21381736.000000, 3244.125000, 8274.500000, 8260.500000, 8305.500000
2162, 21381896.000000, 3061.000000, 8635.000000, 7998.500000, 8204.500000
2163, 21382056.000000, 2860.000000, 8008.000000, 8096.500000, 8033.500000
2164, 21382216.000000, 2681.625000, 8075.000000, 8150.500000, 8074.500000
2165, 21382376.000000, 2554.000000, 8150.500000, 8216.000000, 8195.000000
2166, 21382536.000000, 2479.375000, 8177.000000, 8220.000000, 8222.000000
2167, 21382696.000000, 2427.250000, 8181.500000, 8230.500000, 8230.500000
2168, 21382856.000000, 2367.625000, 8187.000000, 8239.500000, 8241.500000
2169, 21383016.000000, 2292.375000, 8185.000000, 8241.500000, 8244.500000
2170, 21383176.000000, 2199.750000, 8203.500000, 8262.500000, 8275.000000
2171, 21383336.000000, 2088.625000, 8228.000000, 8288.000000, 8311.000000
2172, 21383496.000000, 1973.250000, 8254.500000, 8311.000000, 8348.000000
2173, 21383656.000000, 1862.125000, 8266.500000, 8298.500000, 8336.000000
2174, 21383816.000000, 1757.000000, 8260.500000, 8289.500000, 8324.500000
2175, 21383976.000000, 1660.250000, 8213.000000, 8266.500000, 8283.500000
2176, 21384136.000000, 1570.875000, 8164.000000, 8234.500000, 8235.000000
2177, 21384296.000000, 1489.000000, 8152.000000, 8186.000000, 8176.500000
2178, 21384456.000000, 1411.250000, 8136.000000, 8168.500000, 8152.500000
2179, 21384616.000000, 1340.125000, 8141.000000, 8181.000000, 8162.000000
2180, 21384776.000000, 1276.125000, 8156.000000, 8192.000000, 8174.000000
2181, 21384936.000000, 1220.500000, 8164.500000, 8190.500000, 8175.500000
2182, 21385096.000000, 1175.750000, 8171.500000, 8200.500000, 8189.000000
2183, 21385256.000000, 1130.125000, 8180.000000, 8198.500000, 8190.500000
2184, 21385416.000000, 1076.250000, 8174.000000, 8196.500000, 8178.000000
2185, 21385576.000000, 1036.625000, 8172.500000, 8178.500000, 8162.500000
2186, 21385736.000000, 1083.625000, 8175.000000, 8170.500000, 8156.500000
2187, 21385896.000000, 1326.250000, 8170.000000, 8169.500000, 8154.500000
2188, 21386056.000000, 1755.125000, 8174.000000, 8170.500000, 8155.500000
2189, 21386216.000000, 2282.875000, 8166.000000, 8169.000000, 8149.000000
2190, 21386376.000000, 2758.875000, 8169.000000, 8164.500000, 8143.500000
2191, 21386536.000000, 3093.750000, 8171.500000, 8174.500000, 8155.500000
2192, 21386696.000000, 3275.000000, 8175.000000, 8170.000000, 8147.000000
2193, 21386856.000000, 3340.500000, 8188.500000, 8173.500000, 8162.500000
2194, 21387016.000000, 3327.250000, 8179.000000, 8179.500000, 8170.000000
2195, 21387176.000000, 3226.750000, 8174.500000, 8171.000000, 8159.500000
2196, 21387336.000000, 3064.750000, 8179.500000, 8176.000000, 8171.000000
2197, 21387496.000000, 2839.500000, 8171.000000, 8197.500000, 8192.500000
2198, 21387656.000000, 2628.875000, 8418.500000, 8231.500000, 8330.500000
2199, 21387816.000000, 2438.250000, 8448.000000, 8032.500000, 8158.000000
2200, 21387976.000000, 2267.625000, 8043.500000, 8111.000000, 8050.500000
2201, 21388136.000000, 2155.875000, 8110.000000, 8178.500000, 8114.000000
2202, 21388296.000000, 2110.125000, 8168.500000, 8224.500000, 8206.000000
2203, 21388456.000000, 2069.750000, 8185.500000, 8217.000000, 8216.500000
2204, 21388616.000000, 2011.500000, 8203.000000, 8231.000000, 8238.000000
2205, 21388776.000000, 1937.000000, 8207.500000, 8238.500000, 8245.000000
2206, 21388936.000000, 1850.375000, 8210.000000, 8256.000000, 8264.000000
2207, 21389096.000000, 1754.000000, 8227.500000, 8265.500000, 8276.000000
2208, 21389256.000000, 1653.250000, 8253.500000, 8278.500000, 8305.500000
2209, 21389416.000000, 1563.375000, 8274.000000, 8297.000000, 8330.500000
2210, 21389576.000000, 1484.250000, 8274.000000, 8302.500000, 8333.000000
2211, 21389736.000000, 1413.125000, 8270.000000, 8288.000000, 8315.000000
2212, 21389896.000000, 1348.000000, 8240.500000, 8252.000000, 8269.500000
2213, 21390056.000000, 1289.000000, 8198.000000, 8221.500000, 8226.500000
2214, 21390216.000000, 1234.750000, 8170.000000, 8191.500000, 8181.000000
2215, 21390376.000000, 1194.250000, 8158.000000, 8185.000000, 8169.500000
2216, 21390536.000000, 1161.750000, 8158.000000, 8183.000000, 8166.000000
2217, 21390696.000000, 1139.375000, 8164.000000, 8196.000000, 8185.500000
2218, 21390856.000000, 1118.875000, 8160.500000, 8187.500000, 8175.000000
2219, 21391016.000000, 1096.375000, 8157.000000, 8187.500000, 8175.500000
2220, 21391176.000000, 1084.750000, 8158.500000, 8182.000000, 8166.000000
2221, 21391336.000000, 1132.375000, 8165.000000, 8183.500000, 8173.500000
2222, 21391496.000000, 1335.875000, 8165.500000, 8171.500000, 8160.000000
2223, 21391656.000000, 1729.000000, 8165.500000, 8174.500000, 8160.500000
2224, 21391816.000000, 2257.375000, 8165.000000, 8177.500000, 8159.000000
2225, 21391976.000000, 2781.500000, 8166.500000, 8181.000000, 8171.500000
2226, 21392136.000000, 3194.500000, 8162.500000, 8173.500000, 8154.000000
2227, 21392296.000000, 3429.125000, 8156.500000, 8179.000000, 8154.500000
2228, 21392456.000000, 3521.750000, 8158.500000, 8183.000000, 8155.000000
2229, 21392616.000000, 3509.750000, 8183.000000, 8183.500000, 8179.500000
2230, 21392776.000000, 3435.000000, 8174.000000, 8180.500000, 8170.000000
2231, 21392936.000000, 3320.875000, 8169.500000, 8177.000000, 8174.000000
2232, 21393096.000000, 3174.875000, 8178.500000, 8187.500000, 8194.500000
2233, 21393256.000000, 3002.375000, 8179.500000, 8191.000000, 8195.500000
2234, 21393416.000000, 2812.125000, 8315.000000, 8274.500000, 8341.500000
2235, 21393576.000000, 2619.125000, 8508.000000, 8087.500000, 8246.000000
2236, 21393736.000000, 2446.500000, 8043.500000, 8125.500000, 8090.000000
2237, 21393896.000000, 2312.875000, 8100.500000, 8169.000000, 8110.500000
2238, 21394056.000000, 2215.875000, 8178.000000, 8223.500000, 8220.500000
2239, 21394216.000000, 2140.500000, 8184.500000, 8235.000000, 8244.000000
2240, 21394376.000000, 2076.750000, 8195.000000, 8225.000000, 8241.000000
2241, 21394536.000000, 2006.250000, 8204.500000, 8232.500000, 8249.000000
2242, 21394696.000000, 1920.125000, 8211.500000, 8238.000000, 8252.000000
2243, 21394856.000000, 1819.375000, 8228.000000, 8255.000000, 8280.000000
2244, 21395016.000000, 1716.000000, 8250.000000, 8277.500000, 8311.000000
2245, 21395176.000000, 1616.625000, 8271.500000, 8287.500000, 8323.500000
2246, 21395336.000000, 1520.375000, 8286.500000, 8283.500000, 8324.500000
2247, 21395496.000000, 1427.875000, 8278.500000, 8277.000000, 8316.000000
2248, 21395656.000000, 1333.250000, 8240.000000, 8258.500000, 8284.500000
2249, 21395816.000000, 1240.500000, 8192.500000, 8218.500000, 8228.500000
2250, 21395976.000000, 1160.875000, 8170.500000, 8192.000000, 8192.500000
2251, 21396136.000000, 1106.750000, 8154.000000, 8163.500000, 8153.500000
2252, 21396296.000000, 1069.250000, 8156.000000, 8165.500000, 8155.500000
2253, 21396456.000000, 1035.250000, 8155.500000, 8169.500000, 8158.500000
2254, 21396616.000000, 998.125000, 8158.500000, 8173.500000, 8163.500000
2255, 21396776.000000, 958.750000, 8164.500000, 8159.000000, 8146.000000
2256, 21396936.000000, 913.125000, 8158.500000, 8152.500000, 8134.500000
2257, 21397096.000000, 897.125000, 8145.500000, 8152.500000, 8124.000000
2258, 21397256.000000, 984.000000, 8160.000000, 8152.500000, 8139.500000
2259, 21397416.000000, 1271.250000, 8157.500000, 8147.000000, 8126.500000
2260, 21397576.000000, 1729.500000, 8154.000000, 8146.000000, 8124.000000
2261, 21397736.000000, 2255.500000, 8158.500000, 8150.000000, 8129.000000
2262, 21397896.000000, 2696.625000, 8150.500000, 8142.000000, 8117.000000
2263, 21398056.000000, 2986.750000, 8160.000000, 8161.000000, 8134.000000
2264, 21398216.000000, 3129.125000, 8161.500000, 8152.000000, 8122.000000
2265, 21398376.000000, 3157.500000, 8167.500000, 8152.500000, 8136.500000
2266, 21398536.000000, 3118.250000, 8174.500000, 8162.000000, 8152.000000
2267, 21398696.000000, 3031.000000, 8164.000000, 8156.500000, 8139.000000
2268, 21398856.000000, 2906.375000, 8156.000000, 8152.000000, 8132.000000
2269, 21399016.000000, 2745.875000, 8161.500000, 8190.500000, 8188.000000
2270, 21399176.000000, 2566.375000, 8449.500000, 8191.000000, 8303.500000
2271, 21399336.000000, 2406.625000, 8331.000000, 8012.500000, 8098.500000
2272, 21399496.000000, 2299.750000, 8031.500000, 8088.500000, 8012.000000
2273, 21399656.000000, 2256.000000, 8095.000000, 8160.000000, 8095.500000
2274, 21399816.000000, 2255.750000, 8169.500000, 8193.000000, 8187.500000
2275, 21399976.000000, 2269.500000, 8175.000000, 8187.000000, 8177.000000
2276, 21400136.000000, 2260.250000, 8174.500000, 8213.500000, 8208.000000
2277, 21400296.000000, 2214.000000, 8186.500000, 8221.500000, 8219.000000
2278, 21400456.000000, 2136.500000, 8196.500000, 8235.000000, 8241.000000
2279, 21400616.000000, 2041.375000, 8216.500000, 8247.000000, 8257.500000
2280, 21400776.000000, 1935.500000, 8242.500000, 8267.000000, 8285.000000
2281, 21400936.000000, 1826.125000, 8254.500000, 8292.000000, 8316.500000
2282, 21401096.000000, 1721.125000, 8270.000000, 8305.000000, 8336.000000
2283, 21401256.000000, 1629.125000, 8256.000000, 8282.500000, 8306.000000
2284, 21401416.000000, 1548.125000, 8217.500000, 8245.500000, 8260.500000
2285, 21401576.000000, 1473.875000, 8176.000000, 8218.000000, 8213.500000
2286, 21401736.000000, 1411.375000, 8157.500000, 8199.000000, 8187.000000
2287, 21401896.000000, 1366.625000, 8140.000000, 8185.000000, 8164.000000
2288, 21402056.000000, 1333.750000, 8144.000000, 8190.000000, 8170.000000
2289, 21402216.000000, 1309.750000, 8146.000000, 8188.500000, 8162.500000
2290, 21402376.000000, 1286.625000, 8155.000000, 8192.000000, 8181.500000
2291, 21402536.000000, 1260.750000, 8162.000000, 8184.500000, 8175.000000
2292, 21402696.000000, 1236.625000, 8158.500000, 8180.500000, 8169.500000
2293, 21402856.000000, 1255.000000, 8160.500000, 8171.000000, 8160.000000
2294, 21403016.000000, 1410.375000, 8158.500000, 8176.000000, 8161.000000
2295, 21403176.000000, 1754.750000, 8156.000000, 8177.000000, 8161.500000
2296, 21403336.000000, 2249.500000, 8155.000000, 8165.000000, 8152.500000
2297, 21403496.000000, 2758.375000, 8152.500000, 8166.500000, 8150.500000
2298, 21403656.000000, 3172.500000, 8157.500000, 8173.500000, 8158.000000
2299, 21403816.000000, 3431.375000, 8151.500000, 8167.000000, 8142.500000
2300, 21403976.000000, 3553.125000, 8159.500000, 8178.000000, 8156.000000
2301, 21404136.000000, 3565.375000, 8161.000000, 8176.000000, 8161.500000
2302, 21404296.000000, 3513.125000, 8182.500000, 8169.000000, 8160.000000
2303, 21404456.000000, 3421.500000, 8160.000000, 8171.500000, 8160.500000
2304, 21404616.000000, 3289.750000, 8155.500000, 8178.500000, 8165.500000
2305, 21404776.000000, 3108.000000, 8155.500000, 8170.000000, 8153.000000
2306, 21404936.000000, 2899.375000, 8161.000000, 8254.000000, 8257.500000
2307, 21405096.000000, 2695.250000, 8681.500000, 8062.500000, 8281.000000
2308, 21405256.000000, 2524.000000, 8063.000000, 8054.500000, 8032.000000
2309, 21405416.000000, 2399.750000, 8063.000000, 8118.500000, 8032.000000
2310, 21405576.000000, 2314.875000, 8141.500000, 8206.000000, 8174.500000
2311, 21405736.000000, 2258.250000, 8169.000000, 8222.500000, 8210.500000
2312, 21405896.000000, 2199.750000, 8184.500000, 8215.000000, 8212.000000
2313, 21406056.000000, 2126.375000, 8195.500000, 8220.000000, 8223.500000
2314, 21406216.000000, 2035.875000, 8202.500000, 8230.500000, 8235.500000
2315, 21406376.000000, 1930.125000, 8209.500000, 8247.000000, 8251.500000
2316, 21406536.000000, 1817.125000, 8226.000000, 8272.000000, 8288.000000
2317, 21406696.000000, 1698.625000, 8254.500000, 8280.000000, 8307.500000
2318, 21406856.000000, 1583.375000, 8270.000000, 8288.000000, 8320.000000
2319, 21407016.000000, 1476.000000, 8270.000000, 8281.500000, 8314.500000
2320, 21407176.000000, 1379.375000, 8250.500000, 8260.500000, 8283.500000
2321, 21407336.000000, 1291.375000, 8217.000000, 8203.500000, 8213.000000
2322, 21407496.000000, 1217.750000, 8174.500000, 8161.500000, 8153.500000
2323, 21407656.000000, 1156.625000, 8159.500000, 8150.000000, 8136.500000
2324, 21407816.000000, 1103.625000, 8148.500000, 8145.000000, 8124.500000
2325, 21407976.000000, 1060.000000, 8160.500000, 8152.000000, 8138.500000
2326, 21408136.000000, 1026.750000, 8159.000000, 8148.500000, 8135.500000
2327, 21408296.000000, 1001.125000, 8164.500000, 8154.500000, 8144.500000
2328, 21408456.000000, 969.375000, 8164.000000, 8161.000000, 8147.000000
2329, 21408616.000000, 956.125000, 8173.000000, 8139.000000, 8129.500000
2330, 21408776.000000, 1031.250000, 8166.500000, 8140.500000, 8130.000000
2331, 21408936.000000, 1306.375000, 8164.500000, 8143.500000, 8131.500000
2332, 21409096.000000, 1767.500000, 8161.500000, 8142.000000, 8123.000000
2333, 21409256.000000, 2325.000000, 8170.000000, 8137.000000, 8121.500000
2334, 21409416.000000, 2840.250000, 8167.000000, 8137.500000, 8123.500000
2335, 21409576.000000, 3224.875000, 8163.000000, 8135.000000, 8116.000000
2336, 21409736.000000, 3457.000000, 8164.000000, 8142.000000, 8116.500000
2337, 21409896.000000, 3557.375000, 8177.000000, 8143.500000, 8118.500000
2338, 21410056.000000, 3580.375000, 8179.500000, 8132.000000, 8114.000000
2339, 21410216.000000, 3551.750000, 8172.500000, 8132.000000, 8120.500000
2340, 21410376.000000, 3480.875000, 8169.500000, 8135.000000, 8124.500000
2341, 21410536.000000, 3363.000000, 8181.000000, 8123.000000, 8111.000000
2342, 21410696.000000, 3197.875000, 8181.500000, 8129.000000, 8119.000000
2343, 21410856.000000, 3011.125000, 8308.500000, 8221.500000, 8274.000000
2344, 21411016.000000, 2832.125000, 8635.500000, 7961.000000, 8159.500000
2345, 21411176.000000, 2692.000000, 8037.000000, 8048.500000, 7989.500000
2346, 21411336.000000, 2595.500000, 8091.500000, 8124.000000, 8039.500000
2347, 21411496.000000, 2533.250000, 8152.000000, 8182.000000, 8160.500000
2348, 21411656.000000, 2479.250000, 8165.000000, 8196.000000, 8185.500000
2349, 21411816.000000, 2422.375000, 8184.500000, 8195.000000, 8191.500000
2350, 21411976.000000, 2351.000000, 8193.000000, 8205.000000, 8204.000000
2351, 21412136.000000, 2265.875000, 8197.000000, 8218.000000, 8217.500000
2352, 21412296.000000, 2170.125000, 8216.500000, 8235.000000, 8243.000000
2353, 21412456.000000, 2072.250000, 8239.000000, 8254.500000, 8276.500000
2354, 21412616.000000, 1980.500000, 8260.000000, 8270.000000, 8290.500000
2355, 21412776.000000, 1888.875000, 8245.000000, 8252.000000, 8237.000000
2356, 21412936.000000, 1799.875000, 8238.500000, 8244.500000, 8221.000000
2357, 21413096.000000, 1720.625000, 8201.000000, 8215.000000, 8189.500000
2358, 21413256.000000, 1648.500000, 8171.000000, 8175.500000, 8137.000000
2359, 21413416.000000, 1576.250000, 8136.000000, 8138.000000, 8088.000000
2360, 21413576.000000, 1497.875000, 8131.500000, 8124.500000, 8069.500000
2361, 21413736.000000, 1419.875000, 8119.500000, 8132.000000, 8079.000000
2362, 21413896.000000, 1356.250000, 8130.500000, 8140.500000, 8094.500000
2363, 21414056.000000, 1302.875000, 8138.000000, 8130.000000, 8089.500000
2364, 21414216.000000, 1248.125000, 8146.500000, 8135.500000, 8099.500000
2365, 21414376.000000, 1188.625000, 8151.000000, 8141.500000, 8108.500000
2366, 21414536.000000, 1158.000000, 8149.500000, 8128.500000, 8096.500000
2367, 21414696.000000, 1243.375000, 8156.500000, 8120.500000, 8088.500000
2368, 21414856.000000, 1523.750000, 8147.000000, 8130.000000, 8092.500000
2369, 21415016.000000, 1997.750000, 8138.000000, 8136.000000, 8100.000000
2370, 21415176.000000, 2547.000000, 8144.500000, 8140.000000, 8107.000000
2371, 21415336.000000, 3027.500000, 8148.000000, 8131.000000, 8098.000000
2372, 21415496.000000, 3365.500000, 8156.000000, 8134.500000, 8105.000000
2373, 21415656.000000, 3547.625000, 8165.000000, 8146.500000, 8124.500000
2374, 21415816.000000, 3607.250000, 8171.500000, 8164.500000, 8136.000000
2375, 21415976.000000, 3587.125000, 8177.500000, 8153.000000, 8135.000000
2376, 21416136.000000, 3517.375000, 8193.500000, 8166.500000, 8168.500000
2377, 21416296.000000, 3405.250000, 8186.000000, 8186.000000, 8194.000000
2378, 21416456.000000, 3245.875000, 8206.500000, 8203.500000, 8230.000000
2379, 21416616.000000, 3031.750000, 8198.000000, 8217.500000, 8235.500000
2380, 21416776.000000, 2805.375000, 8172.000000, 8278.500000, 8304.000000
2381, 21416936.000000, 2609.250000, 8652.000000, 8142.000000, 8355.500000
2382, 21417096.000000, 2467.500000, 8172.500000, 8093.500000, 8138.500000
2383, 21417256.000000, 2371.000000, 8070.500000, 8144.000000, 8079.500000
2384, 21417416.000000, 2307.375000, 8152.000000, 8231.000000, 8211.500000
2385, 21417576.000000, 2256.875000, 8184.000000, 8255.000000, 8270.500000
2386, 21417736.000000, 2196.250000, 8201.500000, 8253.000000, 8270.500000
2387, 21417896.000000, 2111.250000, 8210.000000, 8253.500000, 8273.500000
2388, 21418056.000000, 2007.500000, 8214.000000, 8263.500000, 8282.500000
2389, 21418216.000000, 1893.625000, 8227.500000, 8275.000000, 8310.500000
2390, 21418376.000000, 1771.750000, 8241.500000, 8292.000000, 8325.000000
2391, 21418536.000000, 1646.750000, 8269.500000, 8312.000000, 8354.500000
2392, 21418696.000000, 1523.000000, 8295.000000, 8322.000000, 8373.000000
2393, 21418856.000000, 1405.875000, 8294.500000, 8310.000000, 8361.500000
2394, 21419016.000000, 1299.250000, 8284.000000, 8290.500000, 8337.000000
2395, 21419176.000000, 1209.375000, 8245.000000, 8255.000000, 8289.500000
2396, 21419336.000000, 1138.125000, 8200.500000, 8205.000000, 8216.500000
2397, 21419496.000000, 1085.750000, 8171.000000, 8172.500000, 8171.500000
2398, 21419656.000000, 1044.250000, 8164.500000, 8165.500000, 8159.500000
2399, 21419816.000000, 1012.125000, 8166.000000, 8160.000000, 8152.000000
2400, 21419976.000000, 989.125000, 8166.500000, 8168.500000, 8162.000000
2401, 21420136.000000, 973.250000, 8172.000000, 8158.000000, 8159.500000
2402, 21420296.000000, 951.750000, 8169.500000, 8154.500000, 8150.500000
2403, 21420456.000000, 929.250000, 8175.000000, 8152.000000, 8144.000000
2404, 21420616.000000, 975.000000, 8173.500000, 8142.000000, 8129.000000
2405, 21420776.000000, 1182.000000, 8193.000000, 8142.000000, 8143.000000
2406, 21420936.000000, 1593.250000, 8224.000000, 8128.000000, 8135.500000
2407, 21421096.000000, 2125.750000, 8235.500000, 8119.500000, 8132.500000
2408, 21421256.000000, 2655.000000, 8207.000000, 8135.000000, 8134.000000
2409, 21421416.000000, 3053.250000, 8182.500000, 8142.500000, 8135.500000
2410, 21421576.000000, 3297.000000, 8166.500000, 8152.000000, 8145.500000
2411, 21421736.000000, 3398.000000, 8161.500000, 8160.000000, 8140.000000
2412, 21421896.000000, 3416.125000, 8168.000000, 8160.500000, 8131.000000
2413, 21422056.000000, 3385.750000, 8157.000000, 8147.000000, 8110.000000
2414, 21422216.000000, 3321.750000, 8142.000000, 8143.000000, 8094.000000
2415, 21422376.000000, 3219.750000, 8139.000000, 8148.000000, 8099.000000
2416, 21422536.000000, 3072.375000, 8153.000000, 8155.000000, 8114.000000
2417, 21422696.000000, 2891.125000, 8138.000000, 8154.500000, 8111.000000
2418, 21422856.000000, 2712.250000, 8275.000000, 8249.000000, 8275.000000
2419, 21423016.000000, 2573.625000, 8549.000000, 8017.000000, 8166.000000
2420, 21423176.000000, 2489.375000, 8000.500000, 8101.000000, 8020.500000
2421, 21423336.000000, 2449.750000, 8061.000000, 8157.500000, 8055.500000
2422, 21423496.000000, 2427.875000, 8142.000000, 8219.500000, 8186.500000
2423, 21423656.000000, 2400.250000, 8168.000000, 8229.000000, 8214.500000
2424, 21423816.000000, 2346.125000, 8172.500000, 8238.500000, 8227.000000
2425, 21423976.000000, 2255.125000, 8178.500000, 8248.000000, 8237.500000
2426, 21424136.000000, 2136.250000, 8198.000000, 8247.000000, 8242.500000
2427, 21424296.000000, 1998.000000, 8206.500000, 8268.500000, 8270.500000
2428, 21424456.000000, 1861.500000, 8221.000000, 8289.500000, 8299.000000
2429, 21424616.000000, 1736.000000, 8234.000000, 8305.500000, 8319.500000
2430, 21424776.000000, 1619.250000, 8260.500000, 8306.000000, 8328.500000
2431, 21424936.000000, 1507.125000, 8266.000000, 8297.500000, 8318.000000
2432, 21425096.000000, 1408.500000, 8239.000000, 8271.000000, 8287.000000
2433, 21425256.000000, 1323.625000, 8183.500000, 8228.000000, 8228.000000
2434, 21425416.000000, 1251.500000, 8150.500000, 8201.500000, 8183.500000
2435, 21425576.000000, 1183.750000, 8144.500000, 8193.000000, 8170.000000
2436, 21425736.000000, 1126.625000, 8138.000000, 8191.500000, 8165.000000
2437, 21425896.000000, 1084.875000, 8147.000000, 8183.000000, 8164.500000
2438, 21426056.000000, 1054.500000, 8161.500000, 8189.500000, 8177.500000
2439, 21426216.000000, 1020.000000, 8170.500000, 8191.500000, 8181.500000
2440, 21426376.000000, 976.625000, 8171.500000, 8186.500000, 8172.000000
2441, 21426536.000000, 945.125000, 8177.000000, 8179.500000, 8172.500000
2442, 21426696.000000, 994.000000, 8175.000000, 8179.500000, 8167.500000
2443, 21426856.000000, 1218.000000, 8164.000000, 8170.500000, 8157.500000
2444, 21427016.000000, 1619.875000, 8169.500000, 8180.000000, 8162.500000
2445, 21427176.000000, 2131.625000, 8174.500000, 8169.000000, 8156.000000
2446, 21427336.000000, 2612.750000, 8171.500000, 8165.000000, 8153.500000
2447, 21427496.000000, 2967.375000, 8188.000000, 8182.000000, 8182.500000
2448, 21427656.000000, 3170.875000, 8195.000000, 8198.500000, 8204.500000
2449, 21427816.000000, 3248.750000, 8203.000000, 8194.500000, 8214.500000
2450, 21427976.000000, 3250.125000, 8206.000000, 8190.500000, 8215.000000
2451, 21428136.000000, 3197.500000, 8199.500000, 8183.500000, 8201.500000
2452, 21428296.000000, 3103.250000, 8197.500000, 8188.000000, 8213.500000
2453, 21428456.000000, 2973.875000, 8190.500000, 8194.000000, 8212.000000
2454, 21428616.000000, 2794.875000, 8265.500000, 8275.000000, 8337.000000
2455, 21428776.000000, 2587.125000, 8611.000000, 8099.500000, 8304.500000
2456, 21428936.000000, 2392.875000, 8058.000000, 8134.500000, 8125.500000
2457, 21429096.000000, 2250.625000, 8106.000000, 8163.000000, 8110.000000
2458, 21429256.000000, 2160.625000, 8174.500000, 8209.000000, 8215.500000
2459, 21429416.000000, 2104.375000, 8200.000000, 8225.000000, 8243.500000
2460, 21429576.000000, 2074.000000, 8211.000000, 8234.500000, 8261.000000
2461, 21429736.000000, 2049.875000, 8219.500000, 8217.500000, 8242.000000
2462, 21429896.000000, 2001.625000, 8222.500000, 8212.000000, 8238.500000
2463, 21430056.000000, 1923.125000, 8241.500000, 8227.500000, 8258.500000
2464, 21430216.000000, 1830.125000, 8258.000000, 8241.500000, 8280.500000
2465, 21430376.000000, 1731.000000, 8288.000000, 8244.000000, 8291.000000
2466, 21430536.000000, 1627.750000, 8300.500000, 8272.500000, 8326.000000
2467, 21430696.000000, 1527.250000, 8291.000000, 8276.500000, 8319.500000
2468, 21430856.000000, 1439.125000, 8259.500000, 8262.500000, 8295.500000
2469, 21431016.000000, 1367.750000, 8202.500000, 8243.000000, 8262.000000
2470, 21431176.000000, 1309.625000, 8174.000000, 8225.000000, 8233.000000
2471, 21431336.000000, 1268.250000, 8162.500000, 8221.500000, 8218.000000
2472, 21431496.000000, 1241.000000, 8169.500000, 8230.000000, 8231.000000
2473, 21431656.000000, 1222.625000, 8169.500000, 8218.000000, 8217.000000
2474, 21431816.000000, 1200.750000, 8178.500000, 8225.000000, 8229.000000
2475, 21431976.000000, 1174.125000, 8176.500000, 8231.500000, 8230.500000
2476, 21432136.000000, 1142.000000, 8178.000000, 8232.000000, 8226.000000
2477, 21432296.000000, 1103.250000, 8160.500000, 8206.500000, 8175.500000
2478, 21432456.000000, 1106.500000, 8148.000000, 8189.500000, 8149.500000
2479, 21432616.000000, 1246.750000, 8144.000000, 8191.500000, 8150.500000
2480, 21432776.000000, 1581.250000, 8147.000000, 8198.000000, 8157.500000
2481, 21432936.000000, 2061.125000, 8154.000000, 8202.000000, 8161.000000
2482, 21433096.000000, 2556.875000, 8144.500000, 8191.000000, 8157.500000
2483, 21433256.000000, 2945.500000, 8137.000000, 8192.500000, 8155.500000
2484, 21433416.000000, 3184.000000, 8140.500000, 8206.000000, 8162.000000
2485, 21433576.000000, 3283.500000, 8137.000000, 8210.000000, 8167.500000
2486, 21433736.000000, 3289.625000, 8155.000000, 8191.000000, 8160.500000
2487, 21433896.000000, 3247.625000, 8145.000000, 8197.500000, 8170.500000
2488, 21434056.000000, 3176.625000, 8137.000000, 8202.000000, 8171.500000
2489, 21434216.000000, 3070.125000, 8135.500000, 8204.000000, 8173.000000
2490, 21434376.000000, 2920.750000, 8129.000000, 8229.000000, 8207.000000
2491, 21434536.000000, 2727.000000, 8377.500000, 8251.500000, 8333.500000
2492, 21434696.000000, 2530.875000, 8428.500000, 8026.500000, 8136.000000
2493, 21434856.000000, 2363.125000, 8025.000000, 8129.500000, 8047.500000
2494, 21435016.000000, 2244.375000, 8087.500000, 8201.500000, 8130.500000
2495, 21435176.000000, 2164.750000, 8153.000000, 8236.500000, 8215.000000
2496, 21435336.000000, 2108.500000, 8170.500000, 8239.000000, 8225.000000
2497, 21435496.000000, 2058.500000, 8167.000000, 8247.000000, 8238.500000
2498, 21435656.000000, 2001.375000, 8179.000000, 8248.500000, 8243.000000
2499, 21435816.000000, 1922.750000, 8189.500000, 8266.500000, 8263.000000
2500, 21435976.000000, 1831.125000, 8200.500000, 8274.500000, 8275.500000
2501, 21436136.000000, 1734.625000, 8215.500000, 8298.500000, 8311.500000
2502, 21436296.000000, 1636.375000, 8245.000000, 8322.500000, 8342.000000
2503, 21436456.000000, 1544.500000, 8263.500000, 8328.000000, 8353.500000
2504, 21436616.000000, 1456.750000, 8252.000000, 8297.500000, 8315.500000
2505, 21436776.000000, 1371.750000, 8222.500000, 8254.500000, 8268.500000
2506, 21436936.000000, 1293.375000, 8185.500000, 8215.500000, 8212.500000
2507, 21437096.000000, 1224.375000, 8152.000000, 8181.500000, 8158.500000
2508, 21437256.000000, 1166.375000, 8149.500000, 8175.500000, 8149.500000
2509, 21437416.000000, 1116.125000, 8150.500000, 8168.000000, 8145.500000
2510, 21437576.000000, 1074.125000, 8154.500000, 8177.500000, 8159.000000
2511, 21437736.000000, 1042.125000, 8160.000000, 8187.500000, 8173.500000
2512, 21437896.000000, 1016.750000, 8168.000000, 8181.000000, 8165.500000
2513, 21438056.000000, 987.250000, 8181.500000, 8182.500000, 8186.500000
2514, 21438216.000000, 958.500000, 8189.500000, 8181.500000, 8194.000000
2515, 21438376.000000, 1009.875000, 8182.500000, 8184.000000, 8200.500000
2516, 21438536.000000, 1235.375000, 8190.000000, 8176.500000, 8187.000000
2517, 21438696.000000, 1654.250000, 8184.500000, 8170.000000, 8181.000000
2518, 21438856.000000, 2169.875000, 8185.500000, 8171.000000, 8181.000000
2519, 21439016.000000, 2656.375000, 8184.500000, 8180.000000, 8190.000000
2520, 21439176.000000, 3023.625000, 8188.000000, 8177.000000, 8187.500000
2521, 21439336.000000, 3240.125000, 8186.500000, 8170.500000, 8176.500000
2522, 21439496.000000, 3339.625000, 8185.000000, 8176.000000, 8170.000000
2523, 21439656.000000, 3350.875000, 8197.500000, 8175.000000, 8183.500000
2524, 21439816.000000, 3315.000000, 8188.500000, 8179.500000, 8192.000000
2525, 21439976.000000, 3243.500000, 8187.000000, 8164.500000, 8176.000000
2526, 21440136.000000, 3122.250000, 8189.000000, 8168.500000, 8179.500000
2527, 21440296.000000, 2949.875000, 8185.500000, 8172.500000, 8180.500000
2528, 21440456.000000, 2748.625000, 8252.000000, 8267.500000, 8319.500000
2529, 21440616.000000, 2549.750000, 8700.000000, 8023.000000, 8253.500000
2530, 21440776.000000, 2386.750000, 8046.000000, 8079.500000, 8048.500000
2531, 21440936.000000, 2280.750000, 8095.500000, 8138.000000, 8071.000000
2532, 21441096.000000, 2223.250000, 8175.000000, 8209.000000, 8206.000000
2533, 21441256.000000, 2191.500000, 8190.000000, 8215.500000, 8228.500000
2534, 21441416.000000, 2154.750000, 8197.000000, 8219.000000, 8231.500000
2535, 21441576.000000, 2098.500000, 8202.000000, 8225.500000, 8236.000000
2536, 21441736.000000, 2020.500000, 8197.000000, 8244.500000, 8251.000000
2537, 21441896.000000, 1924.375000, 8210.000000, 8250.500000, 8269.500000
2538, 21442056.000000, 1818.375000, 8247.500000, 8271.500000, 8306.500000
2539, 21442216.000000, 1709.750000, 8283.500000, 8294.000000, 8341.000000
2540, 21442376.000000, 1609.375000, 8312.500000, 8301.000000, 8356.000000
2541, 21442536.000000, 1522.375000, 8311.000000, 8284.000000, 8339.500000
2542, 21442696.000000, 1444.500000, 8292.500000, 8246.500000, 8288.500000
2543, 21442856.000000, 1376.750000, 8227.500000, 8216.000000, 8238.500000
2544, 21443016.000000, 1321.875000, 8182.000000, 8182.000000, 8179.000000
2545, 21443176.000000, 1285.500000, 8154.000000, 8166.500000, 8147.500000
2546, 21443336.000000, 1263.250000, 8155.000000, 8159.500000, 8143.500000
2547, 21443496.000000, 1252.125000, 8148.500000, 8166.000000, 8148.500000
2548, 21443656.000000, 1246.875000, 8145.000000, 8170.000000, 8150.000000
2549, 21443816.000000, 1242.125000, 8117.000000, 8165.500000, 8116.500000
2550, 21443976.000000, 1229.875000, 8120.000000, 8149.500000, 8096.000000
2551, 21444136.000000, 1205.000000, 8122.500000, 8147.500000, 8092.500000
2552, 21444296.000000, 1214.125000, 8129.000000, 8146.500000, 8092.000000
2553, 21444456.000000, 1372.250000, 8134.000000, 8155.500000, 8106.500000
2554, 21444616.000000, 1715.250000, 8138.000000, 8139.500000, 8095.000000
2555, 21444776.000000, 2214.500000, 8151.000000, 8147.000000, 8104.000000
2556, 21444936.000000, 2729.000000, 8138.500000, 8159.500000, 8118.000000
2557, 21445096.000000, 3143.125000, 8134.000000, 8155.500000, 8116.500000
2558, 21445256.000000, 3404.375000, 8130.000000, 8163.000000, 8125.000000
2559, 21445416.000000, 3523.000000, 8132.000000, 8163.000000, 8116.000000
2560, 21445576.000000, 3542.000000, 8149.500000, 8169.000000, 8126.000000
2561, 21445736.000000, 3506.875000, 8149.000000, 8164.500000, 8133.000000
2562, 21445896.000000, 3441.250000, 8159.000000, 8167.000000, 8142.000000
2563, 21446056.000000, 3331.125000, 8154.500000, 8167.000000, 8141.000000
2564, 21446216.000000, 3172.625000, 8154.000000, 8169.000000, 8149.000000
2565, 21446376.000000, 2978.375000, 8138.500000, 8177.000000, 8154.500000
2566, 21446536.000000, 2780.750000, 8211.500000, 8273.000000, 8293.000000
2567, 21446696.000000, 2608.875000, 8641.500000, 8018.000000, 8217.000000
2568, 21446856.000000, 2476.750000, 7999.000000, 8090.000000, 8020.000000
2569, 21447016.000000, 2388.500000, 8069.500000, 8147.000000, 8055.000000
2570, 21447176.000000, 2329.375000, 8147.000000, 8210.500000, 8182.000000
2571, 21447336.000000, 2277.250000, 8162.500000, 8222.000000, 8201.000000
2572, 21447496.000000, 2211.250000, 8170.500000, 8229.500000, 8213.500000
2573, 21447656.000000, 2131.125000, 8208.000000, 8242.500000, 8252.000000
2574, 21447816.000000, 2034.875000, 8212.000000, 8242.500000, 8255.000000
2575, 21447976.000000, 1927.875000, 8227.000000, 8265.000000, 8283.500000
2576, 21448136.000000, 1814.375000, 8244.500000, 8285.000000, 8314.000000
2577, 21448296.000000, 1705.750000, 8289.500000, 8313.500000, 8378.500000
2578, 21448456.000000, 1605.125000, 8310.000000, 8320.000000, 8397.500000
2579, 21448616.000000, 1509.875000, 8314.500000, 8310.500000, 8382.500000
2580, 21448776.000000, 1417.250000, 8286.500000, 8287.500000, 8358.500000
2581, 21448936.000000, 1326.750000, 8249.000000, 8243.000000, 8300.000000
2582, 21449096.000000, 1249.625000, 8200.000000, 8198.500000, 8236.500000
2583, 21449256.000000, 1184.000000, 8191.500000, 8183.500000, 8209.000000
2584, 21449416.000000, 1126.375000, 8192.500000, 8189.000000, 8216.000000
2585, 21449576.000000, 1076.125000, 8185.500000, 8176.000000, 8200.000000
2586, 21449736.000000, 1033.125000, 8189.500000, 8185.000000, 8212.500000
2587, 21449896.000000, 996.250000, 8198.500000, 8177.500000, 8203.500000
2588, 21450056.000000, 957.875000, 8199.500000, 8178.500000, 8205.500000
2589, 21450216.000000, 912.125000, 8188.000000, 8167.500000, 8188.000000
2590, 21450376.000000, 903.625000, 8193.500000, 8162.000000, 8182.000000
2591, 21450536.000000, 1028.250000, 8193.500000, 8171.500000, 8184.500000
2592, 21450696.000000, 1360.000000, 8196.500000, 8161.500000, 8173.500000
2593, 21450856.000000, 1863.250000, 8183.000000, 8157.500000, 8162.500000
2594, 21451016.000000, 2401.125000, 8181.500000, 8156.000000, 8159.000000
2595, 21451176.000000, 2836.375000, 8187.500000, 8165.500000, 8169.500000
2596, 21451336.000000, 3123.250000, 8190.000000, 8159.000000, 8161.000000
2597, 21451496.000000, 3267.750000, 8188.500000, 8170.000000, 8168.000000
2598, 21451656.000000, 3313.250000, 8192.500000, 8168.000000, 8173.000000
2599, 21451816.000000, 3300.250000, 8199.000000, 8169.500000, 8173.000000
2600, 21451976.000000, 3249.500000, 8178.000000, 8164.500000, 8154.500000
2601, 21452136.000000, 3160.500000, 8170.500000, 8172.500000, 8162.500000
2602, 21452296.000000, 3028.000000, 8182.000000, 8172.000000, 8176.500000
2603, 21452456.000000, 2858.625000, 8183.500000, 8208.000000, 8223.500000
2604, 21452616.000000, 2685.000000, 8539.000000, 8162.000000, 8310.500000
2605, 21452776.000000, 2536.875000, 8388.000000, 8007.000000, 8116.500000
2606, 21452936.000000, 2432.000000, 8037.500000, 8076.500000, 7981.500000
2607, 21453096.000000, 2363.250000, 8110.500000, 8155.000000, 8072.000000
2608, 21453256.000000, 2317.125000, 8163.000000, 8185.000000, 8145.000000
2609, 21453416.000000, 2273.500000, 8172.500000, 8203.500000, 8168.000000
2610, 21453576.000000, 2218.500000, 8172.000000, 8213.500000, 8187.500000
2611, 21453736.000000, 2140.125000, 8175.000000, 8220.500000, 8198.500000
2612, 21453896.000000, 2044.875000, 8181.500000, 8240.000000, 8220.500000
2613, 21454056.000000, 1944.625000, 8205.000000, 8254.000000, 8238.000000
2614, 21454216.000000, 1849.500000, 8220.500000, 8281.500000, 8275.500000
2615, 21454376.000000, 1759.500000, 8235.500000, 8295.000000, 8301.000000
2616, 21454536.000000, 1672.750000, 8253.000000, 8303.000000, 8315.000000
2617, 21454696.000000, 1592.250000, 8249.500000, 8283.500000, 8287.500000
2618, 21454856.000000, 1520.625000, 8215.000000, 8242.500000, 8242.000000
2619, 21455016.000000, 1455.375000, 8166.500000, 8210.000000, 8190.000000
2620, 21455176.000000, 1401.750000, 8141.500000, 8174.500000, 8148.500000
2621, 21455336.000000, 1359.000000, 8133.000000, 8167.000000, 8137.000000
2622, 21455496.000000, 1315.875000, 8137.500000, 8159.000000, 8128.000000
2623, 21455656.000000, 1272.750000, 8136.500000, 8165.000000, 8141.500000
2624, 21455816.000000, 1229.625000, 8133.000000, 8178.500000, 8155.500000
2625, 21455976.000000, 1180.875000, 8140.500000, 8160.000000, 8133.000000
2626, 21456136.000000, 1118.125000, 8128.000000, 8162.000000, 8133.500000
2627, 21456296.000000, 1039.625000, 8136.500000, 8164.000000, 8140.500000
2628, 21456456.000000, 1006.500000, 8145.000000, 8168.000000, 8150.000000
2629, 21456616.000000, 1120.250000, 8142.500000, 8150.000000, 8127.500000
2630, 21456776.000000, 1444.750000, 8143.000000, 8156.000000, 8133.000000
2631, 21456936.000000, 1918.875000, 8145.000000, 8158.000000, 8144.000000
2632, 21457096.000000, 2415.500000, 8148.000000, 8156.000000, 8141.000000
2633, 21457256.000000, 2814.375000, 8147.500000, 8149.500000, 8133.500000
2634, 21457416.000000, 3075.000000, 8162.000000, 8173.500000, 8152.500000
2635, 21457576.000000, 3194.125000, 8174.000000, 8173.500000, 8153.500000
2636, 21457736.000000, 3218.625000, 8183.500000, 8163.000000, 8147.000000
2637, 21457896.000000, 3174.750000, 8170.500000, 8171.500000, 8151.500000
2638, 21458056.000000, 3086.625000, 8174.500000, 8173.000000, 8155.500000
2639, 21458216.000000, 2962.125000, 8170.000000, 8179.500000, 8162.000000
2640, 21458376.000000, 2798.750000, 8164.500000, 8233.000000, 8230.000000
2641, 21458536.000000, 2607.625000, 8604.500000, 8139.000000, 8313.000000
2642, 21458696.000000, 2415.125000, 8141.500000, 8085.000000, 8095.500000
2643, 21458856.000000, 2253.375000, 8058.000000, 8118.000000, 8037.000000
2644, 21459016.000000, 2135.625000, 8130.000000, 8177.000000, 8126.000000
2645, 21459176.000000, 2062.625000, 8183.000000, 8200.500000, 8192.500000
2646, 21459336.000000, 2012.875000, 8182.000000, 8203.000000, 8196.500000
2647, 21459496.000000, 1967.500000, 8194.000000, 8197.000000, 8183.500000
2648, 21459656.000000, 1913.875000, 8201.500000, 8206.000000, 8194.000000
2649, 21459816.000000, 1843.625000, 8206.000000, 8210.000000, 8205.500000
2650, 21459976.000000, 1759.250000, 8236.500000, 8233.500000, 8250.000000
2651, 21460136.000000, 1661.375000, 8268.500000, 8255.000000, 8292.000000
2652, 21460296.000000, 1551.375000, 8303.500000, 8274.500000, 8321.000000
2653, 21460456.000000, 1436.625000, 8308.500000, 8271.500000, 8325.000000
2654, 21460616.000000, 1325.875000, 8286.000000, 8255.500000, 8304.000000
2655, 21460776.000000, 1224.625000, 8248.000000, 8227.000000, 8262.000000
2656, 21460936.000000, 1135.125000, 8214.000000, 8204.500000, 8220.500000
2657, 21461096.000000, 1062.750000, 8172.000000, 8165.000000, 8169.500000
2658, 21461256.000000, 1006.750000, 8162.500000, 8164.000000, 8164.500000
2659, 21461416.000000, 964.625000, 8163.500000, 8178.500000, 8179.500000
2660, 21461576.000000, 934.625000, 8177.500000, 8174.000000, 8175.500000
2661, 21461736.000000, 911.625000, 8174.000000, 8169.000000, 8170.000000
2662, 21461896.000000, 898.375000, 8173.500000, 8172.000000, 8176.500000
2663, 21462056.000000, 884.250000, 8180.000000, 8174.000000, 8175.000000
2664, 21462216.000000, 870.125000, 8178.500000, 8173.000000, 8177.000000
2665, 21462376.000000, 911.500000, 8175.500000, 8163.000000, 8162.000000
2666, 21462536.000000, 1090.125000, 8174.000000, 8155.000000, 8150.500000
2667, 21462696.000000, 1473.875000, 8163.500000, 8148.500000, 8122.000000
2668, 21462856.000000, 1974.125000, 8163.500000, 8150.500000, 8122.500000
2669, 21463016.000000, 2475.250000, 8158.000000, 8147.500000, 8112.000000
2670, 21463176.000000, 2860.625000, 8154.500000, 8151.500000, 8111.000000
2671, 21463336.000000, 3096.250000, 8175.000000, 8151.000000, 8122.000000
2672, 21463496.000000, 3197.375000, 8166.500000, 8158.000000, 8127.000000
2673, 21463656.000000, 3195.875000, 8156.500000, 8161.500000, 8129.000000
2674, 21463816.000000, 3142.125000, 8150.000000, 8162.000000, 8131.000000
2675, 21463976.000000, 3057.875000, 8143.500000, 8167.000000, 8137.000000
2676, 21464136.000000, 2944.125000, 8284.000000, 8255.000000, 8288.000000
2677, 21464296.000000, 2796.375000, 8527.000000, 8044.500000, 8187.000000
2678, 21464456.000000, 2620.125000, 8024.000000, 8089.500000, 8022.000000
2679, 21464616.000000, 2451.250000, 8078.000000, 8148.000000, 8061.500000
2680, 21464776.000000, 2317.875000, 8146.000000, 8204.500000, 8176.500000
2681, 21464936.000000, 2231.125000, 8170.000000, 8214.000000, 8196.500000
2682, 21465096.000000, 2179.125000, 8167.500000, 8209.000000, 8194.000000
2683, 21465256.000000, 2143.250000, 8172.000000, 8222.500000, 8210.500000
2684, 21465416.000000, 2099.125000, 8185.000000, 8234.000000, 8231.500000
2685, 21465576.000000, 2036.500000, 8197.500000, 8244.500000, 8247.000000
2686, 21465736.000000, 1956.500000, 8228.000000, 8256.000000, 8269.000000
2687, 21465896.000000, 1862.000000, 8251.000000, 8283.500000, 8302.000000
2688, 21466056.000000, 1756.500000, 8269.000000, 8288.500000, 8317.000000
2689, 21466216.000000, 1646.500000, 8256.500000, 8277.000000, 8299.000000
2690, 21466376.000000, 1537.750000, 8227.000000, 8254.000000, 8267.000000
2691, 21466536.000000, 1434.000000, 8183.500000, 8216.500000, 8215.000000
2692, 21466696.000000, 1340.750000, 8139.500000, 8183.500000, 8166.000000
2693, 21466856.000000, 1260.250000, 8132.500000, 8162.500000, 8136.000000
2694, 21467016.000000, 1192.000000, 8136.000000, 8162.500000, 8135.500000
2695, 21467176.000000, 1137.500000, 8146.500000, 8170.500000, 8150.500000
2696, 21467336.000000, 1093.250000, 8154.000000, 8180.500000, 8164.500000
2697, 21467496.000000, 1058.875000, 8156.000000, 8174.000000, 8157.500000
2698, 21467656.000000, 1028.375000, 8160.000000, 8173.500000, 8158.500000
2699, 21467816.000000, 995.250000, 8166.500000, 8181.500000, 8163.000000
2700, 21467976.000000, 973.625000, 8160.000000, 8168.500000, 8151.500000
2701, 21468136.000000, 1021.875000, 8158.000000, 8172.500000, 8155.500000
2702, 21468296.000000, 1238.500000, 8162.500000, 8172.000000, 8158.500000
2703, 21468456.000000, 1629.375000, 8165.500000, 8165.500000, 8150.000000
2704, 21468616.000000, 2113.000000, 8165.000000, 8154.500000, 8138.500000
2705, 21468776.000000, 2554.750000, 8164.500000, 8167.000000, 8155.000000
2706, 21468936.000000, 2883.375000, 8172.500000, 8171.000000, 8152.000000
2707, 21469096.000000, 3066.500000, 8184.000000, 8169.000000, 8160.000000
2708, 21469256.000000, 3137.750000, 8180.500000, 8158.000000, 8153.500000
2709, 21469416.000000, 3098.750000, 8166.000000, 8155.000000, 8146.000000
2710, 21469576.000000, 3013.875000, 8172.500000, 8165.500000, 8155.000000
2711, 21469736.000000, 2895.250000, 8162.000000, 8166.000000, 8161.000000
2712, 21469896.000000, 2702.625000, 8354.000000, 8235.500000, 8313.500000
2713, 21470056.000000, 2461.125000, 8530.000000, 7990.000000, 8148.500000
2714, 21470216.000000, 2250.625000, 8035.500000, 8087.500000, 8020.500000
2715, 21470376.000000, 2094.125000, 8095.000000, 8159.000000, 8092.500000
2716, 21470536.000000, 2006.125000, 8171.000000, 8200.500000, 8207.500000
2717, 21470696.000000, 1959.250000, 8199.500000, 8212.500000, 8235.500000
2718, 21470856.000000, 1932.875000, 8213.500000, 8225.500000, 8255.500000
2719, 21471016.000000, 1908.500000, 8222.500000, 8239.000000, 8278.500000
2720, 21471176.000000, 1865.125000, 8233.500000, 8233.000000, 8275.500000
2721, 21471336.000000, 1786.250000, 8241.500000, 8249.000000, 8295.000000
2722, 21471496.000000, 1688.625000, 8263.500000, 8275.000000, 8323.000000
2723, 21471656.000000, 1599.500000, 8285.000000, 8305.000000, 8360.000000
2724, 21471816.000000, 1509.625000, 8304.000000, 8300.000000, 8359.500000
2725, 21471976.000000, 1428.250000, 8289.500000, 8281.000000, 8342.000000
2726, 21472136.000000, 1355.625000, 8257.000000, 8250.500000, 8294.000000
2727, 21472296.000000, 1291.000000, 8209.000000, 8215.500000, 8237.000000
2728, 21472456.000000, 1239.625000, 8177.500000, 8173.500000, 8180.000000
2729, 21472616.000000, 1198.250000, 8175.000000, 8168.000000, 8181.000000
2730, 21472776.000000, 1166.750000, 8164.500000, 8155.000000, 8148.000000
2731, 21472936.000000, 1145.625000, 8182.000000, 8146.500000, 8133.500000
2732, 21473096.000000, 1131.000000, 8199.500000, 8144.500000, 8137.000000
2733, 21473256.000000, 1109.750000, 8201.500000, 8135.500000, 8129.000000
2734, 21473416.000000, 1089.000000, 8187.500000, 8140.500000, 8122.500000
2735, 21473576.000000, 1129.625000, 8171.000000, 8147.500000, 8125.000000
2736, 21473736.000000, 1317.375000, 8151.500000, 8151.000000, 8123.500000
2737, 21473896.000000, 1690.625000, 8142.000000, 8146.500000, 8115.500000
2738, 21474056.000000, 2168.125000, 8136.000000, 8145.500000, 8111.500000
2739, 21474216.000000, 2628.250000, 8133.000000, 8155.000000, 8119.000000
2740, 21474376.000000, 2977.625000, 8137.000000, 8148.000000, 8117.000000
2741, 21474536.000000, 3185.125000, 8146.000000, 8166.500000, 8140.500000
2742, 21474696.000000, 3273.500000, 8149.000000, 8161.000000, 8127.500000
2743, 21474856.000000, 3281.250000, 8165.000000, 8151.000000, 8125.500000
2744, 21475016.000000, 3248.500000, 8149.500000, 8151.500000, 8125.500000
2745, 21475176.000000, 3185.625000, 8154.500000, 8153.500000, 8132.000000
2746, 21475336.000000, 3086.500000, 8155.500000, 8158.000000, 8139.000000
2747, 21475496.000000, 2943.000000, 8156.000000, 8176.000000, 8166.000000
2748, 21475656.000000, 2768.000000, 8370.000000, 8218.500000, 8299.000000
2749, 21475816.000000, 2590.875000, 8481.500000, 7970.500000, 8107.500000
2750, 21475976.000000, 2435.250000, 8025.500000, 8079.000000, 8005.000000
2751, 21476136.000000, 2317.625000, 8088.000000, 8165.000000, 8091.000000
2752, 21476296.000000, 2237.875000, 8155.500000, 8213.500000, 8193.500000
2753, 21476456.000000, 2179.875000, 8159.500000, 8223.500000, 8212.000000
2754, 21476616.000000, 2121.625000, 8170.000000, 8222.000000, 8213.500000
2755, 21476776.000000, 2047.000000, 8171.000000, 8223.000000, 8210.000000
2756, 21476936.000000, 1960.375000, 8172.500000, 8251.500000, 8251.500000
2757, 21477096.000000, 1867.875000, 8175.500000, 8269.000000, 8264.500000
2758, 21477256.000000, 1772.375000, 8196.000000, 8281.000000, 8290.500000
2759, 21477416.000000, 1676.000000, 8231.000000, 8308.000000, 8330.000000
2760, 21477576.000000, 1572.875000, 8264.000000, 8311.000000, 8352.000000
2761, 21477736.000000, 1470.375000, 8270.000000, 8304.000000, 8346.000000
2762, 21477896.000000, 1376.750000, 8240.500000, 8264.500000, 8294.000000
2763, 21478056.000000, 1294.625000, 8199.500000, 8216.500000, 8231.500000
2764, 21478216.000000, 1226.000000, 8173.000000, 8194.500000, 8197.000000
2765, 21478376.000000, 1171.125000, 8151.000000, 8185.000000, 8179.000000
2766, 21478536.000000, 1127.000000, 8168.500000, 8189.000000, 8188.500000
2767, 21478696.000000, 1089.250000, 8166.000000, 8173.000000, 8167.000000
2768, 21478856.000000, 1057.375000, 8170.000000, 8180.500000, 8184.500000
2769, 21479016.000000, 1023.250000, 8172.000000, 8179.500000, 8183.500000
2770, 21479176.000000, 991.625000, 8168.500000, 8185.000000, 8188.500000
2771, 21479336.000000, 1013.000000, 8169.000000, 8163.000000, 8162.500000
2772, 21479496.000000, 1171.500000, 8170.000000, 8159.000000, 8163.000000
2773, 21479656.000000, 1516.750000, 8168.000000, 8155.500000, 8159.500000
2774, 21479816.000000, 1982.250000, 8171.000000, 8159.500000, 8168.500000
2775, 21479976.000000, 2440.750000, 8163.500000, 8158.000000, 8159.000000
2776, 21480136.000000, 2789.875000, 8178.000000, 8164.000000, 8183.500000
2777, 21480296.000000, 2994.250000, 8183.000000, 8178.500000, 8209.500000
2778, 21480456.000000, 3084.250000, 8191.500000, 8182.500000, 8211.500000
2779, 21480616.000000, 3085.750000, 8195.000000, 8172.500000, 8202.500000
2780, 21480776.000000, 3038.500000, 8203.500000, 8168.500000, 8197.500000
2781, 21480936.000000, 2962.125000, 8199.000000, 8172.500000, 8208.000000
2782, 21481096.000000, 2855.750000, 8194.000000, 8170.000000, 8203.500000
2783, 21481256.000000, 2715.000000, 8205.000000, 8157.500000, 8193.500000
2784, 21481416.000000, 2545.125000, 8184.000000, 8236.500000, 8278.000000
2785, 21481576.000000, 2374.375000, 8724.000000, 8079.000000, 8327.500000
2786, 21481736.000000, 2231.750000, 8120.000000, 8064.500000, 8090.500000
2787, 21481896.000000, 2143.500000, 8084.500000, 8102.500000, 8052.000000
2788, 21482056.000000, 2093.375000, 8159.000000, 8185.000000, 8175.000000
2789, 21482216.000000, 2064.750000, 8199.500000, 8207.000000, 8225.000000
2790, 21482376.000000, 2033.000000, 8192.500000, 8217.500000, 8241.000000
2791, 21482536.000000, 1985.000000, 8222.000000, 8213.000000, 8242.000000
2792, 21482696.000000, 1918.250000, 8241.000000, 8220.500000, 8254.500000
2793, 21482856.000000, 1839.375000, 8249.500000, 8233.500000, 8267.500000
2794, 21483016.000000, 1753.375000, 8264.500000, 8247.500000, 8287.000000
2795, 21483176.000000, 1659.250000, 8281.500000, 8270.500000, 8313.500000
2796, 21483336.000000, 1564.375000, 8298.500000, 8285.500000, 8339.500000
2797, 21483496.000000, 1474.750000, 8304.500000, 8297.000000, 8351.000000
2798, 21483656.000000, 1397.750000, 8278.500000, 8288.000000, 8331.000000
2799, 21483816.000000, 1333.375000, 8225.500000, 8252.000000, 8276.500000
2800, 21483976.000000, 1276.375000, 8171.500000, 8226.500000, 8234.000000
2801, 21484136.000000, 1226.125000, 8154.000000, 8196.000000, 8192.000000
2802, 21484296.000000, 1187.375000, 8151.500000, 8186.500000, 8180.000000
2803, 21484456.000000, 1156.125000, 8160.000000, 8196.500000, 8191.500000
2804, 21484616.000000, 1133.250000, 8159.000000, 8194.500000, 8189.500000
2805, 21484776.000000, 1116.000000, 8162.000000, 8194.500000, 8187.500000
2806, 21484936.000000, 1090.500000, 8166.000000, 8190.000000, 8184.000000
2807, 21485096.000000, 1076.750000, 8162.500000, 8184.500000, 8181.000000
2808, 21485256.000000, 1146.500000, 8160.500000, 8181.500000, 8180.500000
2809, 21485416.000000, 1393.125000, 8159.000000, 8179.000000, 8172.500000
2810, 21485576.000000, 1800.625000, 8156.000000, 8179.500000, 8170.000000
2811, 21485736.000000, 2273.250000, 8154.000000, 8182.500000, 8174.500000
2812, 21485896.000000, 2679.875000, 8161.500000, 8174.000000, 8165.000000
2813, 21486056.000000, 2951.500000, 8158.000000, 8171.500000, 8161.500000
2814, 21486216.000000, 3088.750000, 8160.500000, 8184.000000, 8178.500000
2815, 21486376.000000, 3130.625000, 8142.500000, 8186.000000, 8158.500000
2816, 21486536.000000, 3108.750000, 8147.500000, 8188.500000, 8168.000000
2817, 21486696.000000, 3049.250000, 8138.000000, 8191.000000, 8176.500000
2818, 21486856.000000, 2955.500000, 8135.500000, 8172.500000, 8159.000000
2819, 21487016.000000, 2812.000000, 8149.000000, 8176.500000, 8175.000000
2820, 21487176.000000, 2627.000000, 8145.000000, 8181.000000, 8181.000000
2821, 21487336.000000, 2428.250000, 8301.000000, 8261.000000, 8327.500000
2822, 21487496.000000, 2252.125000, 8622.000000, 8004.000000, 8199.000000
2823, 21487656.000000, 2114.250000, 8021.500000, 8099.000000, 8038.500000
2824, 21487816.000000, 2021.625000, 8078.000000, 8160.500000, 8084.000000
2825, 21487976.000000, 1963.125000, 8153.500000, 8213.500000, 8200.000000
2826, 21488136.000000, 1917.500000, 8180.000000, 8226.000000, 8226.000000
2827, 21488296.000000, 1863.625000, 8185.000000, 8213.500000, 8218.000000
2828, 21488456.000000, 1797.375000, 8193.500000, 8217.500000, 8224.500000
2829, 21488616.000000, 1721.000000, 8201.500000, 8233.000000, 8242.500000
2830, 21488776.000000, 1634.375000, 8225.000000, 8247.000000, 8264.000000
2831, 21488936.000000, 1538.625000, 8240.500000, 8257.500000, 8284.500000
2832, 21489096.000000, 1439.000000, 8266.000000, 8284.000000, 8322.000000
2833, 21489256.000000, 1337.375000, 8277.500000, 8293.500000, 8332.500000
2834, 21489416.000000, 1232.875000, 8281.500000, 8263.000000, 8298.500000
2835, 21489576.000000, 1132.000000, 8254.500000, 8232.500000, 8264.000000
2836, 21489736.000000, 1037.875000, 8198.500000, 8208.500000, 8217.000000
2837, 21489896.000000, 962.750000, 8164.500000, 8186.000000, 8181.000000
2838, 21490056.000000, 912.000000, 8142.500000, 8158.500000, 8149.000000
2839, 21490216.000000, 879.375000, 8147.000000, 8152.000000, 8137.500000
2840, 21490376.000000, 859.125000, 8147.000000, 8167.000000, 8157.000000
2841, 21490536.000000, 844.250000, 8166.500000, 8162.000000, 8157.500000
2842, 21490696.000000, 828.000000, 8161.500000, 8174.000000, 8174.000000
2843, 21490856.000000, 808.625000, 8171.000000, 8147.500000, 8145.000000
2844, 21491016.000000, 821.875000, 8175.000000, 8153.500000, 8149.500000
2845, 21491176.000000, 951.625000, 8171.500000, 8149.500000, 8143.500000
2846, 21491336.000000, 1256.875000, 8175.000000, 8159.500000, 8153.500000
2847, 21491496.000000, 1683.125000, 8181.000000, 8148.000000, 8137.000000
2848, 21491656.000000, 2121.375000, 8166.500000, 8157.500000, 8146.000000
2849, 21491816.000000, 2462.875000, 8156.500000, 8163.000000, 8144.000000
2850, 21491976.000000, 2688.250000, 8162.500000, 8179.000000, 8154.500000
2851, 21492136.000000, 2800.375000, 8180.000000, 8174.500000, 8156.000000
2852, 21492296.000000, 2841.500000, 8186.000000, 8165.500000, 8153.000000
2853, 21492456.000000, 2841.250000, 8177.000000, 8170.000000, 8152.500000
2854, 21492616.000000, 2809.500000, 8172.500000, 8152.500000, 8128.000000
2855, 21492776.000000, 2740.875000, 8192.000000, 8153.500000, 8130.000000
2856, 21492936.000000, 2625.750000, 8238.500000, 8236.500000, 8241.500000
2857, 21493096.000000, 2469.750000, 8654.500000, 8048.500000, 8226.000000
2858, 21493256.000000, 2307.750000, 8004.500000, 8082.000000, 8007.500000
2859, 21493416.000000, 2177.875000, 8033.500000, 8112.500000, 7981.000000
2860, 21493576.000000, 2091.250000, 8101.500000, 8186.000000, 8108.000000
2861, 21493736.000000, 2046.875000, 8135.000000, 8182.000000, 8129.000000
2862, 21493896.000000, 2020.875000, 8146.500000, 8183.500000, 8135.500000
2863, 21494056.000000, 1995.875000, 8160.500000, 8195.500000, 8153.000000
2864, 21494216.000000, 1955.125000, 8180.000000, 8207.500000, 8173.000000
2865, 21494376.000000, 1887.625000, 8191.500000, 8225.500000, 8195.500000
2866, 21494536.000000, 1800.250000, 8202.500000, 8230.000000, 8216.500000
2867, 21494696.000000, 1703.625000, 8226.500000, 8249.000000, 8241.500000
2868, 21494856.000000, 1609.375000, 8261.500000, 8263.000000, 8266.500000
2869, 21495016.000000, 1519.500000, 8243.500000, 8251.500000, 8252.000000
2870, 21495176.000000, 1429.750000, 8214.500000, 8228.500000, 8223.000000
2871, 21495336.000000, 1351.500000, 8170.500000, 8203.500000, 8183.500000
2872, 21495496.000000, 1291.625000, 8132.500000, 8191.500000, 8160.000000
2873, 21495656.000000, 1248.000000, 8115.000000, 8162.000000, 8117.000000
2874, 21495816.000000, 1210.000000, 8108.500000, 8161.000000, 8115.500000
2875, 21495976.000000, 1170.000000, 8127.500000, 8172.000000, 8131.500000
2876, 21496136.000000, 1130.000000, 8129.000000, 8176.500000, 8142.500000
2877, 21496296.000000, 1087.125000, 8134.000000, 8173.500000, 8139.500000
2878, 21496456.000000, 1028.750000, 8130.000000, 8166.000000, 8132.000000
2879, 21496616.000000, 972.000000, 8140.000000, 8163.500000, 8134.500000
2880, 21496776.000000, 972.000000, 8139.000000, 8167.500000, 8141.500000
2881, 21496936.000000, 1119.250000, 8139.500000, 8170.000000, 8144.500000
2882, 21497096.000000, 1428.000000, 8144.500000, 8145.500000, 8118.000000
2883, 21497256.000000, 1850.000000, 8144.500000, 8154.500000, 8127.500000
2884, 21497416.000000, 2265.000000, 8148.000000, 8161.500000, 8130.500000
2885, 21497576.000000, 2583.625000, 8163.500000, 8167.500000, 8134.000000
2886, 21497736.000000, 2773.750000, 8176.000000, 8161.000000, 8138.500000
2887, 21497896.000000, 2852.375000, 8170.500000, 8166.000000, 8150.000000
2888, 21498056.000000, 2857.750000, 8168.000000, 8170.500000, 8153.000000
2889, 21498216.000000, 2817.625000, 8166.500000, 8175.000000, 8157.500000
2890, 21498376.000000, 2742.750000, 8163.000000, 8184.500000, 8168.500000
2891, 21498536.000000, 2624.250000, 8226.000000, 8269.500000, 8292.000000
2892, 21498696.000000, 2461.750000, 8639.000000, 8057.000000, 8252.000000
2893, 21498856.000000, 2277.375000, 8022.500000, 8077.500000, 8028.000000
2894, 21499016.000000, 2106.625000, 8075.000000, 8138.500000, 8059.000000
2895, 21499176.000000, 1976.500000, 8149.500000, 8196.000000, 8174.000000
2896, 21499336.000000, 1890.000000, 8173.000000, 8201.500000, 8196.000000
2897, 21499496.000000, 1842.875000, 8179.000000, 8206.500000, 8216.500000
2898, 21499656.000000, 1819.000000, 8192.500000, 8207.000000, 8219.000000
2899, 21499816.000000, 1797.750000, 8197.500000, 8214.000000, 8224.500000
2900, 21499976.000000, 1754.750000, 8211.000000, 8235.500000, 8244.500000
2901, 21500136.000000, 1682.375000, 8223.500000, 8245.000000, 8265.000000
2902, 21500296.000000, 1585.875000, 8260.000000, 8261.000000, 8301.000000
2903, 21500456.000000, 1481.125000, 8293.000000, 8280.000000, 8340.500000
2904, 21500616.000000, 1377.000000, 8296.500000, 8282.500000, 8346.500000
2905, 21500776.000000, 1285.375000, 8263.000000, 8251.500000, 8300.000000
2906, 21500936.000000, 1210.000000, 8218.000000, 8216.500000, 8259.000000
2907, 21501096.000000, 1156.125000, 8193.500000, 8187.000000, 8213.000000
2908, 21501256.000000, 1118.500000, 8171.000000, 8178.500000, 8189.500000
2909, 21501416.000000, 1093.000000, 8172.000000, 8174.000000, 8177.500000
2910, 21501576.000000, 1076.375000, 8168.000000, 8183.000000, 8193.000000
2911, 21501736.000000, 1064.500000, 8178.000000, 8186.500000, 8198.000000
2912, 21501896.000000, 1054.375000, 8182.000000, 8182.000000, 8195.500000
2913, 21502056.000000, 1036.375000, 8170.000000, 8168.000000, 8153.500000
2914, 21502216.000000, 1023.000000, 8158.000000, 8158.500000, 8136.000000
2915, 21502376.000000, 1074.750000, 8163.000000, 8165.000000, 8141.000000
2916, 21502536.000000, 1265.125000, 8174.500000, 8153.500000, 8132.000000
2917, 21502696.000000, 1609.125000, 8195.000000, 8147.000000, 8130.000000
2918, 21502856.000000, 2023.625000, 8188.000000, 8142.500000, 8120.000000
2919, 21503016.000000, 2406.000000, 8172.500000, 8150.000000, 8124.000000
2920, 21503176.000000, 2687.125000, 8175.500000, 8166.500000, 8131.000000
2921, 21503336.000000, 2845.500000, 8173.500000, 8166.000000, 8140.000000
2922, 21503496.000000, 2913.000000, 8163.500000, 8163.000000, 8136.500000
2923, 21503656.000000, 2918.500000, 8146.000000, 8163.500000, 8138.000000
2924, 21503816.000000, 2891.750000, 8152.000000, 8169.500000, 8144.500000
2925, 21503976.000000, 2835.875000, 8149.500000, 8177.000000, 8153.000000
2926, 21504136.000000, 2737.750000, 8161.000000, 8255.000000, 8248.500000
2927, 21504296.000000, 2598.250000, 8678.000000, 8058.500000, 8259.500000
2928, 21504456.000000, 2435.000000, 8037.500000, 8058.500000, 8021.000000
2929, 21504616.000000, 2281.125000, 8051.500000, 8131.500000, 8042.000000
2930, 21504776.000000, 2150.500000, 8141.000000, 8207.500000, 8170.000000
2931, 21504936.000000, 2054.000000, 8159.000000, 8219.000000, 8200.500000
2932, 21505096.000000, 1991.625000, 8175.000000, 8224.500000, 8218.500000
2933, 21505256.000000, 1947.375000, 8172.000000, 8233.000000, 8228.000000
2934, 21505416.000000, 1901.375000, 8185.000000, 8245.000000, 8239.500000
2935, 21505576.000000, 1841.500000, 8194.000000, 8255.000000, 8255.000000
2936, 21505736.000000, 1762.750000, 8213.500000, 8272.500000, 8286.500000
2937, 21505896.000000, 1673.875000, 8225.500000, 8300.000000, 8320.000000
2938, 21506056.000000, 1582.375000, 8250.000000, 8311.500000, 8340.500000
2939, 21506216.000000, 1488.875000, 8248.000000, 8297.000000, 8321.500000
2940, 21506376.000000, 1398.625000, 8218.000000, 8276.000000, 8293.000000
2941, 21506536.000000, 1316.250000, 8176.000000, 8242.000000, 8243.500000
2942, 21506696.000000, 1244.625000, 8152.000000, 8187.000000, 8173.500000
2943, 21506856.000000, 1179.375000, 8132.500000, 8158.500000, 8142.000000
2944, 21507016.000000, 1121.500000, 8130.500000, 8167.000000, 8148.500000
2945, 21507176.000000, 1078.875000, 8143.000000, 8175.000000, 8154.000000
2946, 21507336.000000, 1051.750000, 8150.500000, 8174.500000, 8155.500000
2947, 21507496.000000, 1027.750000, 8157.000000, 8173.000000, 8156.000000
2948, 21507656.000000, 997.375000, 8168.500000, 8177.000000, 8162.500000
2949, 21507816.000000, 968.625000, 8172.000000, 8175.000000, 8162.000000
2950, 21507976.000000, 994.375000, 8161.000000, 8173.000000, 8153.500000
2951, 21508136.000000, 1141.625000, 8162.500000, 8170.500000, 8153.000000
2952, 21508296.000000, 1437.750000, 8167.500000, 8181.500000, 8162.500000
2953, 21508456.000000, 1833.125000, 8164.500000, 8180.500000, 8165.500000
2954, 21508616.000000, 2226.875000, 8164.500000, 8170.000000, 8155.000000
2955, 21508776.000000, 2530.000000, 8148.500000, 8170.500000, 8145.000000
2956, 21508936.000000, 2724.125000, 8166.000000, 8174.500000, 8151.500000
2957, 21509096.000000, 2821.250000, 8173.500000, 8165.500000, 8146.500000
2958, 21509256.000000, 2853.250000, 8176.000000, 8158.000000, 8147.000000
2959, 21509416.000000, 2844.125000, 8167.500000, 8168.000000, 8158.000000
2960, 21509576.000000, 2797.250000, 8174.000000, 8179.000000, 8168.500000
2961, 21509736.000000, 2704.875000, 8173.500000, 8157.000000, 8154.000000
2962, 21509896.000000, 2566.750000, 8154.500000, 8194.000000, 8198.000000
2963, 21510056.000000, 2394.000000, 8516.000000, 8150.000000, 8295.000000
2964, 21510216.000000, 2219.125000, 8334.000000, 8022.000000, 8115.500000
2965, 21510376.000000, 2074.125000, 8057.000000, 8099.500000, 8048.000000
2966, 21510536.000000, 1975.625000, 8135.000000, 8171.500000, 8144.000000
2967, 21510696.000000, 1921.000000, 8202.500000, 8214.500000, 8243.500000
2968, 21510856.000000, 1886.375000, 8228.000000, 8231.000000, 8263.000000
2969, 21511016.000000, 1851.000000, 8239.000000, 8249.500000, 8295.000000
2970, 21511176.000000, 1803.000000, 8247.500000, 8247.500000, 8292.500000
2971, 21511336.000000, 1739.125000, 8233.000000, 8248.500000, 8285.000000
2972, 21511496.000000, 1666.000000, 8244.500000, 8274.000000, 8318.000000
2973, 21511656.000000, 1587.000000, 8272.000000, 8301.500000, 8355.000000
2974, 21511816.000000, 1506.125000, 8279.500000, 8297.500000, 8333.000000
2975, 21511976.000000, 1432.500000, 8281.000000, 8277.000000, 8295.500000
2976, 21512136.000000, 1368.250000, 8281.000000, 8268.500000, 8286.500000
2977, 21512296.000000, 1315.500000, 8248.500000, 8245.500000, 8250.500000
2978, 21512456.000000, 1268.750000, 8213.500000, 8212.000000, 8211.500000
2979, 21512616.000000, 1224.375000, 8174.000000, 8184.500000, 8167.500000
2980, 21512776.000000, 1184.125000, 8162.500000, 8176.500000, 8155.500000
2981, 21512936.000000, 1148.875000, 8150.500000, 8190.000000, 8159.000000
2982, 21513096.000000, 1120.875000, 8144.000000, 8198.000000, 8171.500000
2983, 21513256.000000, 1097.750000, 8163.000000, 8199.000000, 8182.000000
2984, 21513416.000000, 1070.250000, 8150.000000, 8197.000000, 8174.000000
2985, 21513576.000000, 1035.875000, 8156.500000, 8192.500000, 8172.000000
2986, 21513736.000000, 1028.750000, 8152.500000, 8191.500000, 8163.500000
2987, 21513896.000000, 1127.125000, 8159.000000, 8190.000000, 8170.000000
2988, 21514056.000000, 1372.375000, 8158.500000, 8183.000000, 8162.000000
2989, 21514216.000000, 1746.250000, 8153.000000, 8180.000000, 8155.500000
2990, 21514376.000000, 2148.625000, 8154.000000, 8183.000000, 8157.000000
2991, 21514536.000000, 2484.250000, 8156.000000, 8178.500000, 8154.000000
2992, 21514696.000000, 2709.500000, 8157.000000, 8177.000000, 8153.000000
2993, 21514856.000000, 2823.750000, 8155.000000, 8187.500000, 8154.500000
2994, 21515016.000000, 2866.500000, 8155.000000, 8192.500000, 8159.000000
2995, 21515176.000000, 2867.500000, 8174.000000, 8184.500000, 8172.500000
2996, 21515336.000000, 2840.750000, 8175.000000, 8179.500000, 8167.500000
2997, 21515496.000000, 2782.000000, 8161.000000, 8185.500000, 8169.000000
2998, 21515656.000000, 2674.125000, 8164.000000, 8189.500000, 8176.000000
2999, 21515816.000000, 2522.125000, 8157.500000, 8193.000000, 8181.500000
3000, 21515976.000000, 2348.625000, 8208.500000, 8282.000000, 8303.000000
3001, 21516136.000000, 2193.000000, 8741.000000, 8026.000000, 8258.000000
3002, 21516296.000000, 2074.500000, 8003.500000, 8100.000000, 8051.500000
3003, 21516456.000000, 1997.375000, 8030.500000, 8156.500000, 8053.500000
3004, 21516616.000000, 1946.125000, 8140.000000, 8231.500000, 8216.500000
3005, 21516776.000000, 1909.625000, 8159.000000, 8248.500000, 8240.000000
3006, 21516936.000000, 1863.375000, 8153.000000, 8253.500000, 8249.000000
3007, 21517096.000000, 1805.125000, 8163.500000, 8271.000000, 8270.000000
3008, 21517256.000000, 1729.750000, 8186.500000, 8266.500000, 8273.000000
3009, 21517416.000000, 1643.125000, 8204.500000, 8278.000000, 8294.000000
3010, 21517576.000000, 1556.625000, 8230.000000, 8299.000000, 8321.500000
3011, 21517736.000000, 1468.125000, 8248.500000, 8314.500000, 8349.000000
3012, 21517896.000000, 1385.125000, 8256.500000, 8324.000000, 8357.000000
3013, 21518056.000000, 1310.500000, 8279.000000, 8293.500000, 8332.500000
3014, 21518216.000000, 1245.000000, 8260.500000, 8273.000000, 8307.500000
3015, 21518376.000000, 1187.875000, 8217.500000, 8237.500000, 8255.500000
