1395, 24942880.000000, 1971.000000, 8602.000000, 8059.000000, 8255.000000
1396, 24943040.000000, 1908.000000, 8032.000000, 8024.000000, 7985.000000
1397, 24943200.000000, 1871.000000, 8069.000000, 8126.000000, 8029.000000
1398, 24943360.000000, 1842.000000, 8155.000000, 8217.000000, 8192.000000
1399, 24943520.000000, 1806.500000, 8175.000000, 8226.000000, 8216.000000
1400, 24943680.000000, 1755.000000, 8186.000000, 8230.000000, 8225.000000
1401, 24943840.000000, 1689.000000, 8195.000000, 8241.000000, 8240.000000
1402, 24944000.000000, 1614.000000, 8202.000000, 8253.000000, 8257.000000
1403, 24944160.000000, 1534.000000, 8216.000000, 8273.000000, 8284.000000
1404, 24944320.000000, 1455.000000, 8225.000000, 8297.000000, 8304.000000
1405, 24944480.000000, 1383.500000, 8247.000000, 8329.000000, 8361.000000
1406, 24944640.000000, 1321.000000, 8254.000000, 8341.000000, 8369.000000
1407, 24944800.000000, 1270.000000, 8260.000000, 8335.000000, 8363.000000
1408, 24944960.000000, 1230.000000, 8235.000000, 8286.000000, 8302.000000
1409, 24945120.000000, 1199.500000, 8194.000000, 8236.000000, 8244.000000
1410, 24945280.000000, 1180.000000, 8157.000000, 8189.000000, 8177.000000
1411, 24945440.000000, 1167.500000, 8154.000000, 8166.000000, 8146.000000
1412, 24945600.000000, 1162.000000, 8141.000000, 8168.000000, 8143.000000
1413, 24945760.000000, 1165.500000, 8152.000000, 8174.000000, 8155.000000
1414, 24945920.000000, 1178.000000, 8160.000000, 8170.000000, 8162.000000
1415, 24946080.000000, 1204.500000, 8175.000000, 8181.000000, 8185.000000
1416, 24946240.000000, 1249.000000, 8182.000000, 8180.000000, 8192.000000
1417, 24946400.000000, 1292.500000, 8178.000000, 8181.000000, 8191.000000
1418, 24946560.000000, 1340.000000, 8178.000000, 8176.000000, 8184.000000
1419, 24946720.000000, 1466.000000, 8174.000000, 8175.000000, 8182.000000
1420, 24946880.000000, 1756.000000, 8171.000000, 8172.000000, 8175.000000
1421, 24947040.000000, 2202.500000, 8176.000000, 8173.000000, 8175.000000
1422, 24947200.000000, 2668.000000, 8178.000000, 8179.000000, 8183.000000
1423, 24947360.000000, 3008.000000, 8165.000000, 8178.000000, 8175.000000
1424, 24947520.000000, 3201.000000, 8173.000000, 8171.000000, 8168.000000
1425, 24947680.000000, 3269.500000, 8167.000000, 8174.000000, 8169.000000
1426, 24947840.000000, 3269.000000, 8172.000000, 8190.000000, 8178.000000
1427, 24948000.000000, 3229.000000, 8180.000000, 8179.000000, 8178.000000
1428, 24948160.000000, 3148.000000, 8179.000000, 8185.000000, 8185.000000
1429, 24948320.000000, 3006.000000, 8175.000000, 8181.000000, 8179.000000
1430, 24948480.000000, 2825.000000, 8175.000000, 8174.000000, 8166.000000
1431, 24948640.000000, 2648.000000, 8179.000000, 8183.000000, 8180.000000
1432, 24948800.000000, 2497.000000, 8244.000000, 8270.000000, 8304.000000
1433, 24948960.000000, 2373.500000, 8556.000000, 8058.000000, 8244.000000
1434, 24949120.000000, 2280.000000, 8034.000000, 8091.000000, 8045.000000
1435, 24949280.000000, 2227.000000, 8093.000000, 8153.000000, 8074.000000
1436, 24949440.000000, 2205.000000, 8165.000000, 8216.000000, 8205.000000
1437, 24949600.000000, 2180.500000, 8182.000000, 8224.000000, 8221.000000
1438, 24949760.000000, 2138.000000, 8194.000000, 8230.000000, 8234.000000
1439, 24949920.000000, 2076.000000, 8197.000000, 8241.000000, 8247.000000
1440, 24950080.000000, 2002.000000, 8215.000000, 8250.000000, 8264.000000
1441, 24950240.000000, 1915.000000, 8222.000000, 8265.000000, 8280.000000
1442, 24950400.000000, 1826.000000, 8246.000000, 8292.000000, 8319.000000
1443, 24950560.000000, 1741.500000, 8272.000000, 8316.000000, 8352.000000
1444, 24950720.000000, 1661.000000, 8279.000000, 8322.000000, 8361.000000
1445, 24950880.000000, 1578.500000, 8268.000000, 8308.000000, 8338.000000
1446, 24951040.000000, 1493.000000, 8241.000000, 8271.000000, 8295.000000
1447, 24951200.000000, 1407.000000, 8201.000000, 8232.000000, 8241.000000
1448, 24951360.000000, 1335.000000, 8168.000000, 8196.000000, 8189.000000
1449, 24951520.000000, 1278.500000, 8158.000000, 8177.000000, 8166.000000
1450, 24951680.000000, 1228.000000, 8167.000000, 8174.000000, 8165.000000
1451, 24951840.000000, 1192.000000, 8161.000000, 8182.000000, 8171.000000
1452, 24952000.000000, 1166.000000, 8162.000000, 8185.000000, 8176.000000
1453, 24952160.000000, 1142.500000, 8165.000000, 8172.000000, 8163.000000
1454, 24952320.000000, 1112.000000, 8174.000000, 8173.000000, 8170.000000
1455, 24952480.000000, 1079.000000, 8179.000000, 8174.000000, 8169.000000
1456, 24952640.000000, 1086.000000, 8165.000000, 8169.000000, 8160.000000
1457, 24952800.000000, 1198.000000, 8166.000000, 8168.000000, 8158.000000
1458, 24952960.000000, 1434.000000, 8163.000000, 8168.000000, 8160.000000
1459, 24953120.000000, 1750.000000, 8165.000000, 8167.000000, 8156.000000
1460, 24953280.000000, 2069.000000, 8175.000000, 8169.000000, 8159.000000
1461, 24953440.000000, 2304.000000, 8161.000000, 8163.000000, 8148.000000
1462, 24953600.000000, 2437.000000, 8160.000000, 8163.000000, 8149.000000
1463, 24953760.000000, 2465.000000, 8165.000000, 8182.000000, 8163.000000
1464, 24953920.000000, 2428.000000, 8171.000000, 8172.000000, 8155.000000
1465, 24954080.000000, 2337.500000, 8177.000000, 8178.000000, 8165.000000
1466, 24954240.000000, 2207.000000, 8170.000000, 8171.000000, 8160.000000
1467, 24954400.000000, 2049.500000, 8166.000000, 8166.000000, 8152.000000
1468, 24954560.000000, 1876.000000, 8172.000000, 8168.000000, 8158.000000
1469, 24954720.000000, 1714.500000, 8184.000000, 8249.000000, 8253.000000
1470, 24954880.000000, 1590.000000, 8654.000000, 8084.000000, 8293.000000
1471, 24955040.000000, 1516.000000, 8025.000000, 8105.000000, 8069.000000
1472, 24955200.000000, 1475.000000, 8068.000000, 8134.000000, 8039.000000
1473, 24955360.000000, 1454.500000, 8148.000000, 8200.000000, 8168.000000
1474, 24955520.000000, 1428.000000, 8176.000000, 8209.000000, 8196.000000
1475, 24955680.000000, 1386.000000, 8192.000000, 8215.000000, 8208.000000
1476, 24955840.000000, 1334.000000, 8201.000000, 8212.000000, 8207.000000
1477, 24956000.000000, 1279.000000, 8214.000000, 8224.000000, 8228.000000
1478, 24956160.000000, 1220.000000, 8233.000000, 8242.000000, 8252.000000
1479, 24956320.000000, 1149.000000, 8257.000000, 8261.000000, 8277.000000
1480, 24956480.000000, 1077.000000, 8282.000000, 8298.000000, 8331.000000
1481, 24956640.000000, 1010.500000, 8302.000000, 8308.000000, 8342.000000
1482, 24956800.000000, 950.000000, 8298.000000, 8308.000000, 8342.000000
1483, 24956960.000000, 889.500000, 8265.000000, 8280.000000, 8304.000000
1484, 24957120.000000, 835.000000, 8211.000000, 8251.000000, 8255.000000
1485, 24957280.000000, 789.500000, 8180.000000, 8205.000000, 8198.000000
1486, 24957440.000000, 758.000000, 8154.000000, 8188.000000, 8168.000000
1487, 24957600.000000, 733.500000, 8154.000000, 8184.000000, 8162.000000
1488, 24957760.000000, 713.000000, 8150.000000, 8183.000000, 8160.000000
1489, 24957920.000000, 700.000000, 8156.000000, 8183.000000, 8166.000000
1490, 24958080.000000, 697.000000, 8164.000000, 8184.000000, 8169.000000
1491, 24958240.000000, 699.000000, 8165.000000, 8190.000000, 8173.000000
1492, 24958400.000000, 697.000000, 8159.000000, 8180.000000, 8159.000000
1493, 24958560.000000, 710.000000, 8158.000000, 8173.000000, 8156.000000
1494, 24958720.000000, 787.000000, 8162.000000, 8175.000000, 8158.000000
1495, 24958880.000000, 1007.500000, 8161.000000, 8176.000000, 8155.000000
1496, 24959040.000000, 1335.000000, 8166.000000, 8171.000000, 8151.000000
1497, 24959200.000000, 1693.500000, 8160.000000, 8170.000000, 8148.000000
1498, 24959360.000000, 1987.000000, 8168.000000, 8178.000000, 8153.000000
1499, 24959520.000000, 2177.000000, 8180.000000, 8168.000000, 8151.000000
1500, 24959680.000000, 2276.000000, 8170.000000, 8161.000000, 8142.000000
1501, 24959840.000000, 2299.000000, 8167.000000, 8176.000000, 8161.000000
1502, 24960000.000000, 2277.000000, 8167.000000, 8179.000000, 8160.000000
1503, 24960160.000000, 2206.500000, 8167.000000, 8170.000000, 8147.000000
1504, 24960320.000000, 2101.000000, 8252.000000, 8242.000000, 8261.000000
1505, 24960480.000000, 1976.000000, 8552.000000, 8098.000000, 8259.000000
1506, 24960640.000000, 1864.000000, 8015.000000, 8130.000000, 8081.000000
1507, 24960800.000000, 1787.000000, 8080.000000, 8133.000000, 8038.000000
1508, 24960960.000000, 1747.000000, 8157.000000, 8193.000000, 8163.000000
1509, 24961120.000000, 1729.000000, 8177.000000, 8202.000000, 8187.000000
1510, 24961280.000000, 1725.000000, 8194.000000, 8207.000000, 8198.000000
1511, 24961440.000000, 1733.000000, 8201.000000, 8211.000000, 8202.000000
1512, 24961600.000000, 1742.000000, 8217.000000, 8222.000000, 8222.000000
1513, 24961760.000000, 1738.000000, 8232.000000, 8234.000000, 8242.000000
1514, 24961920.000000, 1720.000000, 8247.000000, 8252.000000, 8266.000000
1515, 24962080.000000, 1697.000000, 8278.000000, 8270.000000, 8292.000000
1516, 24962240.000000, 1680.000000, 8287.000000, 8281.000000, 8307.000000
1517, 24962400.000000, 1664.000000, 8288.000000, 8265.000000, 8290.000000
1518, 24962560.000000, 1643.000000, 8240.000000, 8252.000000, 8269.000000
1519, 24962720.000000, 1608.000000, 8190.000000, 8217.000000, 8217.000000
1520, 24962880.000000, 1577.000000, 8154.000000, 8187.000000, 8169.000000
1521, 24963040.000000, 1563.500000, 8140.000000, 8178.000000, 8151.000000
1522, 24963200.000000, 1551.000000, 8150.000000, 8176.000000, 8159.000000
1523, 24963360.000000, 1521.500000, 8144.000000, 8179.000000, 8160.000000
1524, 24963520.000000, 1483.000000, 8154.000000, 8180.000000, 8164.000000
1525, 24963680.000000, 1473.000000, 8158.000000, 8180.000000, 8161.000000
1526, 24963840.000000, 1500.000000, 8163.000000, 8174.000000, 8158.000000
1527, 24964000.000000, 1539.000000, 8157.000000, 8174.000000, 8156.000000
1528, 24964160.000000, 1564.000000, 8156.000000, 8175.000000, 8156.000000
1529, 24964320.000000, 1600.000000, 8149.000000, 8173.000000, 8148.000000
1530, 24964480.000000, 1738.000000, 8151.000000, 8172.000000, 8144.000000
1531, 24964640.000000, 2015.500000, 8150.000000, 8172.000000, 8149.000000
1532, 24964800.000000, 2378.000000, 8150.000000, 8172.000000, 8149.000000
1533, 24964960.000000, 2702.000000, 8150.000000, 8184.000000, 8153.000000
1534, 24965120.000000, 2906.000000, 8164.000000, 8175.000000, 8152.000000
1535, 24965280.000000, 2959.000000, 8174.000000, 8171.000000, 8156.000000
1536, 24965440.000000, 2932.000000, 8139.000000, 8179.000000, 8153.000000
1537, 24965600.000000, 2864.500000, 8151.000000, 8176.000000, 8156.000000
1538, 24965760.000000, 2769.000000, 8146.000000, 8182.000000, 8161.000000
1539, 24965920.000000, 2636.000000, 8369.000000, 8251.000000, 8326.000000
1540, 24966080.000000, 2468.000000, 8372.000000, 8060.000000, 8167.000000
1541, 24966240.000000, 2280.500000, 8016.000000, 8110.000000, 8036.000000
1542, 24966400.000000, 2106.000000, 8084.000000, 8166.000000, 8087.000000
1543, 24966560.000000, 1977.000000, 8153.000000, 8211.000000, 8190.000000
1544, 24966720.000000, 1893.000000, 8165.000000, 8212.000000, 8201.000000
1545, 24966880.000000, 1832.500000, 8177.000000, 8220.000000, 8211.000000
1546, 24967040.000000, 1776.000000, 8184.000000, 8222.000000, 8218.000000
1547, 24967200.000000, 1716.000000, 8196.000000, 8232.000000, 8234.000000
1548, 24967360.000000, 1656.000000, 8214.000000, 8258.000000, 8270.000000
1549, 24967520.000000, 1589.000000, 8236.000000, 8278.000000, 8298.000000
1550, 24967680.000000, 1513.000000, 8264.000000, 8304.000000, 8333.000000
1551, 24967840.000000, 1429.500000, 8266.000000, 8299.000000, 8329.000000
1552, 24968000.000000, 1350.000000, 8267.000000, 8281.000000, 8310.000000
1553, 24968160.000000, 1277.000000, 8225.000000, 8247.000000, 8262.000000
1554, 24968320.000000, 1207.000000, 8187.000000, 8208.000000, 8206.000000
1555, 24968480.000000, 1131.500000, 8157.000000, 8167.000000, 8147.000000
1556, 24968640.000000, 1055.000000, 8149.000000, 8182.000000, 8161.000000
1557, 24968800.000000, 984.500000, 8156.000000, 8188.000000, 8171.000000
1558, 24968960.000000, 932.000000, 8154.000000, 8179.000000, 8161.000000
1559, 24969120.000000, 892.000000, 8153.000000, 8182.000000, 8163.000000
1560, 24969280.000000, 842.000000, 8157.000000, 8182.000000, 8162.000000
1561, 24969440.000000, 761.500000, 8156.000000, 8185.000000, 8166.000000
1562, 24969600.000000, 675.000000, 8154.000000, 8180.000000, 8164.000000
1563, 24969760.000000, 639.500000, 8150.000000, 8178.000000, 8155.000000
1564, 24969920.000000, 716.000000, 8156.000000, 8175.000000, 8152.000000
1565, 24970080.000000, 939.500000, 8151.000000, 8176.000000, 8158.000000
1566, 24970240.000000, 1247.000000, 8147.000000, 8171.000000, 8152.000000
1567, 24970400.000000, 1567.000000, 8160.000000, 8170.000000, 8156.000000
1568, 24970560.000000, 1835.000000, 8168.000000, 8165.000000, 8148.000000
1569, 24970720.000000, 2015.000000, 8174.000000, 8159.000000, 8144.000000
1570, 24970880.000000, 2112.000000, 8165.000000, 8164.000000, 8147.000000
1571, 24971040.000000, 2136.000000, 8166.000000, 8161.000000, 8141.000000
1572, 24971200.000000, 2109.000000, 8169.000000, 8167.000000, 8155.000000
1573, 24971360.000000, 2043.500000, 8154.000000, 8207.000000, 8201.000000
1574, 24971520.000000, 1956.000000, 8494.000000, 8161.000000, 8291.000000
1575, 24971680.000000, 1851.500000, 8236.000000, 8049.000000, 8103.000000
1576, 24971840.000000, 1743.000000, 8040.000000, 8099.000000, 8015.000000
1577, 24972000.000000, 1649.000000, 8117.000000, 8170.000000, 8107.000000
1578, 24972160.000000, 1579.000000, 8178.000000, 8209.000000, 8199.000000
1579, 24972320.000000, 1537.500000, 8183.000000, 8210.000000, 8203.000000
1580, 24972480.000000, 1521.000000, 8192.000000, 8219.000000, 8218.000000
1581, 24972640.000000, 1525.500000, 8195.000000, 8234.000000, 8237.000000
1582, 24972800.000000, 1531.000000, 8210.000000, 8242.000000, 8249.000000
1583, 24972960.000000, 1516.000000, 8229.000000, 8263.000000, 8279.000000
1584, 24973120.000000, 1471.000000, 8256.000000, 8296.000000, 8326.000000
1585, 24973280.000000, 1399.000000, 8268.000000, 8316.000000, 8348.000000
1586, 24973440.000000, 1332.000000, 8276.000000, 8314.000000, 8349.000000
1587, 24973600.000000, 1295.500000, 8257.000000, 8284.000000, 8312.000000
1588, 24973760.000000, 1280.000000, 8216.000000, 8244.000000, 8259.000000
1589, 24973920.000000, 1257.000000, 8178.000000, 8206.000000, 8206.000000
1590, 24974080.000000, 1224.000000, 8157.000000, 8173.000000, 8159.000000
1591, 24974240.000000, 1202.500000, 8159.000000, 8163.000000, 8150.000000
1592, 24974400.000000, 1200.000000, 8154.000000, 8168.000000, 8156.000000
1593, 24974560.000000, 1195.500000, 8157.000000, 8174.000000, 8166.000000
1594, 24974720.000000, 1180.000000, 8164.000000, 8177.000000, 8168.000000
1595, 24974880.000000, 1162.000000, 8165.000000, 8175.000000, 8164.000000
1596, 24975040.000000, 1144.000000, 8162.000000, 8168.000000, 8159.000000
1597, 24975200.000000, 1129.000000, 8166.000000, 8170.000000, 8160.000000
1598, 24975360.000000, 1148.000000, 8164.000000, 8170.000000, 8159.000000
1599, 24975520.000000, 1273.500000, 8163.000000, 8169.000000, 8155.000000
1600, 24975680.000000, 1512.000000, 8156.000000, 8163.000000, 8152.000000
1601, 24975840.000000, 1834.000000, 8159.000000, 8165.000000, 8150.000000
1602, 24976000.000000, 2162.000000, 8168.000000, 8182.000000, 8165.000000
1603, 24976160.000000, 2425.000000, 8181.000000, 8174.000000, 8166.000000
1604, 24976320.000000, 2586.000000, 8169.000000, 8166.000000, 8152.000000
1605, 24976480.000000, 2648.000000, 8155.000000, 8168.000000, 8151.000000
1606, 24976640.000000, 2651.000000, 8165.000000, 8179.000000, 8172.000000
1607, 24976800.000000, 2625.000000, 8172.000000, 8174.000000, 8170.000000
1608, 24976960.000000, 2584.000000, 8198.000000, 8264.000000, 8285.000000
1609, 24977120.000000, 2511.500000, 8675.000000, 8051.000000, 8276.000000
1610, 24977280.000000, 2408.000000, 8028.000000, 8087.000000, 8047.000000
1611, 24977440.000000, 2299.500000, 8066.000000, 8135.000000, 8052.000000
1612, 24977600.000000, 2206.000000, 8152.000000, 8214.000000, 8199.000000
1613, 24977760.000000, 2129.500000, 8177.000000, 8224.000000, 8221.000000
1614, 24977920.000000, 2066.000000, 8180.000000, 8222.000000, 8221.000000
1615, 24978080.000000, 2010.500000, 8179.000000, 8228.000000, 8223.000000
1616, 24978240.000000, 1953.000000, 8187.000000, 8239.000000, 8237.000000
1617, 24978400.000000, 1877.500000, 8217.000000, 8256.000000, 8268.000000
1618, 24978560.000000, 1777.000000, 8238.000000, 8276.000000, 8302.000000
1619, 24978720.000000, 1661.000000, 8264.000000, 8309.000000, 8340.000000
1620, 24978880.000000, 1534.000000, 8281.000000, 8338.000000, 8376.000000
1621, 24979040.000000, 1400.000000, 8282.000000, 8336.000000, 8375.000000
1622, 24979200.000000, 1271.000000, 8249.000000, 8299.000000, 8328.000000
1623, 24979360.000000, 1150.500000, 8203.000000, 8252.000000, 8264.000000
1624, 24979520.000000, 1035.000000, 8165.000000, 8209.000000, 8206.000000
1625, 24979680.000000, 930.000000, 8152.000000, 8192.000000, 8181.000000
1626, 24979840.000000, 840.000000, 8138.000000, 8181.000000, 8158.000000
1627, 24980000.000000, 760.000000, 8128.000000, 8186.000000, 8155.000000
1628, 24980160.000000, 679.000000, 8138.000000, 8204.000000, 8181.000000
1629, 24980320.000000, 597.500000, 8151.000000, 8277.000000, 8257.000000
1630, 24980480.000000, 528.000000, 8146.000000, 8315.000000, 8294.000000
1631, 24980640.000000, 476.500000, 8144.000000, 8316.000000, 8295.000000
1632, 24980800.000000, 453.000000, 8148.000000, 8314.000000, 8294.000000
1633, 24980960.000000, 504.000000, 8158.000000, 8303.000000, 8286.000000
1634, 24981120.000000, 672.000000, 8153.000000, 8291.000000, 8274.000000
1635, 24981280.000000, 946.500000, 8151.000000, 8287.000000, 8269.000000
1636, 24981440.000000, 1273.000000, 8166.000000, 8291.000000, 8275.000000
1637, 24981600.000000, 1574.500000, 8173.000000, 8280.000000, 8265.000000
1638, 24981760.000000, 1808.000000, 8178.000000, 8270.000000, 8264.000000
1639, 24981920.000000, 1932.500000, 8179.000000, 8263.000000, 8260.000000
1640, 24982080.000000, 1980.000000, 8179.000000, 8253.000000, 8253.000000
1641, 24982240.000000, 1982.000000, 8174.000000, 8249.000000, 8250.000000
1642, 24982400.000000, 1971.000000, 8167.000000, 8315.000000, 8329.000000
1643, 24982560.000000, 1936.500000, 8668.000000, 8165.000000, 8379.000000
1644, 24982720.000000, 1868.000000, 8080.000000, 8125.000000, 8122.000000
1645, 24982880.000000, 1774.500000, 8060.000000, 8154.000000, 8071.000000
1646, 24983040.000000, 1686.000000, 8142.000000, 8246.000000, 8216.000000
1647, 24983200.000000, 1629.000000, 8179.000000, 8266.000000, 8263.000000
1648, 24983360.000000, 1596.000000, 8190.000000, 8269.000000, 8273.000000
1649, 24983520.000000, 1581.500000, 8200.000000, 8271.000000, 8279.000000
1650, 24983680.000000, 1573.000000, 8203.000000, 8282.000000, 8288.000000
1651, 24983840.000000, 1567.000000, 8207.000000, 8295.000000, 8308.000000
1652, 24984000.000000, 1554.000000, 8230.000000, 8316.000000, 8340.000000
1653, 24984160.000000, 1528.500000, 8262.000000, 8339.000000, 8373.000000
1654, 24984320.000000, 1493.000000, 8285.000000, 8345.000000, 8390.000000
1655, 24984480.000000, 1472.000000, 8272.000000, 8333.000000, 8373.000000
1656, 24984640.000000, 1472.000000, 8269.000000, 8301.000000, 8339.000000
1657, 24984800.000000, 1477.500000, 8217.000000, 8263.000000, 8283.000000
1658, 24984960.000000, 1457.000000, 8174.000000, 8221.000000, 8222.000000
1659, 24985120.000000, 1414.500000, 8156.000000, 8197.000000, 8188.000000
1660, 24985280.000000, 1372.000000, 8150.000000, 8188.000000, 8175.000000
1661, 24985440.000000, 1345.500000, 8157.000000, 8192.000000, 8182.000000
1662, 24985600.000000, 1324.000000, 8158.000000, 8188.000000, 8177.000000
1663, 24985760.000000, 1297.500000, 8162.000000, 8189.000000, 8182.000000
1664, 24985920.000000, 1262.000000, 8160.000000, 8189.000000, 8181.000000
1665, 24986080.000000, 1216.500000, 8158.000000, 8176.000000, 8163.000000
1666, 24986240.000000, 1190.000000, 8164.000000, 8179.000000, 8170.000000
1667, 24986400.000000, 1229.500000, 8154.000000, 8170.000000, 8154.000000
1668, 24986560.000000, 1368.000000, 8159.000000, 8167.000000, 8152.000000
1669, 24986720.000000, 1604.000000, 8156.000000, 8166.000000, 8151.000000
1670, 24986880.000000, 1890.000000, 8161.000000, 8182.000000, 8171.000000
1671, 24987040.000000, 2169.000000, 8162.000000, 8182.000000, 8167.000000
1672, 24987200.000000, 2389.000000, 8174.000000, 8174.000000, 8163.000000
1673, 24987360.000000, 2517.000000, 8168.000000, 8174.000000, 8165.000000
1674, 24987520.000000, 2562.000000, 8166.000000, 8174.000000, 8164.000000
1675, 24987680.000000, 2545.000000, 8166.000000, 8174.000000, 8162.000000
1676, 24987840.000000, 2490.000000, 8152.000000, 8195.000000, 8186.000000
1677, 24988000.000000, 2408.000000, 8426.000000, 8207.000000, 8312.000000
1678, 24988160.000000, 2310.000000, 8407.000000, 7979.000000, 8103.000000
1679, 24988320.000000, 2191.500000, 8022.000000, 8080.000000, 7990.000000
1680, 24988480.000000, 2070.000000, 8094.000000, 8168.000000, 8094.000000
1681, 24988640.000000, 1961.500000, 8154.000000, 8213.000000, 8197.000000
1682, 24988800.000000, 1872.000000, 8169.000000, 8217.000000, 8207.000000
1683, 24988960.000000, 1800.500000, 8183.000000, 8220.000000, 8213.000000
1684, 24989120.000000, 1737.000000, 8193.000000, 8220.000000, 8224.000000
1685, 24989280.000000, 1679.500000, 8204.000000, 8230.000000, 8237.000000
1686, 24989440.000000, 1620.000000, 8217.000000, 8257.000000, 8271.000000
1687, 24989600.000000, 1552.500000, 8245.000000, 8289.000000, 8311.000000
1688, 24989760.000000, 1466.000000, 8260.000000, 8304.000000, 8338.000000
1689, 24989920.000000, 1366.000000, 8278.000000, 8304.000000, 8346.000000
1690, 24990080.000000, 1266.000000, 8265.000000, 8285.000000, 8319.000000
1691, 24990240.000000, 1186.000000, 8218.000000, 8243.000000, 8261.000000
1692, 24990400.000000, 1125.000000, 8183.000000, 8202.000000, 8205.000000
1693, 24990560.000000, 1078.500000, 8162.000000, 8172.000000, 8167.000000
1694, 24990720.000000, 1044.000000, 8155.000000, 8160.000000, 8149.000000
1695, 24990880.000000, 1027.000000, 8155.000000, 8158.000000, 8141.000000
1696, 24991040.000000, 1019.000000, 8156.000000, 8161.000000, 8146.000000
1697, 24991200.000000, 1014.000000, 8166.000000, 8161.000000, 8149.000000
1698, 24991360.000000, 1010.000000, 8162.000000, 8159.000000, 8144.000000
1699, 24991520.000000, 1006.000000, 8161.000000, 8156.000000, 8137.000000
1700, 24991680.000000, 1014.000000, 8161.000000, 8156.000000, 8137.000000
1701, 24991840.000000, 1082.000000, 8167.000000, 8154.000000, 8133.000000
1702, 24992000.000000, 1240.000000, 8162.000000, 8150.000000, 8133.000000
1703, 24992160.000000, 1514.000000, 8157.000000, 8151.000000, 8129.000000
1704, 24992320.000000, 1832.000000, 8150.000000, 8151.000000, 8122.000000
1705, 24992480.000000, 2136.500000, 8174.000000, 8173.000000, 8156.000000
1706, 24992640.000000, 2375.000000, 8180.000000, 8160.000000, 8145.000000
1707, 24992800.000000, 2526.500000, 8180.000000, 8159.000000, 8142.000000
1708, 24992960.000000, 2598.000000, 8163.000000, 8158.000000, 8132.000000
1709, 24993120.000000, 2614.500000, 8167.000000, 8162.000000, 8141.000000
1710, 24993280.000000, 2613.000000, 8168.000000, 8165.000000, 8146.000000
1711, 24993440.000000, 2602.000000, 8230.000000, 8252.000000, 8270.000000
1712, 24993600.000000, 2571.000000, 8659.000000, 8023.000000, 8225.000000
1713, 24993760.000000, 2508.000000, 8032.000000, 8075.000000, 8022.000000
1714, 24993920.000000, 2423.000000, 8077.000000, 8129.000000, 8038.000000
1715, 24994080.000000, 2337.500000, 8158.000000, 8202.000000, 8175.000000
1716, 24994240.000000, 2271.000000, 8185.000000, 8207.000000, 8196.000000
1717, 24994400.000000, 2240.500000, 8186.000000, 8215.000000, 8210.000000
1718, 24994560.000000, 2237.000000, 8194.000000, 8221.000000, 8221.000000
1719, 24994720.000000, 2241.500000, 8207.000000, 8235.000000, 8240.000000
1720, 24994880.000000, 2234.000000, 8228.000000, 8252.000000, 8265.000000
1721, 24995040.000000, 2203.000000, 8246.000000, 8279.000000, 8302.000000
1722, 24995200.000000, 2155.000000, 8269.000000, 8288.000000, 8318.000000
1723, 24995360.000000, 2109.000000, 8276.000000, 8300.000000, 8335.000000
1724, 24995520.000000, 2065.000000, 8280.000000, 8288.000000, 8320.000000
1725, 24995680.000000, 2015.500000, 8245.000000, 8255.000000, 8277.000000
1726, 24995840.000000, 1955.000000, 8199.000000, 8209.000000, 8215.000000
1727, 24996000.000000, 1889.000000, 8158.000000, 8176.000000, 8163.000000
1728, 24996160.000000, 1830.000000, 8145.000000, 8163.000000, 8141.000000
1729, 24996320.000000, 1788.000000, 8149.000000, 8161.000000, 8138.000000
1730, 24996480.000000, 1759.000000, 8143.000000, 8160.000000, 8135.000000
1731, 24996640.000000, 1733.500000, 8154.000000, 8158.000000, 8138.000000
1732, 24996800.000000, 1694.000000, 8158.000000, 8162.000000, 8141.000000
1733, 24996960.000000, 1642.500000, 8164.000000, 8158.000000, 8145.000000
1734, 24997120.000000, 1592.000000, 8149.000000, 8151.000000, 8128.000000
1735, 24997280.000000, 1566.500000, 8152.000000, 8154.000000, 8133.000000
1736, 24997440.000000, 1604.000000, 8154.000000, 8155.000000, 8135.000000
1737, 24997600.000000, 1750.000000, 8152.000000, 8149.000000, 8128.000000
1738, 24997760.000000, 1992.000000, 8154.000000, 8152.000000, 8120.000000
1739, 24997920.000000, 2270.000000, 8172.000000, 8139.000000, 8123.000000
1740, 24998080.000000, 2521.000000, 8156.000000, 8140.000000, 8119.000000
1741, 24998240.000000, 2699.000000, 8152.000000, 8136.000000, 8117.000000
1742, 24998400.000000, 2800.000000, 8157.000000, 8145.000000, 8125.000000
1743, 24998560.000000, 2811.500000, 8155.000000, 8150.000000, 8133.000000
1744, 24998720.000000, 2770.000000, 8275.000000, 8228.000000, 8268.000000
1745, 24998880.000000, 2699.500000, 8537.000000, 8037.000000, 8198.000000
1746, 24999040.000000, 2617.000000, 8009.000000, 8087.000000, 8026.000000
1747, 24999200.000000, 2517.000000, 8058.000000, 8108.000000, 8006.000000
1748, 24999360.000000, 2399.000000, 8127.000000, 8167.000000, 8123.000000
1749, 24999520.000000, 2272.500000, 8149.000000, 8176.000000, 8143.000000
1750, 24999680.000000, 2153.000000, 8167.000000, 8185.000000, 8162.000000
1751, 24999840.000000, 2049.000000, 8174.000000, 8191.000000, 8174.000000
1752, 25000000.000000, 1961.000000, 8190.000000, 8202.000000, 8192.000000
1753, 25000160.000000, 1873.000000, 8208.000000, 8215.000000, 8211.000000
1754, 25000320.000000, 1777.000000, 8240.000000, 8252.000000, 8267.000000
1755, 25000480.000000, 1693.000000, 8274.000000, 8269.000000, 8295.000000
1756, 25000640.000000, 1626.000000, 8282.000000, 8275.000000, 8298.000000
1757, 25000800.000000, 1557.000000, 8269.000000, 8260.000000, 8280.000000
1758, 25000960.000000, 1477.000000, 8244.000000, 8241.000000, 8263.000000
1759, 25001120.000000, 1398.500000, 8193.000000, 8206.000000, 8202.000000
1760, 25001280.000000, 1339.000000, 8161.000000, 8179.000000, 8162.000000
1761, 25001440.000000, 1304.000000, 8148.000000, 8163.000000, 8137.000000
1762, 25001600.000000, 1273.000000, 8155.000000, 8166.000000, 8145.000000
1763, 25001760.000000, 1236.000000, 8160.000000, 8172.000000, 8154.000000
1764, 25001920.000000, 1196.000000, 8159.000000, 8170.000000, 8151.000000
1765, 25002080.000000, 1167.000000, 8170.000000, 8168.000000, 8153.000000
1766, 25002240.000000, 1149.000000, 8157.000000, 8167.000000, 8153.000000
1767, 25002400.000000, 1134.000000, 8160.000000, 8164.000000, 8148.000000
1768, 25002560.000000, 1131.000000, 8156.000000, 8163.000000, 8142.000000
1769, 25002720.000000, 1189.000000, 8160.000000, 8163.000000, 8149.000000
1770, 25002880.000000, 1368.000000, 8152.000000, 8160.000000, 8145.000000
1771, 25003040.000000, 1660.500000, 8160.000000, 8172.000000, 8156.000000
1772, 25003200.000000, 2002.000000, 8168.000000, 8162.000000, 8145.000000
1773, 25003360.000000, 2303.000000, 8173.000000, 8165.000000, 8152.000000
1774, 25003520.000000, 2524.000000, 8160.000000, 8165.000000, 8151.000000
1775, 25003680.000000, 2650.500000, 8171.000000, 8162.000000, 8155.000000
1776, 25003840.000000, 2728.000000, 8171.000000, 8165.000000, 8156.000000
1777, 25004000.000000, 2785.500000, 8155.000000, 8225.000000, 8227.000000
1778, 25004160.000000, 2839.000000, 8588.000000, 8110.000000, 8289.000000
1779, 25004320.000000, 2862.500000, 8114.000000, 8041.000000, 8048.000000
1780, 25004480.000000, 2830.000000, 8057.000000, 8097.000000, 8014.000000
1781, 25004640.000000, 2768.000000, 8125.000000, 8190.000000, 8147.000000
1782, 25004800.000000, 2724.000000, 8163.000000, 8213.000000, 8203.000000
1783, 25004960.000000, 2716.000000, 8177.000000, 8217.000000, 8216.000000
1784, 25005120.000000, 2705.000000, 8194.000000, 8226.000000, 8234.000000
1785, 25005280.000000, 2667.000000, 8206.000000, 8238.000000, 8254.000000
1786, 25005440.000000, 2614.000000, 8208.000000, 8256.000000, 8272.000000
1787, 25005600.000000, 2563.000000, 8232.000000, 8273.000000, 8299.000000
1788, 25005760.000000, 2517.000000, 8253.000000, 8303.000000, 8339.000000
1789, 25005920.000000, 2459.500000, 8271.000000, 8316.000000, 8356.000000
1790, 25006080.000000, 2379.000000, 8275.000000, 8309.000000, 8347.000000
1791, 25006240.000000, 2270.500000, 8267.000000, 8282.000000, 8319.000000
1792, 25006400.000000, 2163.000000, 8210.000000, 8240.000000, 8257.000000
1793, 25006560.000000, 2073.000000, 8172.000000, 8200.000000, 8198.000000
1794, 25006720.000000, 1993.000000, 8155.000000, 8178.000000, 8165.000000
1795, 25006880.000000, 1921.000000, 8150.000000, 8164.000000, 8151.000000
1796, 25007040.000000, 1852.000000, 8148.000000, 8166.000000, 8150.000000
1797, 25007200.000000, 1789.000000, 8147.000000, 8167.000000, 8150.000000
1798, 25007360.000000, 1726.000000, 8163.000000, 8135.000000, 8127.000000
1799, 25007520.000000, 1661.500000, 8159.000000, 8104.000000, 8091.000000
1800, 25007680.000000, 1599.000000, 8163.000000, 8088.000000, 8076.000000
1801, 25007840.000000, 1535.000000, 8160.000000, 8076.000000, 8068.000000
1802, 25008000.000000, 1510.000000, 8164.000000, 8070.000000, 8059.000000
1803, 25008160.000000, 1580.500000, 8150.000000, 8072.000000, 8057.000000
1804, 25008320.000000, 1769.000000, 8142.000000, 8069.000000, 8043.000000
1805, 25008480.000000, 2029.000000, 8149.000000, 8078.000000, 8043.000000
1806, 25008640.000000, 2286.000000, 8166.000000, 8070.000000, 8040.000000
1807, 25008800.000000, 2492.000000, 8152.000000, 8075.000000, 8040.000000
1808, 25008960.000000, 2638.000000, 8140.000000, 8077.000000, 8040.000000
1809, 25009120.000000, 2708.500000, 8140.000000, 8091.000000, 8054.000000
1810, 25009280.000000, 2699.000000, 8144.000000, 8091.000000, 8054.000000
1811, 25009440.000000, 2631.500000, 8195.000000, 8172.000000, 8169.000000
1812, 25009600.000000, 2547.000000, 8669.000000, 7945.000000, 8144.000000
1813, 25009760.000000, 2461.000000, 8018.000000, 8000.000000, 7929.000000
1814, 25009920.000000, 2362.000000, 8061.000000, 8062.000000, 7954.000000
1815, 25010080.000000, 2228.500000, 8147.000000, 8210.000000, 8173.000000
1816, 25010240.000000, 2090.000000, 8164.000000, 8256.000000, 8229.000000
1817, 25010400.000000, 1977.500000, 8183.000000, 8261.000000, 8244.000000
1818, 25010560.000000, 1901.000000, 8192.000000, 8270.000000, 8259.000000
1819, 25010720.000000, 1851.000000, 8213.000000, 8280.000000, 8281.000000
1820, 25010880.000000, 1810.000000, 8226.000000, 8299.000000, 8307.000000
1821, 25011040.000000, 1761.000000, 8247.000000, 8321.000000, 8341.000000
1822, 25011200.000000, 1700.000000, 8267.000000, 8338.000000, 8361.000000
1823, 25011360.000000, 1639.000000, 8296.000000, 8347.000000, 8383.000000
1824, 25011520.000000, 1584.000000, 8280.000000, 8327.000000, 8355.000000
1825, 25011680.000000, 1537.500000, 8244.000000, 8290.000000, 8310.000000
1826, 25011840.000000, 1490.000000, 8202.000000, 8246.000000, 8248.000000
1827, 25012000.000000, 1451.000000, 8174.000000, 8207.000000, 8194.000000
1828, 25012160.000000, 1430.000000, 8158.000000, 8189.000000, 8168.000000
1829, 25012320.000000, 1438.000000, 8153.000000, 8188.000000, 8163.000000
1830, 25012480.000000, 1466.000000, 8155.000000, 8189.000000, 8164.000000
1831, 25012640.000000, 1496.000000, 8160.000000, 8189.000000, 8171.000000
1832, 25012800.000000, 1524.000000, 8164.000000, 8181.000000, 8162.000000
1833, 25012960.000000, 1552.500000, 8168.000000, 8178.000000, 8159.000000
1834, 25013120.000000, 1583.000000, 8160.000000, 8176.000000, 8156.000000
1835, 25013280.000000, 1645.000000, 8159.000000, 8167.000000, 8144.000000
1836, 25013440.000000, 1831.000000, 8180.000000, 8163.000000, 8148.000000
1837, 25013600.000000, 2232.500000, 8172.000000, 8173.000000, 8151.000000
1838, 25013760.000000, 2644.000000, 8151.000000, 8173.000000, 8147.000000
1839, 25013920.000000, 2947.000000, 8161.000000, 8175.000000, 8154.000000
1840, 25014080.000000, 3172.000000, 8163.000000, 8173.000000, 8147.000000
1841, 25014240.000000, 3300.500000, 8167.000000, 8173.000000, 8150.000000
1842, 25014400.000000, 3353.000000, 8172.000000, 8174.000000, 8160.000000
1843, 25014560.000000, 3356.500000, 8173.000000, 8178.000000, 8169.000000
1844, 25014720.000000, 3328.000000, 8179.000000, 8179.000000, 8176.000000
1845, 25014880.000000, 3258.500000, 8156.000000, 8196.000000, 8193.000000
1846, 25015040.000000, 3142.000000, 8431.000000, 8221.000000, 8333.000000
1847, 25015200.000000, 2987.500000, 8420.000000, 7992.000000, 8123.000000
1848, 25015360.000000, 2826.000000, 8036.000000, 8083.000000, 8006.000000
1849, 25015520.000000, 2683.500000, 8103.000000, 8174.000000, 8110.000000
1850, 25015680.000000, 2568.000000, 8169.000000, 8214.000000, 8206.000000
1851, 25015840.000000, 2472.000000, 8179.000000, 8186.000000, 8183.000000
1852, 25016000.000000, 2385.000000, 8188.000000, 8162.000000, 8162.000000
1853, 25016160.000000, 2294.500000, 8192.000000, 8153.000000, 8150.000000
1854, 25016320.000000, 2199.000000, 8209.000000, 8152.000000, 8158.000000
1855, 25016480.000000, 2097.500000, 8217.000000, 8158.000000, 8168.000000
1856, 25016640.000000, 1998.000000, 8245.000000, 8176.000000, 8198.000000
1857, 25016800.000000, 1910.500000, 8267.000000, 8192.000000, 8223.000000
1858, 25016960.000000, 1832.000000, 8270.000000, 8184.000000, 8217.000000
1859, 25017120.000000, 1754.500000, 8258.000000, 8168.000000, 8197.000000
1860, 25017280.000000, 1665.000000, 8219.000000, 8136.000000, 8151.000000
1861, 25017440.000000, 1560.500000, 8154.000000, 8095.000000, 8073.000000
1862, 25017600.000000, 1447.000000, 8119.000000, 8065.000000, 8020.000000
1863, 25017760.000000, 1344.500000, 8118.000000, 8061.000000, 8015.000000
1864, 25017920.000000, 1259.000000, 8118.000000, 8070.000000, 8028.000000
1865, 25018080.000000, 1180.000000, 8134.000000, 8079.000000, 8042.000000
1866, 25018240.000000, 1100.000000, 8138.000000, 8080.000000, 8043.000000
1867, 25018400.000000, 1028.500000, 8149.000000, 8083.000000, 8050.000000
1868, 25018560.000000, 994.000000, 8158.000000, 8084.000000, 8055.000000
1869, 25018720.000000, 1043.500000, 8155.000000, 8093.000000, 8056.000000
1870, 25018880.000000, 1198.000000, 8156.000000, 8187.000000, 8154.000000
1871, 25019040.000000, 1480.000000, 8156.000000, 8231.000000, 8200.000000
1872, 25019200.000000, 1825.000000, 8153.000000, 8228.000000, 8193.000000
1873, 25019360.000000, 2158.000000, 8161.000000, 8228.000000, 8197.000000
1874, 25019520.000000, 2415.000000, 8155.000000, 8220.000000, 8181.000000
1875, 25019680.000000, 2573.500000, 8165.000000, 8235.000000, 8196.000000
1876, 25019840.000000, 2658.000000, 8170.000000, 8214.000000, 8185.000000
1877, 25020000.000000, 2698.000000, 8172.000000, 8213.000000, 8187.000000
1878, 25020160.000000, 2713.000000, 8172.000000, 8211.000000, 8189.000000
1879, 25020320.000000, 2700.000000, 8163.000000, 8215.000000, 8191.000000
1880, 25020480.000000, 2659.000000, 8166.000000, 8218.000000, 8194.000000
1881, 25020640.000000, 2590.500000, 8158.000000, 8276.000000, 8269.000000
1882, 25020800.000000, 2502.000000, 8613.000000, 8150.000000, 8330.000000
1883, 25020960.000000, 2421.500000, 8124.000000, 8072.000000, 8072.000000
1884, 25021120.000000, 2367.000000, 8044.000000, 8126.000000, 8021.000000
1885, 25021280.000000, 2351.000000, 8126.000000, 8228.000000, 8177.000000
1886, 25021440.000000, 2355.000000, 8160.000000, 8239.000000, 8221.000000
1887, 25021600.000000, 2345.000000, 8171.000000, 8240.000000, 8227.000000
1888, 25021760.000000, 2310.000000, 8184.000000, 8246.000000, 8242.000000
1889, 25021920.000000, 2258.000000, 8203.000000, 8258.000000, 8258.000000
1890, 25022080.000000, 2217.000000, 8202.000000, 8275.000000, 8279.000000
1891, 25022240.000000, 2190.000000, 8224.000000, 8296.000000, 8308.000000
1892, 25022400.000000, 2164.000000, 8257.000000, 8318.000000, 8352.000000
1893, 25022560.000000, 2120.500000, 8282.000000, 8340.000000, 8389.000000
1894, 25022720.000000, 2063.000000, 8293.000000, 8331.000000, 8385.000000
1895, 25022880.000000, 2002.500000, 8282.000000, 8306.000000, 8349.000000
1896, 25023040.000000, 1942.000000, 8232.000000, 8268.000000, 8300.000000
1897, 25023200.000000, 1875.500000, 8185.000000, 8230.000000, 8246.000000
1898, 25023360.000000, 1810.000000, 8161.000000, 8207.000000, 8204.000000
1899, 25023520.000000, 1754.000000, 8159.000000, 8198.000000, 8191.000000
1900, 25023680.000000, 1717.000000, 8158.000000, 8198.000000, 8193.000000
1901, 25023840.000000, 1695.500000, 8162.000000, 8195.000000, 8190.000000
1902, 25024000.000000, 1675.000000, 8163.000000, 8194.000000, 8192.000000
1903, 25024160.000000, 1642.500000, 8171.000000, 8190.000000, 8189.000000
1904, 25024320.000000, 1612.000000, 8172.000000, 8175.000000, 8169.000000
1905, 25024480.000000, 1635.000000, 8158.000000, 8148.000000, 8133.000000
1906, 25024640.000000, 1780.000000, 8152.000000, 8117.000000, 8098.000000
1907, 25024800.000000, 2040.000000, 8154.000000, 8086.000000, 8062.000000
1908, 25024960.000000, 2355.000000, 8152.000000, 8073.000000, 8046.000000
1909, 25025120.000000, 2639.000000, 8148.000000, 8068.000000, 8036.000000
1910, 25025280.000000, 2850.000000, 8142.000000, 8061.000000, 8029.000000
1911, 25025440.000000, 2955.000000, 8141.000000, 8057.000000, 8014.000000
1912, 25025600.000000, 2983.000000, 8151.000000, 8066.000000, 8022.000000
1913, 25025760.000000, 2951.500000, 8163.000000, 8062.000000, 8032.000000
1914, 25025920.000000, 2881.000000, 8163.000000, 8072.000000, 8044.000000
1915, 25026080.000000, 2771.500000, 8151.000000, 8077.000000, 8047.000000
1916, 25026240.000000, 2626.000000, 8147.000000, 8089.000000, 8064.000000
1917, 25026400.000000, 2453.500000, 8158.000000, 8100.000000, 8087.000000
1918, 25026560.000000, 2271.000000, 8224.000000, 8196.000000, 8218.000000
1919, 25026720.000000, 2105.500000, 8644.000000, 7941.000000, 8149.000000
1920, 25026880.000000, 1974.000000, 8020.000000, 8031.000000, 7974.000000
1921, 25027040.000000, 1884.500000, 8062.000000, 8088.000000, 7993.000000
1922, 25027200.000000, 1818.000000, 8126.000000, 8152.000000, 8113.000000
1923, 25027360.000000, 1751.000000, 8154.000000, 8156.000000, 8128.000000
1924, 25027520.000000, 1680.000000, 8173.000000, 8169.000000, 8150.000000
1925, 25027680.000000, 1621.000000, 8176.000000, 8181.000000, 8164.000000
1926, 25027840.000000, 1577.000000, 8196.000000, 8195.000000, 8187.000000
1927, 25028000.000000, 1537.000000, 8230.000000, 8225.000000, 8243.000000
1928, 25028160.000000, 1496.000000, 8252.000000, 8254.000000, 8287.000000
1929, 25028320.000000, 1450.000000, 8276.000000, 8284.000000, 8325.000000
1930, 25028480.000000, 1406.000000, 8295.000000, 8291.000000, 8337.000000
1931, 25028640.000000, 1372.500000, 8294.000000, 8276.000000, 8321.000000
1932, 25028800.000000, 1357.000000, 8266.000000, 8245.000000, 8281.000000
1933, 25028960.000000, 1358.500000, 8219.000000, 8208.000000, 8227.000000
1934, 25029120.000000, 1363.000000, 8188.000000, 8175.000000, 8179.000000
1935, 25029280.000000, 1361.500000, 8172.000000, 8162.000000, 8158.000000
1936, 25029440.000000, 1364.000000, 8164.000000, 8161.000000, 8152.000000
1937, 25029600.000000, 1391.000000, 8178.000000, 8164.000000, 8162.000000
1938, 25029760.000000, 1433.000000, 8172.000000, 8166.000000, 8164.000000
1939, 25029920.000000, 1460.500000, 8179.000000, 8167.000000, 8164.000000
1940, 25030080.000000, 1456.000000, 8179.000000, 8166.000000, 8166.000000
1941, 25030240.000000, 1466.500000, 8176.000000, 8162.000000, 8159.000000
1942, 25030400.000000, 1557.000000, 8174.000000, 8157.000000, 8150.000000
1943, 25030560.000000, 1803.500000, 8172.000000, 8156.000000, 8144.000000
1944, 25030720.000000, 2150.000000, 8170.000000, 8156.000000, 8143.000000
1945, 25030880.000000, 2514.000000, 8175.000000, 8163.000000, 8155.000000
1946, 25031040.000000, 2808.000000, 8170.000000, 8163.000000, 8154.000000
1947, 25031200.000000, 3011.500000, 8162.000000, 8163.000000, 8142.000000
1948, 25031360.000000, 3146.000000, 8170.000000, 8172.000000, 8147.000000
1949, 25031520.000000, 3217.500000, 8178.000000, 8167.000000, 8157.000000
1950, 25031680.000000, 3241.000000, 8180.000000, 8170.000000, 8161.000000
1951, 25031840.000000, 3210.000000, 8168.000000, 8172.000000, 8161.000000
1952, 25032000.000000, 3139.000000, 8167.000000, 8167.000000, 8156.000000
1953, 25032160.000000, 3023.000000, 8167.000000, 8171.000000, 8160.000000
1954, 25032320.000000, 2876.000000, 8197.000000, 8263.000000, 8277.000000
1955, 25032480.000000, 2722.000000, 8648.000000, 8088.000000, 8289.000000
1956, 25032640.000000, 2580.000000, 8037.000000, 8102.000000, 8064.000000
1957, 25032800.000000, 2471.500000, 8075.000000, 8130.000000, 8041.000000
1958, 25032960.000000, 2394.000000, 8146.000000, 8201.000000, 8170.000000
1959, 25033120.000000, 2335.000000, 8174.000000, 8212.000000, 8201.000000
1960, 25033280.000000, 2276.000000, 8178.000000, 8219.000000, 8211.000000
1961, 25033440.000000, 2207.500000, 8196.000000, 8227.000000, 8225.000000
1962, 25033600.000000, 2132.000000, 8208.000000, 8247.000000, 8249.000000
1963, 25033760.000000, 2051.500000, 8210.000000, 8263.000000, 8268.000000
1964, 25033920.000000, 1967.000000, 8235.000000, 8285.000000, 8299.000000
1965, 25034080.000000, 1866.500000, 8265.000000, 8322.000000, 8352.000000
1966, 25034240.000000, 1762.000000, 8281.000000, 8332.000000, 8366.000000
1967, 25034400.000000, 1670.000000, 8282.000000, 8318.000000, 8351.000000
1968, 25034560.000000, 1601.000000, 8249.000000, 8258.000000, 8279.000000
1969, 25034720.000000, 1547.000000, 8199.000000, 8216.000000, 8220.000000
1970, 25034880.000000, 1495.000000, 8157.000000, 8179.000000, 8167.000000
1971, 25035040.000000, 1443.000000, 8143.000000, 8163.000000, 8144.000000
1972, 25035200.000000, 1390.000000, 8138.000000, 8158.000000, 8139.000000
1973, 25035360.000000, 1337.500000, 8140.000000, 8160.000000, 8141.000000
1974, 25035520.000000, 1294.000000, 8150.000000, 8167.000000, 8150.000000
1975, 25035680.000000, 1255.500000, 8156.000000, 8173.000000, 8162.000000
1976, 25035840.000000, 1208.000000, 8161.000000, 8168.000000, 8155.000000
1977, 25036000.000000, 1152.000000, 8148.000000, 8163.000000, 8147.000000
1978, 25036160.000000, 1151.000000, 8148.000000, 8163.000000, 8149.000000
1979, 25036320.000000, 1280.500000, 8154.000000, 8164.000000, 8148.000000
1980, 25036480.000000, 1548.000000, 8155.000000, 8166.000000, 8149.000000
1981, 25036640.000000, 1871.000000, 8152.000000, 8168.000000, 8149.000000
1982, 25036800.000000, 2158.000000, 8149.000000, 8162.000000, 8139.000000
1983, 25036960.000000, 2363.500000, 8159.000000, 8177.000000, 8150.000000
1984, 25037120.000000, 2494.000000, 8168.000000, 8172.000000, 8157.000000
1985, 25037280.000000, 2550.500000, 8171.000000, 8179.000000, 8166.000000
1986, 25037440.000000, 2548.000000, 8161.000000, 8176.000000, 8157.000000
1987, 25037600.000000, 2512.000000, 8167.000000, 8183.000000, 8170.000000
1988, 25037760.000000, 2458.000000, 8174.000000, 8204.000000, 8193.000000
1989, 25037920.000000, 2385.500000, 8184.000000, 8307.000000, 8315.000000
1990, 25038080.000000, 2299.000000, 8676.000000, 8120.000000, 8332.000000
1991, 25038240.000000, 2214.000000, 8043.000000, 8125.000000, 8087.000000
1992, 25038400.000000, 2146.000000, 8074.000000, 8173.000000, 8086.000000
1993, 25038560.000000, 2095.500000, 8158.000000, 8247.000000, 8224.000000
1994, 25038720.000000, 2063.000000, 8178.000000, 8258.000000, 8250.000000
1995, 25038880.000000, 2047.000000, 8197.000000, 8262.000000, 8266.000000
1996, 25039040.000000, 2045.000000, 8196.000000, 8274.000000, 8278.000000
1997, 25039200.000000, 2050.000000, 8209.000000, 8275.000000, 8283.000000
1998, 25039360.000000, 2051.000000, 8221.000000, 8288.000000, 8300.000000
1999, 25039520.000000, 2033.500000, 8238.000000, 8315.000000, 8341.000000
2000, 25039680.000000, 1991.000000, 8261.000000, 8337.000000, 8370.000000
2001, 25039840.000000, 1931.000000, 8279.000000, 8345.000000, 8384.000000
2002, 25040000.000000, 1872.000000, 8274.000000, 8332.000000, 8364.000000
2003, 25040160.000000, 1818.000000, 8252.000000, 8297.000000, 8326.000000
2004, 25040320.000000, 1771.000000, 8214.000000, 8252.000000, 8268.000000
2005, 25040480.000000, 1734.500000, 8170.000000, 8207.000000, 8198.000000
2006, 25040640.000000, 1707.000000, 8159.000000, 8191.000000, 8180.000000
2007, 25040800.000000, 1693.500000, 8144.000000, 8193.000000, 8174.000000
2008, 25040960.000000, 1682.000000, 8156.000000, 8189.000000, 8180.000000
2009, 25041120.000000, 1664.000000, 8166.000000, 8196.000000, 8186.000000
2010, 25041280.000000, 1647.000000, 8174.000000, 8192.000000, 8187.000000
2011, 25041440.000000, 1632.000000, 8164.000000, 8187.000000, 8178.000000
2012, 25041600.000000, 1620.000000, 8173.000000, 8184.000000, 8188.000000
2013, 25041760.000000, 1644.500000, 8183.000000, 8186.000000, 8197.000000
2014, 25041920.000000, 1756.000000, 8174.000000, 8185.000000, 8190.000000
2015, 25042080.000000, 2004.500000, 8166.000000, 8185.000000, 8183.000000
2016, 25042240.000000, 2326.000000, 8176.000000, 8183.000000, 8185.000000
2017, 25042400.000000, 2650.500000, 8160.000000, 8181.000000, 8173.000000
2018, 25042560.000000, 2909.000000, 8174.000000, 8192.000000, 8179.000000
2019, 25042720.000000, 3071.500000, 8179.000000, 8186.000000, 8179.000000
2020, 25042880.000000, 3147.000000, 8181.000000, 8185.000000, 8181.000000
2021, 25043040.000000, 3156.000000, 8166.000000, 8182.000000, 8174.000000
2022, 25043200.000000, 3122.000000, 8163.000000, 8176.000000, 8162.000000
2023, 25043360.000000, 3045.500000, 8163.000000, 8175.000000, 8161.000000
2024, 25043520.000000, 2935.000000, 8151.000000, 8251.000000, 8253.000000
2025, 25043680.000000, 2791.500000, 8614.000000, 8111.000000, 8305.000000
2026, 25043840.000000, 2633.000000, 8079.000000, 8049.000000, 8031.000000
2027, 25044000.000000, 2482.000000, 8042.000000, 8061.000000, 7964.000000
2028, 25044160.000000, 2353.000000, 8126.000000, 8153.000000, 8114.000000
2029, 25044320.000000, 2255.500000, 8157.000000, 8170.000000, 8156.000000
2030, 25044480.000000, 2183.000000, 8165.000000, 8179.000000, 8172.000000
2031, 25044640.000000, 2123.000000, 8177.000000, 8192.000000, 8191.000000
2032, 25044800.000000, 2066.000000, 8193.000000, 8204.000000, 8208.000000
2033, 25044960.000000, 1998.000000, 8192.000000, 8212.000000, 8215.000000
2034, 25045120.000000, 1911.000000, 8220.000000, 8256.000000, 8276.000000
2035, 25045280.000000, 1813.000000, 8243.000000, 8278.000000, 8307.000000
2036, 25045440.000000, 1710.000000, 8262.000000, 8296.000000, 8330.000000
2037, 25045600.000000, 1607.000000, 8266.000000, 8290.000000, 8328.000000
2038, 25045760.000000, 1505.000000, 8243.000000, 8263.000000, 8294.000000
2039, 25045920.000000, 1409.500000, 8201.000000, 8221.000000, 8234.000000
2040, 25046080.000000, 1327.000000, 8166.000000, 8182.000000, 8178.000000
2041, 25046240.000000, 1261.500000, 8148.000000, 8160.000000, 8144.000000
2042, 25046400.000000, 1206.000000, 8151.000000, 8197.000000, 8183.000000
2043, 25046560.000000, 1164.500000, 8152.000000, 8220.000000, 8203.000000
2044, 25046720.000000, 1141.000000, 8162.000000, 8218.000000, 8207.000000
2045, 25046880.000000, 1132.000000, 8166.000000, 8211.000000, 8195.000000
2046, 25047040.000000, 1114.000000, 8171.000000, 8206.000000, 8193.000000
2047, 25047200.000000, 1084.000000, 8169.000000, 8197.000000, 8183.000000
2048, 25047360.000000, 1098.000000, 8166.000000, 8192.000000, 8176.000000
2049, 25047520.000000, 1232.500000, 8165.000000, 8196.000000, 8175.000000
2050, 25047680.000000, 1502.000000, 8168.000000, 8195.000000, 8178.000000
2051, 25047840.000000, 1840.000000, 8167.000000, 8196.000000, 8177.000000
2052, 25048000.000000, 2162.000000, 8175.000000, 8200.000000, 8186.000000
2053, 25048160.000000, 2406.000000, 8156.000000, 8255.000000, 8224.000000
2054, 25048320.000000, 2568.000000, 8174.000000, 8318.000000, 8291.000000
2055, 25048480.000000, 2656.000000, 8186.000000, 8305.000000, 8294.000000
2056, 25048640.000000, 2698.000000, 8184.000000, 8303.000000, 8289.000000
2057, 25048800.000000, 2703.500000, 8185.000000, 8300.000000, 8291.000000
2058, 25048960.000000, 2680.000000, 8183.000000, 8302.000000, 8299.000000
2059, 25049120.000000, 2624.000000, 8193.000000, 8298.000000, 8302.000000
2060, 25049280.000000, 2547.000000, 8197.000000, 8374.000000, 8396.000000
2061, 25049440.000000, 2462.500000, 8700.000000, 8168.000000, 8398.000000
2062, 25049600.000000, 2384.000000, 8052.000000, 8152.000000, 8116.000000
2063, 25049760.000000, 2318.000000, 8076.000000, 8213.000000, 8123.000000
2064, 25049920.000000, 2268.000000, 8158.000000, 8302.000000, 8281.000000
2065, 25050080.000000, 2232.000000, 8180.000000, 8311.000000, 8308.000000
2066, 25050240.000000, 2202.000000, 8185.000000, 8312.000000, 8307.000000
2067, 25050400.000000, 2171.500000, 8192.000000, 8307.000000, 8308.000000
2068, 25050560.000000, 2137.000000, 8203.000000, 8315.000000, 8323.000000
2069, 25050720.000000, 2089.000000, 8221.000000, 8337.000000, 8349.000000
2070, 25050880.000000, 2032.000000, 8232.000000, 8351.000000, 8367.000000
2071, 25051040.000000, 1974.500000, 8250.000000, 8371.000000, 8395.000000
2072, 25051200.000000, 1922.000000, 8268.000000, 8376.000000, 8404.000000
2073, 25051360.000000, 1863.500000, 8265.000000, 8361.000000, 8387.000000
2074, 25051520.000000, 1795.000000, 8239.000000, 8328.000000, 8344.000000
2075, 25051680.000000, 1721.000000, 8203.000000, 8288.000000, 8294.000000
2076, 25051840.000000, 1647.000000, 8168.000000, 8247.000000, 8234.000000
2077, 25052000.000000, 1584.000000, 8151.000000, 8214.000000, 8190.000000
2078, 25052160.000000, 1533.000000, 8140.000000, 8207.000000, 8176.000000
2079, 25052320.000000, 1491.500000, 8149.000000, 8212.000000, 8187.000000
2080, 25052480.000000, 1449.000000, 8163.000000, 8219.000000, 8205.000000
2081, 25052640.000000, 1403.000000, 8166.000000, 8209.000000, 8195.000000
2082, 25052800.000000, 1352.000000, 8157.000000, 8203.000000, 8187.000000
2083, 25052960.000000, 1308.500000, 8162.000000, 8194.000000, 8177.000000
2084, 25053120.000000, 1301.000000, 8162.000000, 8198.000000, 8179.000000
2085, 25053280.000000, 1401.000000, 8159.000000, 8188.000000, 8169.000000
2086, 25053440.000000, 1626.000000, 8157.000000, 8178.000000, 8158.000000
2087, 25053600.000000, 1950.000000, 8159.000000, 8181.000000, 8160.000000
2088, 25053760.000000, 2282.000000, 8151.000000, 8142.000000, 8116.000000
2089, 25053920.000000, 2550.000000, 8152.000000, 8087.000000, 8062.000000
2090, 25054080.000000, 2711.000000, 8163.000000, 8062.000000, 8034.000000
2091, 25054240.000000, 2765.500000, 8161.000000, 8051.000000, 8026.000000
2092, 25054400.000000, 2743.000000, 8169.000000, 8042.000000, 8024.000000
2093, 25054560.000000, 2678.500000, 8169.000000, 8040.000000, 8028.000000
2094, 25054720.000000, 2598.000000, 8161.000000, 8040.000000, 8025.000000
2095, 25054880.000000, 2489.000000, 8158.000000, 8035.000000, 8020.000000
2096, 25055040.000000, 2347.000000, 8159.000000, 8047.000000, 8042.000000
2097, 25055200.000000, 2183.500000, 8333.000000, 8110.000000, 8183.000000
2098, 25055360.000000, 2035.000000, 8532.000000, 7838.000000, 8018.000000
2099, 25055520.000000, 1926.000000, 8019.000000, 7955.000000, 7881.000000
2100, 25055680.000000, 1857.000000, 8085.000000, 8078.000000, 8002.000000
2101, 25055840.000000, 1812.500000, 8158.000000, 8159.000000, 8148.000000
2102, 25056000.000000, 1779.000000, 8173.000000, 8180.000000, 8182.000000
2103, 25056160.000000, 1750.000000, 8195.000000, 8237.000000, 8242.000000
2104, 25056320.000000, 1720.000000, 8197.000000, 8322.000000, 8322.000000
2105, 25056480.000000, 1683.000000, 8213.000000, 8343.000000, 8354.000000
2106, 25056640.000000, 1639.000000, 8225.000000, 8358.000000, 8373.000000
2107, 25056800.000000, 1592.500000, 8249.000000, 8377.000000, 8400.000000
2108, 25056960.000000, 1547.000000, 8275.000000, 8394.000000, 8432.000000
2109, 25057120.000000, 1498.000000, 8278.000000, 8389.000000, 8427.000000
2110, 25057280.000000, 1452.000000, 8277.000000, 8370.000000, 8402.000000
2111, 25057440.000000, 1420.500000, 8248.000000, 8334.000000, 8360.000000
2112, 25057600.000000, 1405.000000, 8200.000000, 8288.000000, 8294.000000
2113, 25057760.000000, 1401.500000, 8181.000000, 8249.000000, 8243.000000
2114, 25057920.000000, 1398.000000, 8163.000000, 8233.000000, 8217.000000
2115, 25058080.000000, 1397.500000, 8160.000000, 8230.000000, 8214.000000
2116, 25058240.000000, 1407.000000, 8170.000000, 8227.000000, 8216.000000
2117, 25058400.000000, 1418.000000, 8181.000000, 8219.000000, 8209.000000
2118, 25058560.000000, 1417.000000, 8169.000000, 8217.000000, 8201.000000
2119, 25058720.000000, 1404.000000, 8169.000000, 8210.000000, 8194.000000
2120, 25058880.000000, 1406.000000, 8164.000000, 8207.000000, 8184.000000
2121, 25059040.000000, 1477.000000, 8166.000000, 8202.000000, 8180.000000
2122, 25059200.000000, 1671.000000, 8163.000000, 8195.000000, 8173.000000
2123, 25059360.000000, 1989.000000, 8160.000000, 8193.000000, 8171.000000
2124, 25059520.000000, 2372.000000, 8163.000000, 8196.000000, 8180.000000
2125, 25059680.000000, 2726.500000, 8157.000000, 8196.000000, 8176.000000
2126, 25059840.000000, 2993.000000, 8156.000000, 8196.000000, 8177.000000
2127, 25060000.000000, 3140.500000, 8162.000000, 8196.000000, 8169.000000
2128, 25060160.000000, 3208.000000, 8164.000000, 8189.000000, 8160.000000
2129, 25060320.000000, 3224.500000, 8184.000000, 8188.000000, 8174.000000
2130, 25060480.000000, 3201.000000, 8176.000000, 8193.000000, 8180.000000
2131, 25060640.000000, 3136.000000, 8167.000000, 8191.000000, 8178.000000
2132, 25060800.000000, 3024.000000, 8161.000000, 8182.000000, 8167.000000
2133, 25060960.000000, 2873.000000, 8168.000000, 8192.000000, 8183.000000
2134, 25061120.000000, 2709.000000, 8348.000000, 8262.000000, 8331.000000
2135, 25061280.000000, 2557.000000, 8521.000000, 8008.000000, 8170.000000
2136, 25061440.000000, 2433.000000, 8026.000000, 8104.000000, 8031.000000
2137, 25061600.000000, 2345.000000, 8086.000000, 8163.000000, 8086.000000
2138, 25061760.000000, 2285.000000, 8160.000000, 8220.000000, 8202.000000
2139, 25061920.000000, 2232.500000, 8186.000000, 8227.000000, 8220.000000
2140, 25062080.000000, 2177.000000, 8184.000000, 8236.000000, 8230.000000
2141, 25062240.000000, 2114.500000, 8201.000000, 8233.000000, 8238.000000
2142, 25062400.000000, 2049.000000, 8205.000000, 8244.000000, 8244.000000
2143, 25062560.000000, 1978.500000, 8221.000000, 8260.000000, 8266.000000
2144, 25062720.000000, 1902.000000, 8244.000000, 8282.000000, 8298.000000
2145, 25062880.000000, 1817.500000, 8268.000000, 8298.000000, 8330.000000
2146, 25063040.000000, 1740.000000, 8275.000000, 8306.000000, 8338.000000
2147, 25063200.000000, 1671.000000, 8266.000000, 8286.000000, 8310.000000
2148, 25063360.000000, 1612.000000, 8241.000000, 8227.000000, 8243.000000
2149, 25063520.000000, 1556.000000, 8194.000000, 8189.000000, 8189.000000
2150, 25063680.000000, 1503.000000, 8160.000000, 8150.000000, 8134.000000
2151, 25063840.000000, 1451.500000, 8141.000000, 8132.000000, 8113.000000
2152, 25064000.000000, 1401.000000, 8144.000000, 8081.000000, 8060.000000
2153, 25064160.000000, 1345.000000, 8153.000000, 8054.000000, 8037.000000
2154, 25064320.000000, 1280.000000, 8158.000000, 8041.000000, 8026.000000
2155, 25064480.000000, 1212.000000, 8167.000000, 8039.000000, 8026.000000
2156, 25064640.000000, 1146.000000, 8147.000000, 8026.000000, 8003.000000
2157, 25064800.000000, 1104.000000, 8144.000000, 8012.000000, 7981.000000
2158, 25064960.000000, 1120.000000, 8140.000000, 8016.000000, 7987.000000
2159, 25065120.000000, 1248.500000, 8143.000000, 8023.000000, 7992.000000
2160, 25065280.000000, 1476.000000, 8146.000000, 8031.000000, 8000.000000
2161, 25065440.000000, 1777.000000, 8148.000000, 8066.000000, 8036.000000
2162, 25065600.000000, 2096.000000, 8143.000000, 8132.000000, 8091.000000
2163, 25065760.000000, 2374.500000, 8156.000000, 8213.000000, 8174.000000
2164, 25065920.000000, 2561.000000, 8169.000000, 8231.000000, 8203.000000
2165, 25066080.000000, 2624.000000, 8174.000000, 8235.000000, 8216.000000
2166, 25066240.000000, 2599.000000, 8162.000000, 8231.000000, 8206.000000
2167, 25066400.000000, 2522.000000, 8176.000000, 8226.000000, 8207.000000
2168, 25066560.000000, 2431.000000, 8180.000000, 8227.000000, 8214.000000
2169, 25066720.000000, 2330.000000, 8266.000000, 8308.000000, 8334.000000
2170, 25066880.000000, 2219.000000, 8622.000000, 8106.000000, 8290.000000
2171, 25067040.000000, 2113.000000, 8038.000000, 8148.000000, 8095.000000
2172, 25067200.000000, 2031.000000, 8089.000000, 8178.000000, 8091.000000
2173, 25067360.000000, 1976.500000, 8169.000000, 8240.000000, 8216.000000
2174, 25067520.000000, 1935.000000, 8189.000000, 8250.000000, 8241.000000
2175, 25067680.000000, 1910.000000, 8206.000000, 8250.000000, 8247.000000
2176, 25067840.000000, 1895.000000, 8211.000000, 8258.000000, 8260.000000
2177, 25068000.000000, 1888.000000, 8215.000000, 8264.000000, 8270.000000
2178, 25068160.000000, 1882.000000, 8232.000000, 8276.000000, 8286.000000
2179, 25068320.000000, 1867.000000, 8248.000000, 8298.000000, 8318.000000
2180, 25068480.000000, 1844.000000, 8274.000000, 8318.000000, 8346.000000
2181, 25068640.000000, 1816.000000, 8297.000000, 8317.000000, 8358.000000
2182, 25068800.000000, 1792.000000, 8284.000000, 8299.000000, 8333.000000
2183, 25068960.000000, 1770.000000, 8253.000000, 8272.000000, 8296.000000
2184, 25069120.000000, 1738.000000, 8210.000000, 8238.000000, 8251.000000
2185, 25069280.000000, 1689.500000, 8173.000000, 8204.000000, 8201.000000
2186, 25069440.000000, 1651.000000, 8157.000000, 8189.000000, 8179.000000
2187, 25069600.000000, 1643.000000, 8164.000000, 8186.000000, 8177.000000
2188, 25069760.000000, 1653.000000, 8166.000000, 8197.000000, 8187.000000
2189, 25069920.000000, 1650.000000, 8173.000000, 8182.000000, 8184.000000
2190, 25070080.000000, 1626.000000, 8162.000000, 8183.000000, 8180.000000
2191, 25070240.000000, 1602.000000, 8168.000000, 8191.000000, 8186.000000
2192, 25070400.000000, 1586.000000, 8177.000000, 8187.000000, 8186.000000
2193, 25070560.000000, 1582.000000, 8167.000000, 8178.000000, 8171.000000
2194, 25070720.000000, 1631.000000, 8172.000000, 8175.000000, 8171.000000
2195, 25070880.000000, 1788.000000, 8167.000000, 8178.000000, 8167.000000
2196, 25071040.000000, 2070.000000, 8176.000000, 8182.000000, 8177.000000
2197, 25071200.000000, 2416.500000, 8164.000000, 8169.000000, 8158.000000
2198, 25071360.000000, 2731.000000, 8173.000000, 8188.000000, 8173.000000
2199, 25071520.000000, 2933.500000, 8168.000000, 8178.000000, 8165.000000
2200, 25071680.000000, 3025.000000, 8181.000000, 8179.000000, 8175.000000
2201, 25071840.000000, 3023.500000, 8177.000000, 8178.000000, 8169.000000
2202, 25072000.000000, 2968.000000, 8160.000000, 8175.000000, 8159.000000
2203, 25072160.000000, 2876.000000, 8163.000000, 8175.000000, 8157.000000
2204, 25072320.000000, 2755.000000, 8146.000000, 8233.000000, 8228.000000
2205, 25072480.000000, 2607.500000, 8576.000000, 8126.000000, 8299.000000
2206, 25072640.000000, 2448.000000, 8130.000000, 8040.000000, 8048.000000
2207, 25072800.000000, 2299.000000, 8037.000000, 8094.000000, 7994.000000
2208, 25072960.000000, 2169.000000, 8118.000000, 8191.000000, 8137.000000
2209, 25073120.000000, 2070.000000, 8156.000000, 8217.000000, 8198.000000
2210, 25073280.000000, 1997.000000, 8167.000000, 8206.000000, 8193.000000
2211, 25073440.000000, 1947.000000, 8178.000000, 8206.000000, 8198.000000
2212, 25073600.000000, 1907.000000, 8195.000000, 8215.000000, 8212.000000
2213, 25073760.000000, 1853.500000, 8195.000000, 8224.000000, 8225.000000
2214, 25073920.000000, 1772.000000, 8214.000000, 8251.000000, 8261.000000
2215, 25074080.000000, 1671.500000, 8238.000000, 8275.000000, 8297.000000
2216, 25074240.000000, 1573.000000, 8265.000000, 8295.000000, 8327.000000
2217, 25074400.000000, 1482.500000, 8264.000000, 8286.000000, 8315.000000
2218, 25074560.000000, 1395.000000, 8246.000000, 8265.000000, 8286.000000
2219, 25074720.000000, 1315.000000, 8212.000000, 8227.000000, 8239.000000
2220, 25074880.000000, 1242.000000, 8162.000000, 8178.000000, 8167.000000
2221, 25075040.000000, 1163.500000, 8142.000000, 8156.000000, 8136.000000
2222, 25075200.000000, 1078.000000, 8143.000000, 8153.000000, 8130.000000
2223, 25075360.000000, 992.500000, 8139.000000, 8154.000000, 8130.000000
2224, 25075520.000000, 928.000000, 8148.000000, 8157.000000, 8139.000000
2225, 25075680.000000, 895.000000, 8155.000000, 8155.000000, 8138.000000
2226, 25075840.000000, 884.000000, 8162.000000, 8160.000000, 8147.000000
2227, 25076000.000000, 882.500000, 8161.000000, 8156.000000, 8139.000000
2228, 25076160.000000, 887.000000, 8168.000000, 8155.000000, 8140.000000
2229, 25076320.000000, 955.000000, 8165.000000, 8163.000000, 8148.000000
2230, 25076480.000000, 1133.000000, 8161.000000, 8174.000000, 8155.000000
2231, 25076640.000000, 1446.500000, 8162.000000, 8175.000000, 8156.000000
2232, 25076800.000000, 1815.000000, 8170.000000, 8182.000000, 8167.000000
2233, 25076960.000000, 2161.000000, 8172.000000, 8179.000000, 8165.000000
2234, 25077120.000000, 2423.000000, 8178.000000, 8188.000000, 8170.000000
2235, 25077280.000000, 2589.000000, 8179.000000, 8181.000000, 8158.000000
2236, 25077440.000000, 2671.000000, 8180.000000, 8180.000000, 8165.000000
2237, 25077600.000000, 2701.000000, 8177.000000, 8185.000000, 8178.000000
2238, 25077760.000000, 2707.000000, 8169.000000, 8186.000000, 8176.000000
2239, 25077920.000000, 2685.500000, 8171.000000, 8184.000000, 8175.000000
2240, 25078080.000000, 2635.000000, 8159.000000, 8200.000000, 8191.000000
2241, 25078240.000000, 2542.500000, 8370.000000, 8247.000000, 8333.000000
2242, 25078400.000000, 2431.000000, 8482.000000, 7968.000000, 8126.000000
2243, 25078560.000000, 2339.000000, 8040.000000, 8078.000000, 7998.000000
2244, 25078720.000000, 2287.000000, 8108.000000, 8176.000000, 8113.000000
2245, 25078880.000000, 2274.000000, 8170.000000, 8229.000000, 8220.000000
2246, 25079040.000000, 2278.000000, 8176.000000, 8236.000000, 8229.000000
2247, 25079200.000000, 2277.500000, 8187.000000, 8239.000000, 8241.000000
2248, 25079360.000000, 2260.000000, 8191.000000, 8244.000000, 8248.000000
2249, 25079520.000000, 2224.000000, 8201.000000, 8261.000000, 8270.000000
2250, 25079680.000000, 2171.000000, 8217.000000, 8285.000000, 8301.000000
2251, 25079840.000000, 2115.000000, 8232.000000, 8305.000000, 8329.000000
2252, 25080000.000000, 2071.000000, 8247.000000, 8328.000000, 8360.000000
2253, 25080160.000000, 2037.500000, 8268.000000, 8320.000000, 8354.000000
2254, 25080320.000000, 2004.000000, 8261.000000, 8303.000000, 8334.000000
2255, 25080480.000000, 1954.000000, 8232.000000, 8263.000000, 8285.000000
2256, 25080640.000000, 1895.000000, 8188.000000, 8222.000000, 8228.000000
2257, 25080800.000000, 1833.500000, 8156.000000, 8184.000000, 8171.000000
2258, 25080960.000000, 1779.000000, 8142.000000, 8172.000000, 8152.000000
2259, 25081120.000000, 1729.000000, 8155.000000, 8171.000000, 8156.000000
2260, 25081280.000000, 1679.000000, 8151.000000, 8172.000000, 8158.000000
2261, 25081440.000000, 1631.000000, 8160.000000, 8177.000000, 8165.000000
2262, 25081600.000000, 1592.000000, 8160.000000, 8165.000000, 8151.000000
2263, 25081760.000000, 1559.000000, 8152.000000, 8162.000000, 8141.000000
2264, 25081920.000000, 1525.000000, 8149.000000, 8163.000000, 8138.000000
2265, 25082080.000000, 1509.500000, 8147.000000, 8155.000000, 8126.000000
2266, 25082240.000000, 1580.000000, 8150.000000, 8154.000000, 8127.000000
2267, 25082400.000000, 1789.000000, 8148.000000, 8157.000000, 8133.000000
2268, 25082560.000000, 2120.000000, 8154.000000, 8158.000000, 8136.000000
2269, 25082720.000000, 2484.500000, 8157.000000, 8160.000000, 8140.000000
2270, 25082880.000000, 2801.000000, 8160.000000, 8158.000000, 8128.000000
2271, 25083040.000000, 2996.500000, 8164.000000, 8170.000000, 8141.000000
2272, 25083200.000000, 3088.000000, 8175.000000, 8163.000000, 8149.000000
2273, 25083360.000000, 3095.000000, 8178.000000, 8166.000000, 8160.000000
2274, 25083520.000000, 3057.000000, 8169.000000, 8159.000000, 8151.000000
2275, 25083680.000000, 2994.000000, 8183.000000, 8148.000000, 8149.000000
2276, 25083840.000000, 2899.000000, 8174.000000, 8155.000000, 8156.000000
2277, 25084000.000000, 2760.500000, 8277.000000, 8243.000000, 8299.000000
2278, 25084160.000000, 2594.000000, 8641.000000, 7967.000000, 8191.000000
2279, 25084320.000000, 2422.000000, 8037.000000, 8055.000000, 8003.000000
2280, 25084480.000000, 2273.000000, 8091.000000, 8131.000000, 8063.000000
2281, 25084640.000000, 2161.500000, 8167.000000, 8201.000000, 8201.000000
2282, 25084800.000000, 2084.000000, 8182.000000, 8207.000000, 8219.000000
2283, 25084960.000000, 2023.500000, 8178.000000, 8207.000000, 8205.000000
2284, 25085120.000000, 1958.000000, 8178.000000, 8210.000000, 8204.000000
2285, 25085280.000000, 1881.500000, 8193.000000, 8223.000000, 8225.000000
2286, 25085440.000000, 1797.000000, 8208.000000, 8237.000000, 8245.000000
2287, 25085600.000000, 1708.000000, 8230.000000, 8263.000000, 8279.000000
2288, 25085760.000000, 1614.000000, 8257.000000, 8283.000000, 8307.000000
2289, 25085920.000000, 1513.000000, 8266.000000, 8297.000000, 8327.000000
2290, 25086080.000000, 1416.000000, 8272.000000, 8281.000000, 8311.000000
2291, 25086240.000000, 1338.500000, 8244.000000, 8257.000000, 8275.000000
2292, 25086400.000000, 1290.000000, 8202.000000, 8223.000000, 8225.000000
2293, 25086560.000000, 1266.000000, 8166.000000, 8189.000000, 8175.000000
2294, 25086720.000000, 1249.000000, 8159.000000, 8182.000000, 8165.000000
2295, 25086880.000000, 1234.000000, 8153.000000, 8178.000000, 8155.000000
2296, 25087040.000000, 1217.000000, 8161.000000, 8181.000000, 8164.000000
2297, 25087200.000000, 1203.000000, 8164.000000, 8179.000000, 8162.000000
2298, 25087360.000000, 1194.000000, 8169.000000, 8175.000000, 8161.000000
2299, 25087520.000000, 1187.500000, 8168.000000, 8174.000000, 8161.000000
2300, 25087680.000000, 1179.000000, 8169.000000, 8169.000000, 8151.000000
2301, 25087840.000000, 1192.000000, 8171.000000, 8165.000000, 8148.000000
2302, 25088000.000000, 1281.000000, 8172.000000, 8161.000000, 8141.000000
2303, 25088160.000000, 1526.500000, 8171.000000, 8161.000000, 8140.000000
2304, 25088320.000000, 1883.000000, 8169.000000, 8166.000000, 8152.000000
2305, 25088480.000000, 2279.500000, 8163.000000, 8163.000000, 8143.000000
2306, 25088640.000000, 2618.000000, 8156.000000, 8161.000000, 8136.000000
2307, 25088800.000000, 2853.500000, 8166.000000, 8182.000000, 8156.000000
2308, 25088960.000000, 2985.000000, 8178.000000, 8170.000000, 8158.000000
2309, 25089120.000000, 3035.500000, 8187.000000, 8170.000000, 8164.000000
2310, 25089280.000000, 3039.000000, 8177.000000, 8171.000000, 8166.000000
2311, 25089440.000000, 3020.000000, 8180.000000, 8170.000000, 8165.000000
2312, 25089600.000000, 2988.000000, 8171.000000, 8175.000000, 8166.000000
2313, 25089760.000000, 2929.000000, 8152.000000, 8218.000000, 8218.000000
2314, 25089920.000000, 2838.000000, 8553.000000, 8132.000000, 8294.000000
2315, 25090080.000000, 2729.000000, 8172.000000, 8037.000000, 8067.000000
2316, 25090240.000000, 2624.000000, 8040.000000, 8089.000000, 7997.000000
2317, 25090400.000000, 2545.000000, 8120.000000, 8184.000000, 8129.000000
2318, 25090560.000000, 2501.000000, 8166.000000, 8216.000000, 8202.000000
2319, 25090720.000000, 2502.500000, 8174.000000, 8218.000000, 8213.000000
2320, 25090880.000000, 2526.000000, 8193.000000, 8224.000000, 8226.000000
2321, 25091040.000000, 2542.000000, 8208.000000, 8235.000000, 8243.000000
2322, 25091200.000000, 2514.000000, 8210.000000, 8254.000000, 8265.000000
2323, 25091360.000000, 2436.500000, 8231.000000, 8262.000000, 8281.000000
2324, 25091520.000000, 2319.000000, 8263.000000, 8281.000000, 8311.000000
2325, 25091680.000000, 2184.000000, 8276.000000, 8306.000000, 8341.000000
2326, 25091840.000000, 2055.000000, 8284.000000, 8301.000000, 8341.000000
2327, 25092000.000000, 1940.500000, 8265.000000, 8280.000000, 8310.000000
2328, 25092160.000000, 1840.000000, 8226.000000, 8245.000000, 8261.000000
2329, 25092320.000000, 1750.500000, 8182.000000, 8207.000000, 8204.000000
2330, 25092480.000000, 1672.000000, 8154.000000, 8174.000000, 8158.000000
2331, 25092640.000000, 1609.000000, 8156.000000, 8167.000000, 8154.000000
2332, 25092800.000000, 1570.000000, 8152.000000, 8170.000000, 8153.000000
2333, 25092960.000000, 1550.500000, 8159.000000, 8171.000000, 8158.000000
2334, 25093120.000000, 1538.000000, 8163.000000, 8164.000000, 8152.000000
2335, 25093280.000000, 1519.500000, 8164.000000, 8171.000000, 8158.000000
2336, 25093440.000000, 1488.000000, 8167.000000, 8168.000000, 8161.000000
2337, 25093600.000000, 1460.500000, 8166.000000, 8159.000000, 8147.000000
2338, 25093760.000000, 1482.000000, 8158.000000, 8152.000000, 8137.000000
2339, 25093920.000000, 1616.000000, 8159.000000, 8154.000000, 8139.000000
2340, 25094080.000000, 1941.000000, 8162.000000, 8144.000000, 8127.000000
2341, 25094240.000000, 2332.000000, 8154.000000, 8131.000000, 8113.000000
2342, 25094400.000000, 2687.000000, 8164.000000, 8140.000000, 8119.000000
2343, 25094560.000000, 2905.500000, 8163.000000, 8143.000000, 8123.000000
2344, 25094720.000000, 3005.000000, 8172.000000, 8144.000000, 8130.000000
2345, 25094880.000000, 3003.500000, 8161.000000, 8152.000000, 8135.000000
2346, 25095040.000000, 2917.000000, 8156.000000, 8144.000000, 8127.000000
2347, 25095200.000000, 2782.000000, 8148.000000, 8139.000000, 8119.000000
2348, 25095360.000000, 2614.000000, 8144.000000, 8195.000000, 8186.000000
2349, 25095520.000000, 2445.000000, 8570.000000, 8120.000000, 8287.000000
2350, 25095680.000000, 2271.000000, 8091.000000, 8082.000000, 8082.000000
2351, 25095840.000000, 2076.000000, 8037.000000, 8090.000000, 8002.000000
2352, 25096000.000000, 1919.000000, 8108.000000, 8161.000000, 8094.000000
2353, 25096160.000000, 1840.000000, 8167.000000, 8199.000000, 8180.000000
2354, 25096320.000000, 1798.000000, 8180.000000, 8198.000000, 8185.000000
2355, 25096480.000000, 1771.000000, 8187.000000, 8202.000000, 8192.000000
2356, 25096640.000000, 1737.000000, 8198.000000, 8220.000000, 8217.000000
2357, 25096800.000000, 1692.500000, 8218.000000, 8236.000000, 8238.000000
2358, 25096960.000000, 1632.000000, 8235.000000, 8240.000000, 8244.000000
2359, 25097120.000000, 1553.500000, 8269.000000, 8262.000000, 8286.000000
2360, 25097280.000000, 1456.000000, 8291.000000, 8279.000000, 8312.000000
2361, 25097440.000000, 1354.000000, 8299.000000, 8279.000000, 8315.000000
2362, 25097600.000000, 1271.000000, 8281.000000, 8260.000000, 8288.000000
2363, 25097760.000000, 1218.500000, 8231.000000, 8234.000000, 8245.000000
2364, 25097920.000000, 1191.000000, 8195.000000, 8206.000000, 8211.000000
2365, 25098080.000000, 1180.500000, 8171.000000, 8184.000000, 8177.000000
2366, 25098240.000000, 1188.000000, 8157.000000, 8178.000000, 8162.000000
2367, 25098400.000000, 1215.500000, 8169.000000, 8178.000000, 8172.000000
2368, 25098560.000000, 1248.000000, 8181.000000, 8182.000000, 8184.000000
2369, 25098720.000000, 1268.500000, 8184.000000, 8181.000000, 8183.000000
2370, 25098880.000000, 1275.000000, 8187.000000, 8177.000000, 8179.000000
2371, 25099040.000000, 1287.000000, 8185.000000, 8180.000000, 8182.000000
2372, 25099200.000000, 1347.000000, 8178.000000, 8179.000000, 8183.000000
2373, 25099360.000000, 1543.000000, 8181.000000, 8174.000000, 8176.000000
2374, 25099520.000000, 1884.000000, 8172.000000, 8174.000000, 8172.000000
2375, 25099680.000000, 2324.500000, 8176.000000, 8170.000000, 8165.000000
2376, 25099840.000000, 2728.000000, 8179.000000, 8179.000000, 8172.000000
2377, 25100000.000000, 3017.000000, 8176.000000, 8180.000000, 8165.000000
2378, 25100160.000000, 3209.000000, 8182.000000, 8172.000000, 8169.000000
2379, 25100320.000000, 3336.000000, 8175.000000, 8174.000000, 8172.000000
2380, 25100480.000000, 3403.000000, 8173.000000, 8165.000000, 8160.000000
2381, 25100640.000000, 3399.000000, 8174.000000, 8175.000000, 8174.000000
2382, 25100800.000000, 3328.000000, 8165.000000, 8179.000000, 8178.000000
2383, 25100960.000000, 3196.000000, 8328.000000, 8262.000000, 8332.000000
2384, 25101120.000000, 3043.000000, 8504.000000, 8033.000000, 8198.000000
2385, 25101280.000000, 2887.000000, 8050.000000, 8107.000000, 8056.000000
2386, 25101440.000000, 2742.000000, 8093.000000, 8159.000000, 8088.000000
2387, 25101600.000000, 2617.500000, 8162.000000, 8209.000000, 8204.000000
2388, 25101760.000000, 2521.000000, 8175.000000, 8217.000000, 8215.000000
2389, 25101920.000000, 2445.000000, 8187.000000, 8220.000000, 8224.000000
2390, 25102080.000000, 2384.000000, 8198.000000, 8234.000000, 8243.000000
2391, 25102240.000000, 2323.500000, 8212.000000, 8240.000000, 8256.000000
2392, 25102400.000000, 2253.000000, 8216.000000, 8256.000000, 8275.000000
2393, 25102560.000000, 2165.000000, 8239.000000, 8275.000000, 8299.000000
2394, 25102720.000000, 2068.000000, 8274.000000, 8300.000000, 8340.000000
2395, 25102880.000000, 1973.000000, 8279.000000, 8302.000000, 8345.000000
2396, 25103040.000000, 1880.000000, 8266.000000, 8282.000000, 8320.000000
2397, 25103200.000000, 1792.500000, 8228.000000, 8253.000000, 8276.000000
2398, 25103360.000000, 1713.000000, 8183.000000, 8212.000000, 8219.000000
2399, 25103520.000000, 1650.000000, 8149.000000, 8172.000000, 8159.000000
2400, 25103680.000000, 1602.000000, 8146.000000, 8158.000000, 8147.000000
2401, 25103840.000000, 1565.500000, 8143.000000, 8149.000000, 8134.000000
2402, 25104000.000000, 1535.000000, 8145.000000, 8145.000000, 8131.000000
2403, 25104160.000000, 1499.000000, 8148.000000, 8140.000000, 8128.000000
2404, 25104320.000000, 1455.000000, 8155.000000, 8137.000000, 8124.000000
2405, 25104480.000000, 1401.000000, 8146.000000, 8139.000000, 8118.000000
2406, 25104640.000000, 1363.000000, 8143.000000, 8135.000000, 8108.000000
2407, 25104800.000000, 1419.500000, 8139.000000, 8133.000000, 8103.000000
2408, 25104960.000000, 1609.000000, 8138.000000, 8133.000000, 8102.000000
2409, 25105120.000000, 1923.500000, 8131.000000, 8136.000000, 8103.000000
2410, 25105280.000000, 2250.000000, 8136.000000, 8135.000000, 8105.000000
2411, 25105440.000000, 2505.500000, 8141.000000, 8152.000000, 8119.000000
2412, 25105600.000000, 2663.000000, 8143.000000, 8155.000000, 8118.000000
2413, 25105760.000000, 2724.500000, 8157.000000, 8145.000000, 8117.000000
2414, 25105920.000000, 2719.000000, 8152.000000, 8155.000000, 8136.000000
2415, 25106080.000000, 2665.000000, 8148.000000, 8169.000000, 8149.000000
2416, 25106240.000000, 2593.000000, 8151.000000, 8173.000000, 8153.000000
2417, 25106400.000000, 2503.500000, 8143.000000, 8190.000000, 8169.000000
2418, 25106560.000000, 2378.000000, 8383.000000, 8231.000000, 8319.000000
2419, 25106720.000000, 2220.000000, 8444.000000, 7995.000000, 8130.000000
2420, 25106880.000000, 2063.000000, 8031.000000, 8091.000000, 8009.000000
2421, 25107040.000000, 1940.000000, 8098.000000, 8172.000000, 8095.000000
2422, 25107200.000000, 1859.000000, 8167.000000, 8217.000000, 8202.000000
2423, 25107360.000000, 1816.500000, 8184.000000, 8225.000000, 8223.000000
2424, 25107520.000000, 1791.000000, 8193.000000, 8228.000000, 8226.000000
2425, 25107680.000000, 1777.000000, 8196.000000, 8234.000000, 8230.000000
2426, 25107840.000000, 1756.000000, 8207.000000, 8247.000000, 8250.000000
2427, 25108000.000000, 1715.000000, 8230.000000, 8266.000000, 8282.000000
2428, 25108160.000000, 1656.000000, 8249.000000, 8293.000000, 8318.000000
2429, 25108320.000000, 1604.000000, 8270.000000, 8312.000000, 8343.000000
2430, 25108480.000000, 1569.000000, 8279.000000, 8310.000000, 8345.000000
2431, 25108640.000000, 1556.000000, 8268.000000, 8294.000000, 8326.000000
2432, 25108800.000000, 1549.000000, 8234.000000, 8258.000000, 8279.000000
2433, 25108960.000000, 1531.500000, 8188.000000, 8218.000000, 8218.000000
2434, 25109120.000000, 1512.000000, 8164.000000, 8179.000000, 8166.000000
2435, 25109280.000000, 1502.500000, 8149.000000, 8161.000000, 8142.000000
2436, 25109440.000000, 1513.000000, 8146.000000, 8164.000000, 8143.000000
2437, 25109600.000000, 1533.000000, 8155.000000, 8172.000000, 8157.000000
2438, 25109760.000000, 1542.000000, 8160.000000, 8172.000000, 8160.000000
2439, 25109920.000000, 1531.000000, 8164.000000, 8169.000000, 8158.000000
2440, 25110080.000000, 1528.000000, 8157.000000, 8164.000000, 8152.000000
2441, 25110240.000000, 1583.500000, 8161.000000, 8158.000000, 8145.000000
2442, 25110400.000000, 1746.000000, 8159.000000, 8163.000000, 8150.000000
2443, 25110560.000000, 2037.000000, 8155.000000, 8158.000000, 8139.000000
2444, 25110720.000000, 2419.000000, 8156.000000, 8156.000000, 8139.000000
2445, 25110880.000000, 2819.500000, 8152.000000, 8154.000000, 8135.000000
2446, 25111040.000000, 3161.000000, 8164.000000, 8172.000000, 8151.000000
2447, 25111200.000000, 3373.000000, 8156.000000, 8159.000000, 8134.000000
2448, 25111360.000000, 3467.000000, 8164.000000, 8157.000000, 8134.000000
2449, 25111520.000000, 3461.000000, 8178.000000, 8165.000000, 8163.000000
2450, 25111680.000000, 3404.000000, 8171.000000, 8167.000000, 8168.000000
2451, 25111840.000000, 3313.000000, 8176.000000, 8175.000000, 8175.000000
2452, 25112000.000000, 3181.000000, 8150.000000, 8213.000000, 8216.000000
2453, 25112160.000000, 2999.500000, 8519.000000, 8157.000000, 8314.000000
2454, 25112320.000000, 2790.000000, 8254.000000, 8020.000000, 8090.000000
2455, 25112480.000000, 2590.500000, 8038.000000, 8087.000000, 8004.000000
2456, 25112640.000000, 2431.000000, 8114.000000, 8177.000000, 8128.000000
2457, 25112800.000000, 2320.500000, 8163.000000, 8208.000000, 8196.000000
2458, 25112960.000000, 2237.000000, 8179.000000, 8206.000000, 8203.000000
2459, 25113120.000000, 2169.000000, 8185.000000, 8195.000000, 8195.000000
2460, 25113280.000000, 2109.000000, 8196.000000, 8171.000000, 8171.000000
2461, 25113440.000000, 2047.500000, 8198.000000, 8164.000000, 8167.000000
2462, 25113600.000000, 1975.000000, 8218.000000, 8161.000000, 8175.000000
2463, 25113760.000000, 1889.500000, 8246.000000, 8162.000000, 8191.000000
2464, 25113920.000000, 1792.000000, 8264.000000, 8161.000000, 8198.000000
2465, 25114080.000000, 1687.000000, 8277.000000, 8154.000000, 8192.000000
2466, 25114240.000000, 1589.000000, 8256.000000, 8131.000000, 8159.000000
2467, 25114400.000000, 1509.500000, 8217.000000, 8106.000000, 8126.000000
2468, 25114560.000000, 1444.000000, 8174.000000, 8074.000000, 8079.000000
2469, 25114720.000000, 1374.000000, 8154.000000, 8052.000000, 8050.000000
2470, 25114880.000000, 1295.000000, 8142.000000, 8050.000000, 8038.000000
2471, 25115040.000000, 1214.000000, 8142.000000, 8060.000000, 8050.000000
2472, 25115200.000000, 1152.000000, 8150.000000, 8068.000000, 8059.000000
2473, 25115360.000000, 1116.500000, 8153.000000, 8076.000000, 8063.000000
2474, 25115520.000000, 1091.000000, 8158.000000, 8068.000000, 8059.000000
2475, 25115680.000000, 1071.500000, 8165.000000, 8074.000000, 8063.000000
2476, 25115840.000000, 1104.000000, 8165.000000, 8088.000000, 8075.000000
2477, 25116000.000000, 1271.500000, 8171.000000, 8095.000000, 8082.000000
2478, 25116160.000000, 1584.000000, 8165.000000, 8236.000000, 8219.000000
2479, 25116320.000000, 1996.500000, 8175.000000, 8252.000000, 8240.000000
2480, 25116480.000000, 2395.000000, 8169.000000, 8250.000000, 8238.000000
2481, 25116640.000000, 2696.500000, 8164.000000, 8247.000000, 8224.000000
2482, 25116800.000000, 2875.000000, 8174.000000, 8254.000000, 8229.000000
2483, 25116960.000000, 2942.500000, 8192.000000, 8242.000000, 8235.000000
2484, 25117120.000000, 2942.000000, 8185.000000, 8239.000000, 8230.000000
2485, 25117280.000000, 2910.500000, 8177.000000, 8236.000000, 8227.000000
2486, 25117440.000000, 2864.000000, 8180.000000, 8231.000000, 8224.000000
2487, 25117600.000000, 2786.000000, 8186.000000, 8228.000000, 8223.000000
2488, 25117760.000000, 2667.000000, 8191.000000, 8320.000000, 8332.000000
2489, 25117920.000000, 2515.000000, 8722.000000, 8093.000000, 8329.000000
2490, 25118080.000000, 2373.000000, 8041.000000, 8108.000000, 8067.000000
2491, 25118240.000000, 2270.000000, 8075.000000, 8167.000000, 8078.000000
2492, 25118400.000000, 2211.000000, 8155.000000, 8259.000000, 8240.000000
2493, 25118560.000000, 2190.000000, 8177.000000, 8269.000000, 8268.000000
2494, 25118720.000000, 2187.000000, 8184.000000, 8265.000000, 8265.000000
2495, 25118880.000000, 2173.500000, 8195.000000, 8272.000000, 8275.000000
2496, 25119040.000000, 2136.000000, 8200.000000, 8287.000000, 8291.000000
2497, 25119200.000000, 2077.000000, 8217.000000, 8296.000000, 8310.000000
2498, 25119360.000000, 2018.000000, 8231.000000, 8309.000000, 8328.000000
2499, 25119520.000000, 1961.500000, 8256.000000, 8334.000000, 8368.000000
2500, 25119680.000000, 1900.000000, 8279.000000, 8342.000000, 8381.000000
2501, 25119840.000000, 1837.500000, 8279.000000, 8331.000000, 8370.000000
2502, 25120000.000000, 1788.000000, 8247.000000, 8298.000000, 8328.000000
2503, 25120160.000000, 1755.000000, 8206.000000, 8259.000000, 8277.000000
2504, 25120320.000000, 1721.000000, 8171.000000, 8216.000000, 8213.000000
2505, 25120480.000000, 1679.000000, 8155.000000, 8197.000000, 8184.000000
2506, 25120640.000000, 1635.000000, 8163.000000, 8204.000000, 8196.000000
2507, 25120800.000000, 1595.500000, 8154.000000, 8193.000000, 8179.000000
2508, 25120960.000000, 1552.000000, 8163.000000, 8199.000000, 8189.000000
2509, 25121120.000000, 1502.500000, 8163.000000, 8192.000000, 8184.000000
2510, 25121280.000000, 1449.000000, 8169.000000, 8188.000000, 8182.000000
2511, 25121440.000000, 1414.500000, 8167.000000, 8184.000000, 8175.000000
2512, 25121600.000000, 1446.000000, 8153.000000, 8182.000000, 8167.000000
2513, 25121760.000000, 1607.000000, 8158.000000, 8179.000000, 8168.000000
2514, 25121920.000000, 1902.000000, 8158.000000, 8176.000000, 8161.000000
2515, 25122080.000000, 2265.000000, 8161.000000, 8174.000000, 8159.000000
2516, 25122240.000000, 2606.000000, 8158.000000, 8175.000000, 8156.000000
2517, 25122400.000000, 2844.000000, 8156.000000, 8175.000000, 8154.000000
2518, 25122560.000000, 2976.000000, 8170.000000, 8184.000000, 8161.000000
2519, 25122720.000000, 3001.500000, 8175.000000, 8163.000000, 8147.000000
2520, 25122880.000000, 2961.000000, 8179.000000, 8148.000000, 8133.000000
2521, 25123040.000000, 2873.500000, 8178.000000, 8143.000000, 8135.000000
2522, 25123200.000000, 2760.000000, 8169.000000, 8135.000000, 8123.000000
2523, 25123360.000000, 2626.500000, 8170.000000, 8124.000000, 8111.000000
2524, 25123520.000000, 2469.000000, 8160.000000, 8164.000000, 8168.000000
2525, 25123680.000000, 2292.500000, 8631.000000, 8022.000000, 8216.000000
2526, 25123840.000000, 2126.000000, 8091.000000, 7977.000000, 7973.000000
2527, 25124000.000000, 2000.000000, 8049.000000, 7983.000000, 7897.000000
2528, 25124160.000000, 1912.000000, 8118.000000, 8042.000000, 7990.000000
2529, 25124320.000000, 1846.000000, 8168.000000, 8069.000000, 8064.000000
2530, 25124480.000000, 1790.000000, 8169.000000, 8069.000000, 8059.000000
2531, 25124640.000000, 1736.500000, 8177.000000, 8078.000000, 8069.000000
2532, 25124800.000000, 1672.000000, 8179.000000, 8091.000000, 8078.000000
2533, 25124960.000000, 1588.500000, 8200.000000, 8115.000000, 8110.000000
2534, 25125120.000000, 1494.000000, 8216.000000, 8142.000000, 8147.000000
2535, 25125280.000000, 1403.000000, 8244.000000, 8170.000000, 8184.000000
2536, 25125440.000000, 1324.000000, 8269.000000, 8189.000000, 8213.000000
2537, 25125600.000000, 1250.000000, 8281.000000, 8197.000000, 8227.000000
2538, 25125760.000000, 1185.000000, 8270.000000, 8191.000000, 8212.000000
2539, 25125920.000000, 1129.000000, 8228.000000, 8176.000000, 8183.000000
2540, 25126080.000000, 1082.000000, 8189.000000, 8156.000000, 8151.000000
2541, 25126240.000000, 1046.000000, 8162.000000, 8131.000000, 8110.000000
2542, 25126400.000000, 1023.000000, 8158.000000, 8131.000000, 8110.000000
2543, 25126560.000000, 1020.500000, 8158.000000, 8133.000000, 8118.000000
2544, 25126720.000000, 1035.000000, 8173.000000, 8139.000000, 8132.000000
2545, 25126880.000000, 1059.500000, 8178.000000, 8140.000000, 8138.000000
2546, 25127040.000000, 1074.000000, 8183.000000, 8142.000000, 8141.000000
2547, 25127200.000000, 1086.000000, 8188.000000, 8140.000000, 8140.000000
2548, 25127360.000000, 1137.000000, 8175.000000, 8142.000000, 8136.000000
2549, 25127520.000000, 1317.500000, 8170.000000, 8141.000000, 8134.000000
2550, 25127680.000000, 1641.000000, 8174.000000, 8144.000000, 8139.000000
2551, 25127840.000000, 2063.000000, 8173.000000, 8147.000000, 8140.000000
2552, 25128000.000000, 2467.000000, 8170.000000, 8154.000000, 8143.000000
2553, 25128160.000000, 2777.500000, 8178.000000, 8158.000000, 8136.000000
2554, 25128320.000000, 2970.000000, 8189.000000, 8152.000000, 8145.000000
2555, 25128480.000000, 3063.000000, 8183.000000, 8157.000000, 8152.000000
2556, 25128640.000000, 3084.000000, 8174.000000, 8155.000000, 8146.000000
2557, 25128800.000000, 3055.000000, 8183.000000, 8155.000000, 8152.000000
2558, 25128960.000000, 3011.000000, 8185.000000, 8155.000000, 8152.000000
2559, 25129120.000000, 2965.500000, 8217.000000, 8242.000000, 8264.000000
2560, 25129280.000000, 2898.000000, 8654.000000, 8066.000000, 8273.000000
2561, 25129440.000000, 2781.000000, 8044.000000, 8086.000000, 8053.000000
2562, 25129600.000000, 2638.000000, 8080.000000, 8118.000000, 8037.000000
2563, 25129760.000000, 2520.000000, 8153.000000, 8190.000000, 8169.000000
2564, 25129920.000000, 2451.000000, 8175.000000, 8199.000000, 8197.000000
2565, 25130080.000000, 2405.000000, 8188.000000, 8205.000000, 8209.000000
2566, 25130240.000000, 2349.000000, 8192.000000, 8210.000000, 8211.000000
2567, 25130400.000000, 2268.000000, 8198.000000, 8222.000000, 8231.000000
2568, 25130560.000000, 2172.000000, 8222.000000, 8233.000000, 8248.000000
2569, 25130720.000000, 2076.500000, 8244.000000, 8253.000000, 8275.000000
2570, 25130880.000000, 1997.000000, 8254.000000, 8281.000000, 8307.000000
2571, 25131040.000000, 1923.500000, 8275.000000, 8312.000000, 8344.000000
2572, 25131200.000000, 1833.000000, 8273.000000, 8393.000000, 8424.000000
2573, 25131360.000000, 1725.500000, 8242.000000, 8385.000000, 8405.000000
2574, 25131520.000000, 1619.000000, 8197.000000, 8359.000000, 8363.000000
2575, 25131680.000000, 1539.000000, 8152.000000, 8314.000000, 8295.000000
2576, 25131840.000000, 1491.000000, 8143.000000, 8292.000000, 8271.000000
2577, 25132000.000000, 1468.000000, 8133.000000, 8287.000000, 8261.000000
2578, 25132160.000000, 1452.000000, 8140.000000, 8285.000000, 8258.000000
2579, 25132320.000000, 1424.500000, 8143.000000, 8283.000000, 8258.000000
2580, 25132480.000000, 1381.000000, 8150.000000, 8268.000000, 8251.000000
2581, 25132640.000000, 1334.500000, 8161.000000, 8269.000000, 8256.000000
2582, 25132800.000000, 1298.000000, 8167.000000, 8262.000000, 8253.000000
2583, 25132960.000000, 1309.500000, 8160.000000, 8253.000000, 8243.000000
2584, 25133120.000000, 1415.000000, 8159.000000, 8237.000000, 8228.000000
2585, 25133280.000000, 1661.500000, 8158.000000, 8227.000000, 8216.000000
2586, 25133440.000000, 2007.000000, 8165.000000, 8222.000000, 8215.000000
2587, 25133600.000000, 2356.000000, 8160.000000, 8201.000000, 8191.000000
2588, 25133760.000000, 2618.000000, 8158.000000, 8188.000000, 8181.000000
2589, 25133920.000000, 2749.500000, 8169.000000, 8174.000000, 8164.000000
2590, 25134080.000000, 2779.000000, 8176.000000, 8159.000000, 8152.000000
2591, 25134240.000000, 2737.500000, 8170.000000, 8157.000000, 8154.000000
2592, 25134400.000000, 2661.000000, 8167.000000, 8150.000000, 8145.000000
2593, 25134560.000000, 2557.500000, 8163.000000, 8154.000000, 8150.000000
2594, 25134720.000000, 2421.000000, 8168.000000, 8165.000000, 8170.000000
2595, 25134880.000000, 2255.000000, 8354.000000, 8200.000000, 8277.000000
2596, 25135040.000000, 2073.000000, 8458.000000, 7939.000000, 8075.000000
2597, 25135200.000000, 1908.000000, 8010.000000, 8052.000000, 7954.000000
2598, 25135360.000000, 1783.000000, 8078.000000, 8148.000000, 8067.000000
2599, 25135520.000000, 1721.500000, 8145.000000, 8210.000000, 8188.000000
2600, 25135680.000000, 1701.000000, 8161.000000, 8231.000000, 8212.000000
2601, 25135840.000000, 1698.000000, 8174.000000, 8269.000000, 8256.000000
2602, 25136000.000000, 1681.000000, 8179.000000, 8280.000000, 8273.000000
2603, 25136160.000000, 1643.000000, 8189.000000, 8292.000000, 8287.000000
2604, 25136320.000000, 1590.000000, 8208.000000, 8307.000000, 8313.000000
2605, 25136480.000000, 1534.500000, 8235.000000, 8331.000000, 8347.000000
2606, 25136640.000000, 1484.000000, 8263.000000, 8348.000000, 8374.000000
2607, 25136800.000000, 1438.000000, 8274.000000, 8350.000000, 8382.000000
2608, 25136960.000000, 1391.000000, 8273.000000, 8325.000000, 8350.000000
2609, 25137120.000000, 1349.000000, 8235.000000, 8289.000000, 8305.000000
2610, 25137280.000000, 1312.000000, 8195.000000, 8250.000000, 8251.000000
2611, 25137440.000000, 1284.500000, 8167.000000, 8212.000000, 8199.000000
2612, 25137600.000000, 1265.000000, 8156.000000, 8196.000000, 8175.000000
2613, 25137760.000000, 1256.500000, 8156.000000, 8205.000000, 8182.000000
2614, 25137920.000000, 1253.000000, 8157.000000, 8193.000000, 8175.000000
2615, 25138080.000000, 1250.000000, 8166.000000, 8197.000000, 8183.000000
2616, 25138240.000000, 1254.000000, 8170.000000, 8201.000000, 8188.000000
2617, 25138400.000000, 1261.000000, 8170.000000, 8209.000000, 8194.000000
2618, 25138560.000000, 1281.000000, 8167.000000, 8210.000000, 8191.000000
2619, 25138720.000000, 1361.500000, 8176.000000, 8212.000000, 8201.000000
2620, 25138880.000000, 1567.000000, 8172.000000, 8265.000000, 8253.000000
2621, 25139040.000000, 1926.000000, 8172.000000, 8272.000000, 8256.000000
2622, 25139200.000000, 2360.000000, 8169.000000, 8267.000000, 8253.000000
2623, 25139360.000000, 2767.500000, 8156.000000, 8261.000000, 8242.000000
2624, 25139520.000000, 3076.000000, 8158.000000, 8259.000000, 8240.000000
2625, 25139680.000000, 3254.500000, 8158.000000, 8259.000000, 8232.000000
2626, 25139840.000000, 3330.000000, 8173.000000, 8241.000000, 8222.000000
2627, 25140000.000000, 3334.500000, 8177.000000, 8239.000000, 8228.000000
2628, 25140160.000000, 3294.000000, 8161.000000, 8232.000000, 8219.000000
2629, 25140320.000000, 3214.000000, 8164.000000, 8230.000000, 8213.000000
2630, 25140480.000000, 3094.000000, 8160.000000, 8222.000000, 8208.000000
2631, 25140640.000000, 2932.000000, 8251.000000, 8315.000000, 8347.000000
2632, 25140800.000000, 2753.000000, 8644.000000, 8038.000000, 8248.000000
2633, 25140960.000000, 2588.000000, 8029.000000, 8105.000000, 8038.000000
2634, 25141120.000000, 2460.000000, 8076.000000, 8171.000000, 8083.000000
2635, 25141280.000000, 2369.500000, 8154.000000, 8240.000000, 8220.000000
2636, 25141440.000000, 2298.000000, 8174.000000, 8249.000000, 8242.000000
2637, 25141600.000000, 2228.000000, 8190.000000, 8248.000000, 8244.000000
2638, 25141760.000000, 2155.000000, 8195.000000, 8262.000000, 8269.000000
2639, 25141920.000000, 2074.000000, 8213.000000, 8267.000000, 8286.000000
2640, 25142080.000000, 1984.000000, 8226.000000, 8289.000000, 8317.000000
2641, 25142240.000000, 1882.500000, 8244.000000, 8305.000000, 8343.000000
2642, 25142400.000000, 1778.000000, 8266.000000, 8327.000000, 8367.000000
2643, 25142560.000000, 1678.000000, 8280.000000, 8331.000000, 8377.000000
2644, 25142720.000000, 1589.000000, 8271.000000, 8310.000000, 8350.000000
2645, 25142880.000000, 1516.000000, 8245.000000, 8269.000000, 8299.000000
2646, 25143040.000000, 1456.000000, 8199.000000, 8225.000000, 8233.000000
2647, 25143200.000000, 1401.500000, 8159.000000, 8175.000000, 8166.000000
2648, 25143360.000000, 1353.000000, 8151.000000, 8136.000000, 8122.000000
2649, 25143520.000000, 1315.500000, 8146.000000, 8121.000000, 8104.000000
2650, 25143680.000000, 1290.000000, 8149.000000, 8112.000000, 8101.000000
2651, 25143840.000000, 1273.000000, 8158.000000, 8102.000000, 8095.000000
2652, 25144000.000000, 1256.000000, 8159.000000, 8090.000000, 8083.000000
2653, 25144160.000000, 1226.000000, 8154.000000, 8074.000000, 8060.000000
2654, 25144320.000000, 1187.000000, 8151.000000, 8077.000000, 8065.000000
2655, 25144480.000000, 1189.000000, 8151.000000, 8066.000000, 8052.000000
2656, 25144640.000000, 1307.000000, 8153.000000, 8065.000000, 8050.000000
2657, 25144800.000000, 1587.000000, 8152.000000, 8069.000000, 8052.000000
2658, 25144960.000000, 1970.000000, 8160.000000, 8072.000000, 8058.000000
2659, 25145120.000000, 2340.500000, 8158.000000, 8081.000000, 8072.000000
2660, 25145280.000000, 2608.000000, 8143.000000, 8072.000000, 8047.000000
2661, 25145440.000000, 2736.500000, 8141.000000, 8086.000000, 8055.000000
2662, 25145600.000000, 2759.000000, 8150.000000, 8098.000000, 8061.000000
2663, 25145760.000000, 2705.500000, 8156.000000, 8100.000000, 8071.000000
2664, 25145920.000000, 2623.000000, 8151.000000, 8107.000000, 8079.000000
2665, 25146080.000000, 2520.500000, 8146.000000, 8115.000000, 8084.000000
2666, 25146240.000000, 2390.000000, 8148.000000, 8140.000000, 8114.000000
2667, 25146400.000000, 2228.500000, 8147.000000, 8175.000000, 8154.000000
2668, 25146560.000000, 2050.000000, 8401.000000, 8207.000000, 8295.000000
2669, 25146720.000000, 1889.500000, 8442.000000, 7955.000000, 8081.000000
2670, 25146880.000000, 1768.000000, 8025.000000, 8066.000000, 7964.000000
2671, 25147040.000000, 1694.000000, 8107.000000, 8170.000000, 8099.000000
2672, 25147200.000000, 1658.000000, 8168.000000, 8218.000000, 8199.000000
2673, 25147360.000000, 1655.500000, 8182.000000, 8235.000000, 8222.000000
2674, 25147520.000000, 1667.000000, 8190.000000, 8262.000000, 8250.000000
2675, 25147680.000000, 1677.000000, 8198.000000, 8282.000000, 8279.000000
2676, 25147840.000000, 1668.000000, 8209.000000, 8303.000000, 8305.000000
2677, 25148000.000000, 1631.500000, 8226.000000, 8324.000000, 8330.000000
2678, 25148160.000000, 1567.000000, 8252.000000, 8350.000000, 8369.000000
2679, 25148320.000000, 1476.500000, 8275.000000, 8372.000000, 8402.000000
2680, 25148480.000000, 1388.000000, 8280.000000, 8373.000000, 8403.000000
2681, 25148640.000000, 1321.000000, 8271.000000, 8356.000000, 8384.000000
2682, 25148800.000000, 1274.000000, 8240.000000, 8313.000000, 8332.000000
2683, 25148960.000000, 1236.500000, 8195.000000, 8260.000000, 8263.000000
2684, 25149120.000000, 1208.000000, 8169.000000, 8218.000000, 8206.000000
2685, 25149280.000000, 1200.000000, 8156.000000, 8205.000000, 8186.000000
2686, 25149440.000000, 1209.000000, 8161.000000, 8204.000000, 8185.000000
2687, 25149600.000000, 1228.500000, 8160.000000, 8196.000000, 8182.000000
2688, 25149760.000000, 1242.000000, 8170.000000, 8190.000000, 8181.000000
2689, 25149920.000000, 1254.500000, 8175.000000, 8182.000000, 8172.000000
2690, 25150080.000000, 1280.000000, 8177.000000, 8178.000000, 8171.000000
2691, 25150240.000000, 1329.500000, 8166.000000, 8169.000000, 8159.000000
2692, 25150400.000000, 1430.000000, 8165.000000, 8170.000000, 8157.000000
2693, 25150560.000000, 1646.000000, 8167.000000, 8168.000000, 8159.000000
2694, 25150720.000000, 1972.000000, 8170.000000, 8169.000000, 8162.000000
2695, 25150880.000000, 2356.500000, 8164.000000, 8166.000000, 8159.000000
2696, 25151040.000000, 2703.000000, 8169.000000, 8168.000000, 8160.000000
2697, 25151200.000000, 2949.000000, 8160.000000, 8163.000000, 8151.000000
2698, 25151360.000000, 3070.000000, 8173.000000, 8171.000000, 8154.000000
2699, 25151520.000000, 3075.500000, 8179.000000, 8167.000000, 8158.000000
2700, 25151680.000000, 3007.000000, 8179.000000, 8167.000000, 8160.000000
2701, 25151840.000000, 2917.000000, 8170.000000, 8163.000000, 8148.000000
2702, 25152000.000000, 2828.000000, 8166.000000, 8164.000000, 8152.000000
2703, 25152160.000000, 2721.500000, 8178.000000, 8168.000000, 8162.000000
2704, 25152320.000000, 2583.000000, 8178.000000, 8250.000000, 8258.000000
2705, 25152480.000000, 2422.500000, 8701.000000, 8065.000000, 8291.000000
2706, 25152640.000000, 2269.000000, 8044.000000, 8072.000000, 8043.000000
2707, 25152800.000000, 2151.500000, 8070.000000, 8111.000000, 8025.000000
2708, 25152960.000000, 2078.000000, 8151.000000, 8196.000000, 8174.000000
2709, 25153120.000000, 2032.500000, 8177.000000, 8208.000000, 8205.000000
2710, 25153280.000000, 1993.000000, 8190.000000, 8213.000000, 8215.000000
2711, 25153440.000000, 1939.000000, 8198.000000, 8225.000000, 8232.000000
2712, 25153600.000000, 1869.000000, 8211.000000, 8228.000000, 8240.000000
2713, 25153760.000000, 1787.000000, 8224.000000, 8237.000000, 8251.000000
2714, 25153920.000000, 1705.000000, 8237.000000, 8245.000000, 8266.000000
2715, 25154080.000000, 1629.500000, 8275.000000, 8252.000000, 8288.000000
2716, 25154240.000000, 1560.000000, 8283.000000, 8254.000000, 8298.000000
2717, 25154400.000000, 1497.000000, 8287.000000, 8251.000000, 8295.000000
2718, 25154560.000000, 1437.000000, 8263.000000, 8220.000000, 8258.000000
2719, 25154720.000000, 1374.000000, 8221.000000, 8188.000000, 8212.000000
2720, 25154880.000000, 1315.000000, 8184.000000, 8146.000000, 8156.000000
2721, 25155040.000000, 1258.500000, 8158.000000, 8123.000000, 8120.000000
2722, 25155200.000000, 1208.000000, 8140.000000, 8118.000000, 8105.000000
2723, 25155360.000000, 1166.500000, 8157.000000, 8120.000000, 8118.000000
2724, 25155520.000000, 1132.000000, 8158.000000, 8118.000000, 8107.000000
2725, 25155680.000000, 1101.000000, 8167.000000, 8188.000000, 8177.000000
2726, 25155840.000000, 1069.000000, 8153.000000, 8185.000000, 8166.000000
2727, 25156000.000000, 1026.500000, 8158.000000, 8183.000000, 8170.000000
2728, 25156160.000000, 989.000000, 8153.000000, 8179.000000, 8164.000000
2729, 25156320.000000, 1023.000000, 8160.000000, 8177.000000, 8159.000000
2730, 25156480.000000, 1205.000000, 8168.000000, 8177.000000, 8164.000000
2731, 25156640.000000, 1524.500000, 8159.000000, 8183.000000, 8168.000000
2732, 25156800.000000, 1899.000000, 8153.000000, 8185.000000, 8168.000000
2733, 25156960.000000, 2217.000000, 8167.000000, 8196.000000, 8175.000000
2734, 25157120.000000, 2437.000000, 8176.000000, 8195.000000, 8180.000000
2735, 25157280.000000, 2534.500000, 8177.000000, 8204.000000, 8191.000000
2736, 25157440.000000, 2545.000000, 8173.000000, 8216.000000, 8205.000000
2737, 25157600.000000, 2501.500000, 8181.000000, 8220.000000, 8214.000000
2738, 25157760.000000, 2434.000000, 8187.000000, 8221.000000, 8221.000000
2739, 25157920.000000, 2340.500000, 8183.000000, 8283.000000, 8298.000000
2740, 25158080.000000, 2213.000000, 8648.000000, 8165.000000, 8372.000000
2741, 25158240.000000, 2065.500000, 8092.000000, 8152.000000, 8158.000000
2742, 25158400.000000, 1929.000000, 8081.000000, 8161.000000, 8096.000000
2743, 25158560.000000, 1828.500000, 8151.000000, 8226.000000, 8196.000000
2744, 25158720.000000, 1757.000000, 8200.000000, 8243.000000, 8249.000000
2745, 25158880.000000, 1713.500000, 8208.000000, 8243.000000, 8249.000000
2746, 25159040.000000, 1693.000000, 8219.000000, 8251.000000, 8272.000000
2747, 25159200.000000, 1683.000000, 8219.000000, 8257.000000, 8274.000000
2748, 25159360.000000, 1662.000000, 8242.000000, 8265.000000, 8291.000000
2749, 25159520.000000, 1621.000000, 8248.000000, 8277.000000, 8303.000000
2750, 25159680.000000, 1561.000000, 8268.000000, 8300.000000, 8336.000000
2751, 25159840.000000, 1501.000000, 8291.000000, 8315.000000, 8360.000000
2752, 25160000.000000, 1444.000000, 8293.000000, 8311.000000, 8353.000000
2753, 25160160.000000, 1397.500000, 8280.000000, 8286.000000, 8326.000000
2754, 25160320.000000, 1361.000000, 8228.000000, 8254.000000, 8275.000000
2755, 25160480.000000, 1346.500000, 8186.000000, 8218.000000, 8225.000000
2756, 25160640.000000, 1346.000000, 8161.000000, 8195.000000, 8188.000000
2757, 25160800.000000, 1358.000000, 8159.000000, 8194.000000, 8185.000000
2758, 25160960.000000, 1373.000000, 8158.000000, 8186.000000, 8177.000000
2759, 25161120.000000, 1383.500000, 8162.000000, 8186.000000, 8181.000000
2760, 25161280.000000, 1392.000000, 8161.000000, 8186.000000, 8181.000000
2761, 25161440.000000, 1406.500000, 8171.000000, 8186.000000, 8183.000000
2762, 25161600.000000, 1420.000000, 8169.000000, 8183.000000, 8181.000000
2763, 25161760.000000, 1426.500000, 8166.000000, 8175.000000, 8169.000000
2764, 25161920.000000, 1451.000000, 8163.000000, 8166.000000, 8162.000000
2765, 25162080.000000, 1566.000000, 8160.000000, 8168.000000, 8156.000000
2766, 25162240.000000, 1808.000000, 8163.000000, 8171.000000, 8163.000000
2767, 25162400.000000, 2165.000000, 8154.000000, 8168.000000, 8156.000000
2768, 25162560.000000, 2530.000000, 8165.000000, 8184.000000, 8179.000000
2769, 25162720.000000, 2805.500000, 8173.000000, 8176.000000, 8169.000000
2770, 25162880.000000, 2961.000000, 8177.000000, 8170.000000, 8161.000000
2771, 25163040.000000, 3013.000000, 8162.000000, 8168.000000, 8155.000000
2772, 25163200.000000, 2993.000000, 8163.000000, 8175.000000, 8165.000000
2773, 25163360.000000, 2925.000000, 8164.000000, 8176.000000, 8165.000000
2774, 25163520.000000, 2826.000000, 8156.000000, 8244.000000, 8251.000000
2775, 25163680.000000, 2690.500000, 8624.000000, 8097.000000, 8294.000000
2776, 25163840.000000, 2530.000000, 8068.000000, 8047.000000, 8028.000000
2777, 25164000.000000, 2363.000000, 8056.000000, 8100.000000, 8017.000000
2778, 25164160.000000, 2215.000000, 8132.000000, 8183.000000, 8144.000000
2779, 25164320.000000, 2102.500000, 8166.000000, 8209.000000, 8197.000000
2780, 25164480.000000, 2036.000000, 8182.000000, 8225.000000, 8222.000000
2781, 25164640.000000, 2005.500000, 8191.000000, 8247.000000, 8257.000000
2782, 25164800.000000, 1989.000000, 8202.000000, 8253.000000, 8273.000000
2783, 25164960.000000, 1954.500000, 8215.000000, 8256.000000, 8280.000000
2784, 25165120.000000, 1895.000000, 8236.000000, 8281.000000, 8315.000000
2785, 25165280.000000, 1813.500000, 8260.000000, 8306.000000, 8352.000000
2786, 25165440.000000, 1720.000000, 8272.000000, 8312.000000, 8360.000000
2787, 25165600.000000, 1625.500000, 8272.000000, 8304.000000, 8346.000000
2788, 25165760.000000, 1531.000000, 8256.000000, 8277.000000, 8311.000000
2789, 25165920.000000, 1431.500000, 8205.000000, 8235.000000, 8249.000000
2790, 25166080.000000, 1333.000000, 8162.000000, 8183.000000, 8172.000000
2791, 25166240.000000, 1250.000000, 8134.000000, 8153.000000, 8122.000000
2792, 25166400.000000, 1178.000000, 8124.000000, 8148.000000, 8112.000000
2793, 25166560.000000, 1100.000000, 8131.000000, 8156.000000, 8123.000000
2794, 25166720.000000, 1021.000000, 8137.000000, 8157.000000, 8122.000000
2795, 25166880.000000, 959.000000, 8139.000000, 8151.000000, 8113.000000
2796, 25167040.000000, 917.000000, 8140.000000, 8150.000000, 8113.000000
2797, 25167200.000000, 876.500000, 8136.000000, 8153.000000, 8111.000000
2798, 25167360.000000, 840.000000, 8141.000000, 8154.000000, 8113.000000
2799, 25167520.000000, 871.500000, 8138.000000, 8160.000000, 8121.000000
2800, 25167680.000000, 1030.000000, 8146.000000, 8167.000000, 8136.000000
2801, 25167840.000000, 1340.500000, 8150.000000, 8166.000000, 8131.000000
2802, 25168000.000000, 1728.000000, 8150.000000, 8176.000000, 8145.000000
2803, 25168160.000000, 2095.500000, 8156.000000, 8191.000000, 8156.000000
2804, 25168320.000000, 2379.000000, 8163.000000, 8171.000000, 8141.000000
2805, 25168480.000000, 2546.000000, 8155.000000, 8181.000000, 8154.000000
2806, 25168640.000000, 2612.000000, 8154.000000, 8165.000000, 8135.000000
2807, 25168800.000000, 2600.500000, 8162.000000, 8174.000000, 8151.000000
2808, 25168960.000000, 2552.000000, 8165.000000, 8174.000000, 8157.000000
2809, 25169120.000000, 2478.500000, 8258.000000, 8274.000000, 8307.000000
2810, 25169280.000000, 2373.000000, 8620.000000, 7999.000000, 8203.000000
2811, 25169440.000000, 2240.000000, 8035.000000, 8068.000000, 8001.000000
2812, 25169600.000000, 2095.000000, 8092.000000, 8158.000000, 8079.000000
2813, 25169760.000000, 1971.500000, 8174.000000, 8221.000000, 8214.000000
2814, 25169920.000000, 1884.000000, 8188.000000, 8227.000000, 8227.000000
2815, 25170080.000000, 1837.500000, 8200.000000, 8236.000000, 8244.000000
2816, 25170240.000000, 1820.000000, 8203.000000, 8243.000000, 8251.000000
2817, 25170400.000000, 1818.500000, 8208.000000, 8256.000000, 8266.000000
2818, 25170560.000000, 1826.000000, 8225.000000, 8272.000000, 8291.000000
2819, 25170720.000000, 1836.000000, 8238.000000, 8297.000000, 8325.000000
2820, 25170880.000000, 1842.000000, 8256.000000, 8323.000000, 8363.000000
2821, 25171040.000000, 1831.000000, 8276.000000, 8323.000000, 8368.000000
2822, 25171200.000000, 1798.000000, 8258.000000, 8311.000000, 8344.000000
2823, 25171360.000000, 1740.000000, 8237.000000, 8267.000000, 8296.000000
2824, 25171520.000000, 1686.000000, 8195.000000, 8227.000000, 8236.000000
2825, 25171680.000000, 1658.500000, 8161.000000, 8178.000000, 8173.000000
2826, 25171840.000000, 1658.000000, 8145.000000, 8164.000000, 8150.000000
2827, 25172000.000000, 1671.000000, 8151.000000, 8172.000000, 8160.000000
2828, 25172160.000000, 1696.000000, 8142.000000, 8167.000000, 8155.000000
2829, 25172320.000000, 1722.500000, 8154.000000, 8170.000000, 8162.000000
2830, 25172480.000000, 1734.000000, 8154.000000, 8167.000000, 8157.000000
2831, 25172640.000000, 1702.500000, 8160.000000, 8172.000000, 8162.000000
2832, 25172800.000000, 1650.000000, 8165.000000, 8164.000000, 8155.000000
2833, 25172960.000000, 1619.500000, 8149.000000, 8161.000000, 8142.000000
2834, 25173120.000000, 1673.000000, 8164.000000, 8168.000000, 8168.000000
2835, 25173280.000000, 1847.000000, 8168.000000, 8172.000000, 8173.000000
2836, 25173440.000000, 2131.000000, 8164.000000, 8169.000000, 8169.000000
2837, 25173600.000000, 2457.500000, 8170.000000, 8184.000000, 8171.000000
2838, 25173760.000000, 2754.000000, 8174.000000, 8170.000000, 8163.000000
2839, 25173920.000000, 2958.000000, 8184.000000, 8173.000000, 8177.000000
2840, 25174080.000000, 3063.000000, 8169.000000, 8173.000000, 8167.000000
2841, 25174240.000000, 3070.500000, 8164.000000, 8175.000000, 8160.000000
2842, 25174400.000000, 3017.000000, 8166.000000, 8179.000000, 8165.000000
2843, 25174560.000000, 2937.500000, 8229.000000, 8275.000000, 8303.000000
2844, 25174720.000000, 2841.000000, 8666.000000, 8010.000000, 8231.000000
2845, 25174880.000000, 2712.000000, 8021.000000, 8057.000000, 7994.000000
2846, 25175040.000000, 2550.000000, 8067.000000, 8121.000000, 8025.000000
2847, 25175200.000000, 2367.500000, 8155.000000, 8187.000000, 8170.000000
2848, 25175360.000000, 2165.000000, 8166.000000, 8200.000000, 8190.000000
2849, 25175520.000000, 2008.000000, 8174.000000, 8206.000000, 8203.000000
2850, 25175680.000000, 1911.000000, 8183.000000, 8210.000000, 8211.000000
2851, 25175840.000000, 1829.000000, 8189.000000, 8224.000000, 8227.000000
2852, 25176000.000000, 1752.000000, 8209.000000, 8246.000000, 8262.000000
2853, 25176160.000000, 1681.000000, 8229.000000, 8268.000000, 8294.000000
2854, 25176320.000000, 1609.000000, 8248.000000, 8294.000000, 8326.000000
2855, 25176480.000000, 1521.000000, 8258.000000, 8292.000000, 8327.000000
2856, 25176640.000000, 1418.000000, 8268.000000, 8284.000000, 8328.000000
2857, 25176800.000000, 1311.000000, 8240.000000, 8249.000000, 8282.000000
2858, 25176960.000000, 1218.000000, 8191.000000, 8206.000000, 8218.000000
2859, 25177120.000000, 1149.500000, 8166.000000, 8175.000000, 8173.000000
2860, 25177280.000000, 1099.000000, 8154.000000, 8153.000000, 8141.000000
2861, 25177440.000000, 1060.500000, 8157.000000, 8159.000000, 8151.000000
2862, 25177600.000000, 1031.000000, 8160.000000, 8167.000000, 8161.000000
2863, 25177760.000000, 1010.500000, 8178.000000, 8172.000000, 8168.000000
2864, 25177920.000000, 996.000000, 8168.000000, 8165.000000, 8162.000000
2865, 25178080.000000, 974.500000, 8178.000000, 8171.000000, 8169.000000
2866, 25178240.000000, 954.000000, 8176.000000, 8168.000000, 8165.000000
2867, 25178400.000000, 999.000000, 8177.000000, 8173.000000, 8170.000000
2868, 25178560.000000, 1222.000000, 8181.000000, 8177.000000, 8175.000000
2869, 25178720.000000, 1630.000000, 8180.000000, 8177.000000, 8172.000000
2870, 25178880.000000, 2014.000000, 8178.000000, 8179.000000, 8173.000000
2871, 25179040.000000, 2323.000000, 8178.000000, 8195.000000, 8187.000000
2872, 25179200.000000, 2525.000000, 8189.000000, 8186.000000, 8183.000000
2873, 25179360.000000, 2611.500000, 8190.000000, 8176.000000, 8168.000000
2874, 25179520.000000, 2621.000000, 8176.000000, 8180.000000, 8167.000000
2875, 25179680.000000, 2569.500000, 8173.000000, 8178.000000, 8165.000000
2876, 25179840.000000, 2494.000000, 8168.000000, 8181.000000, 8170.000000
2877, 25180000.000000, 2393.000000, 8155.000000, 8243.000000, 8243.000000
2878, 25180160.000000, 2272.000000, 8599.000000, 8113.000000, 8289.000000
2879, 25180320.000000, 2144.000000, 8119.000000, 8026.000000, 8028.000000
2880, 25180480.000000, 2021.000000, 8051.000000, 8086.000000, 7987.000000
2881, 25180640.000000, 1923.000000, 8122.000000, 8187.000000, 8126.000000
2882, 25180800.000000, 1868.000000, 8150.000000, 8213.000000, 8176.000000
2883, 25180960.000000, 1857.000000, 8160.000000, 8218.000000, 8188.000000
2884, 25181120.000000, 1862.000000, 8169.000000, 8224.000000, 8200.000000
2885, 25181280.000000, 1865.000000, 8179.000000, 8233.000000, 8212.000000
2886, 25181440.000000, 1864.000000, 8200.000000, 8242.000000, 8231.000000
2887, 25181600.000000, 1849.500000, 8217.000000, 8263.000000, 8263.000000
2888, 25181760.000000, 1817.000000, 8238.000000, 8289.000000, 8301.000000
2889, 25181920.000000, 1767.500000, 8255.000000, 8297.000000, 8314.000000
2890, 25182080.000000, 1709.000000, 8262.000000, 8289.000000, 8305.000000
2891, 25182240.000000, 1640.500000, 8249.000000, 8268.000000, 8285.000000
2892, 25182400.000000, 1556.000000, 8209.000000, 8235.000000, 8241.000000
2893, 25182560.000000, 1461.500000, 8172.000000, 8189.000000, 8183.000000
2894, 25182720.000000, 1373.000000, 8147.000000, 8161.000000, 8142.000000
2895, 25182880.000000, 1306.500000, 8148.000000, 8155.000000, 8133.000000
2896, 25183040.000000, 1258.000000, 8153.000000, 8158.000000, 8139.000000
2897, 25183200.000000, 1219.000000, 8153.000000, 8155.000000, 8136.000000
2898, 25183360.000000, 1176.000000, 8153.000000, 8150.000000, 8131.000000
2899, 25183520.000000, 1136.000000, 8158.000000, 8152.000000, 8133.000000
2900, 25183680.000000, 1118.000000, 8157.000000, 8142.000000, 8124.000000
2901, 25183840.000000, 1177.500000, 8161.000000, 8147.000000, 8136.000000
2902, 25184000.000000, 1360.000000, 8170.000000, 8147.000000, 8142.000000
2903, 25184160.000000, 1689.000000, 8172.000000, 8151.000000, 8147.000000
2904, 25184320.000000, 2070.000000, 8171.000000, 8145.000000, 8138.000000
2905, 25184480.000000, 2415.000000, 8177.000000, 8155.000000, 8140.000000
2906, 25184640.000000, 2652.000000, 8185.000000, 8144.000000, 8141.000000
2907, 25184800.000000, 2764.500000, 8180.000000, 8146.000000, 8145.000000
2908, 25184960.000000, 2777.000000, 8175.000000, 8142.000000, 8136.000000
2909, 25185120.000000, 2724.000000, 8180.000000, 8144.000000, 8141.000000
2910, 25185280.000000, 2649.000000, 8177.000000, 8144.000000, 8139.000000
2911, 25185440.000000, 2550.500000, 8245.000000, 8223.000000, 8255.000000
2912, 25185600.000000, 2426.000000, 8631.000000, 8021.000000, 8223.000000
2913, 25185760.000000, 2266.000000, 8033.000000, 8063.000000, 8026.000000
2914, 25185920.000000, 2103.000000, 8081.000000, 8088.000000, 8009.000000
2915, 25186080.000000, 1963.500000, 8161.000000, 8151.000000, 8136.000000
2916, 25186240.000000, 1862.000000, 8183.000000, 8159.000000, 8162.000000
2917, 25186400.000000, 1802.000000, 8190.000000, 8169.000000, 8175.000000
2918, 25186560.000000, 1764.000000, 8186.000000, 8167.000000, 8160.000000
2919, 25186720.000000, 1726.500000, 8193.000000, 8174.000000, 8168.000000
2920, 25186880.000000, 1670.000000, 8207.000000, 8188.000000, 8191.000000
2921, 25187040.000000, 1596.000000, 8235.000000, 8218.000000, 8232.000000
2922, 25187200.000000, 1523.000000, 8263.000000, 8236.000000, 8260.000000
2923, 25187360.000000, 1457.500000, 8264.000000, 8245.000000, 8266.000000
2924, 25187520.000000, 1392.000000, 8267.000000, 8231.000000, 8250.000000
2925, 25187680.000000, 1317.500000, 8240.000000, 8211.000000, 8222.000000
2926, 25187840.000000, 1244.000000, 8190.000000, 8187.000000, 8187.000000
2927, 25188000.000000, 1187.000000, 8158.000000, 8158.000000, 8143.000000
2928, 25188160.000000, 1145.000000, 8159.000000, 8158.000000, 8143.000000
2929, 25188320.000000, 1116.500000, 8161.000000, 8151.000000, 8136.000000
2930, 25188480.000000, 1093.000000, 8169.000000, 8160.000000, 8152.000000
2931, 25188640.000000, 1075.500000, 8177.000000, 8164.000000, 8161.000000
2932, 25188800.000000, 1058.000000, 8198.000000, 8159.000000, 8164.000000
2933, 25188960.000000, 1037.500000, 8193.000000, 8160.000000, 8164.000000
2934, 25189120.000000, 1039.000000, 8192.000000, 8163.000000, 8168.000000
2935, 25189280.000000, 1141.000000, 8189.000000, 8157.000000, 8158.000000
2936, 25189440.000000, 1382.000000, 8186.000000, 8150.000000, 8153.000000
2937, 25189600.000000, 1749.000000, 8187.000000, 8155.000000, 8153.000000
2938, 25189760.000000, 2133.000000, 8190.000000, 8163.000000, 8155.000000
2939, 25189920.000000, 2440.000000, 8201.000000, 8154.000000, 8153.000000
2940, 25190080.000000, 2628.000000, 8185.000000, 8160.000000, 8151.000000
2941, 25190240.000000, 2701.500000, 8177.000000, 8152.000000, 8139.000000
2942, 25190400.000000, 2702.000000, 8170.000000, 8155.000000, 8140.000000
2943, 25190560.000000, 2653.500000, 8176.000000, 8158.000000, 8147.000000
2944, 25190720.000000, 2591.000000, 8285.000000, 8253.000000, 8292.000000
2945, 25190880.000000, 2510.500000, 8531.000000, 8045.000000, 8206.000000
2946, 25191040.000000, 2404.000000, 8040.000000, 8085.000000, 8035.000000
2947, 25191200.000000, 2280.500000, 8097.000000, 8129.000000, 8051.000000
2948, 25191360.000000, 2167.000000, 8164.000000, 8188.000000, 8169.000000
2949, 25191520.000000, 2093.000000, 8179.000000, 8197.000000, 8188.000000
2950, 25191680.000000, 2064.000000, 8186.000000, 8203.000000, 8200.000000
2951, 25191840.000000, 2075.000000, 8205.000000, 8209.000000, 8213.000000
2952, 25192000.000000, 2096.000000, 8207.000000, 8216.000000, 8221.000000
2953, 25192160.000000, 2106.500000, 8231.000000, 8231.000000, 8250.000000
2954, 25192320.000000, 2088.000000, 8241.000000, 8250.000000, 8270.000000
2955, 25192480.000000, 2038.500000, 8268.000000, 8274.000000, 8302.000000
2956, 25192640.000000, 1967.000000, 8268.000000, 8275.000000, 8303.000000
2957, 25192800.000000, 1885.500000, 8263.000000, 8260.000000, 8292.000000
2958, 25192960.000000, 1807.000000, 8235.000000, 8234.000000, 8256.000000
2959, 25193120.000000, 1728.500000, 8178.000000, 8202.000000, 8204.000000
2960, 25193280.000000, 1656.000000, 8160.000000, 8180.000000, 8172.000000
2961, 25193440.000000, 1597.500000, 8144.000000, 8158.000000, 8141.000000
2962, 25193600.000000, 1557.000000, 8143.000000, 8165.000000, 8146.000000
2963, 25193760.000000, 1522.000000, 8155.000000, 8172.000000, 8163.000000
2964, 25193920.000000, 1484.000000, 8159.000000, 8178.000000, 8165.000000
2965, 25194080.000000, 1439.500000, 8157.000000, 8167.000000, 8157.000000
2966, 25194240.000000, 1391.000000, 8157.000000, 8166.000000, 8156.000000
2967, 25194400.000000, 1367.000000, 8165.000000, 8169.000000, 8164.000000
2968, 25194560.000000, 1409.000000, 8159.000000, 8169.000000, 8158.000000
2969, 25194720.000000, 1577.500000, 8160.000000, 8160.000000, 8150.000000
2970, 25194880.000000, 1870.000000, 8155.000000, 8166.000000, 8159.000000
2971, 25195040.000000, 2218.000000, 8165.000000, 8177.000000, 8166.000000
2972, 25195200.000000, 2525.000000, 8185.000000, 8173.000000, 8173.000000
2973, 25195360.000000, 2716.000000, 8180.000000, 8169.000000, 8166.000000
2974, 25195520.000000, 2796.000000, 8169.000000, 8161.000000, 8153.000000
2975, 25195680.000000, 2787.500000, 8165.000000, 8155.000000, 8146.000000
2976, 25195840.000000, 2734.000000, 8169.000000, 8151.000000, 8151.000000
2977, 25196000.000000, 2645.500000, 8172.000000, 8228.000000, 8244.000000
2978, 25196160.000000, 2528.000000, 8661.000000, 8040.000000, 8266.000000
2979, 25196320.000000, 2375.500000, 8043.000000, 8018.000000, 7986.000000
2980, 25196480.000000, 2200.000000, 8059.000000, 8088.000000, 8001.000000
2981, 25196640.000000, 2037.500000, 8148.000000, 8182.000000, 8162.000000
2982, 25196800.000000, 1922.000000, 8179.000000, 8191.000000, 8191.000000
2983, 25196960.000000, 1854.500000, 8175.000000, 8197.000000, 8197.000000
2984, 25197120.000000, 1803.000000, 8183.000000, 8203.000000, 8208.000000
2985, 25197280.000000, 1748.000000, 8191.000000, 8216.000000, 8222.000000
2986, 25197440.000000, 1696.000000, 8201.000000, 8230.000000, 8239.000000
2987, 25197600.000000, 1653.000000, 8220.000000, 8252.000000, 8268.000000
2988, 25197760.000000, 1611.000000, 8243.000000, 8281.000000, 8312.000000
2989, 25197920.000000, 1548.500000, 8263.000000, 8292.000000, 8328.000000
2990, 25198080.000000, 1468.000000, 8259.000000, 8282.000000, 8316.000000
2991, 25198240.000000, 1380.000000, 8245.000000, 8247.000000, 8275.000000
2992, 25198400.000000, 1295.000000, 8189.000000, 8211.000000, 8218.000000
2993, 25198560.000000, 1226.000000, 8162.000000, 8173.000000, 8162.000000
2994, 25198720.000000, 1178.000000, 8142.000000, 8147.000000, 8123.000000
