1325, 13340848.000000, 2065.500000, 8172.000000, 8159.000000, 8147.000000
1326, 13341008.000000, 2061.000000, 8170.000000, 8161.000000, 8150.000000
1327, 13341168.000000, 1974.000000, 8171.000000, 8167.000000, 8160.000000
1328, 13341328.000000, 1879.500000, 8176.000000, 8169.000000, 8152.000000
1329, 13341488.000000, 1816.250000, 8183.000000, 8163.000000, 8152.000000
1330, 13341648.000000, 1774.000000, 8173.000000, 8165.000000, 8152.000000
1331, 13341808.000000, 1709.750000, 8171.000000, 8165.000000, 8152.000000
1332, 13341968.000000, 1622.750000, 8172.000000, 8167.000000, 8157.000000
1333, 13342128.000000, 1552.500000, 8164.000000, 8191.000000, 8184.000000
1334, 13342288.000000, 1537.250000, 8439.000000, 8209.000000, 8321.000000
1335, 13342448.000000, 1569.750000, 8267.000000, 8048.000000, 8127.000000
1336, 13342608.000000, 1603.000000, 8050.000000, 8074.000000, 7991.000000
1337, 13342768.000000, 1607.250000, 8119.000000, 8168.000000, 8105.000000
1338, 13342928.000000, 1574.750000, 8175.000000, 8215.000000, 8207.000000
1339, 13343088.000000, 1511.250000, 8186.000000, 8222.000000, 8221.000000
1340, 13343248.000000, 1438.500000, 8193.000000, 8229.000000, 8233.000000
1341, 13343408.000000, 1376.000000, 8203.000000, 8239.000000, 8247.000000
1342, 13343568.000000, 1329.750000, 8212.000000, 8252.000000, 8264.000000
1343, 13343728.000000, 1302.000000, 8224.000000, 8269.000000, 8287.000000
1344, 13343888.000000, 1291.500000, 8237.000000, 8291.000000, 8316.000000
1345, 13344048.000000, 1285.750000, 8252.000000, 8311.000000, 8342.000000
1346, 13344208.000000, 1281.500000, 8255.000000, 8311.000000, 8342.000000
1347, 13344368.000000, 1273.000000, 8250.000000, 8294.000000, 8322.000000
1348, 13344528.000000, 1263.500000, 8228.000000, 8258.000000, 8279.000000
1349, 13344688.000000, 1248.500000, 8191.000000, 8212.000000, 8220.000000
1350, 13344848.000000, 1226.250000, 8164.000000, 8180.000000, 8171.000000
1351, 13345008.000000, 1195.500000, 8154.000000, 8168.000000, 8154.000000
1352, 13345168.000000, 1156.000000, 8155.000000, 8165.000000, 8150.000000
1353, 13345328.000000, 1116.000000, 8161.000000, 8166.000000, 8155.000000
1354, 13345488.000000, 1079.250000, 8165.000000, 8169.000000, 8160.000000
1355, 13345648.000000, 1035.000000, 8170.000000, 8168.000000, 8161.000000
1356, 13345808.000000, 983.750000, 8168.000000, 8165.000000, 8158.000000
1357, 13345968.000000, 958.500000, 8165.000000, 8161.000000, 8150.000000
1358, 13346128.000000, 1046.000000, 8164.000000, 8159.000000, 8146.000000
1359, 13346288.000000, 1301.500000, 8165.000000, 8160.000000, 8147.000000
1360, 13346448.000000, 1682.000000, 8165.000000, 8161.000000, 8148.000000
1361, 13346608.000000, 2023.000000, 8165.000000, 8163.000000, 8148.000000
1362, 13346768.000000, 2208.000000, 8166.000000, 8162.000000, 8148.000000
1363, 13346928.000000, 2226.500000, 8167.000000, 8161.000000, 8148.000000
1364, 13347088.000000, 2149.000000, 8169.000000, 8164.000000, 8154.000000
1365, 13347248.000000, 2051.250000, 8171.000000, 8173.000000, 8166.000000
1366, 13347408.000000, 1977.250000, 8172.000000, 8177.000000, 8161.000000
1367, 13347568.000000, 1923.250000, 8180.000000, 8168.000000, 8157.000000
1368, 13347728.000000, 1851.500000, 8173.000000, 8168.000000, 8155.000000
1369, 13347888.000000, 1759.500000, 8169.000000, 8168.000000, 8154.000000
1370, 13348048.000000, 1686.500000, 8171.000000, 8170.000000, 8159.000000
1371, 13348208.000000, 1666.750000, 8163.000000, 8197.000000, 8193.000000
1372, 13348368.000000, 1689.500000, 8423.000000, 8205.000000, 8318.000000
1373, 13348528.000000, 1723.000000, 8323.000000, 7940.000000, 8038.000000
1374, 13348688.000000, 1732.500000, 8040.000000, 8038.000000, 7932.000000
1375, 13348848.000000, 1705.000000, 8134.000000, 8196.000000, 8151.000000
1376, 13349008.000000, 1642.750000, 8171.000000, 8231.000000, 8224.000000
1377, 13349168.000000, 1567.750000, 8183.000000, 8236.000000, 8235.000000
1378, 13349328.000000, 1493.000000, 8192.000000, 8242.000000, 8247.000000
1379, 13349488.000000, 1426.250000, 8199.000000, 8252.000000, 8260.000000
1380, 13349648.000000, 1371.000000, 8209.000000, 8267.000000, 8281.000000
1381, 13349808.000000, 1326.000000, 8218.000000, 8287.000000, 8307.000000
1382, 13349968.000000, 1289.750000, 8232.000000, 8311.000000, 8337.000000
1383, 13350128.000000, 1260.500000, 8245.000000, 8332.000000, 8366.000000
1384, 13350288.000000, 1241.250000, 8249.000000, 8336.000000, 8369.000000
1385, 13350448.000000, 1224.500000, 8245.000000, 8321.000000, 8353.000000
1386, 13350608.000000, 1209.250000, 8227.000000, 8274.000000, 8298.000000
1387, 13350768.000000, 1187.500000, 8192.000000, 8214.000000, 8221.000000
1388, 13350928.000000, 1160.500000, 8168.000000, 8175.000000, 8168.000000
1389, 13351088.000000, 1133.750000, 8158.000000, 8162.000000, 8149.000000
1390, 13351248.000000, 1110.000000, 8159.000000, 8163.000000, 8150.000000
1391, 13351408.000000, 1093.250000, 8162.000000, 8166.000000, 8155.000000
1392, 13351568.000000, 1078.250000, 8166.000000, 8165.000000, 8157.000000
1393, 13351728.000000, 1054.250000, 8170.000000, 8164.000000, 8157.000000
1394, 13351888.000000, 1016.500000, 8171.000000, 8161.000000, 8154.000000
1395, 13352048.000000, 1013.000000, 8170.000000, 8159.000000, 8150.000000
1396, 13352208.000000, 1131.250000, 8168.000000, 8156.000000, 8145.000000
1397, 13352368.000000, 1438.500000, 8166.000000, 8155.000000, 8143.000000
1398, 13352528.000000, 1835.750000, 8166.000000, 8154.000000, 8142.000000
1399, 13352688.000000, 2176.500000, 8169.000000, 8155.000000, 8143.000000
1400, 13352848.000000, 2349.000000, 8169.000000, 8158.000000, 8146.000000
1401, 13353008.000000, 2377.000000, 8168.000000, 8158.000000, 8145.000000
1402, 13353168.000000, 2327.000000, 8170.000000, 8159.000000, 8148.000000
1403, 13353328.000000, 2272.750000, 8170.000000, 8160.000000, 8149.000000
1404, 13353488.000000, 2237.750000, 8170.000000, 8160.000000, 8151.000000
1405, 13353648.000000, 2216.500000, 8175.000000, 8176.000000, 8172.000000
1406, 13353808.000000, 2168.250000, 8179.000000, 8169.000000, 8158.000000
1407, 13353968.000000, 2075.750000, 8182.000000, 8166.000000, 8157.000000
1408, 13354128.000000, 1973.250000, 8173.000000, 8164.000000, 8151.000000
1409, 13354288.000000, 1908.500000, 8173.000000, 8166.000000, 8155.000000
1410, 13354448.000000, 1891.750000, 8174.000000, 8169.000000, 8160.000000
1411, 13354608.000000, 1899.250000, 8165.000000, 8227.000000, 8228.000000
1412, 13354768.000000, 1893.500000, 8558.000000, 8139.000000, 8320.000000
1413, 13354928.000000, 1855.000000, 8121.000000, 7966.000000, 7966.000000
1414, 13355088.000000, 1790.250000, 8058.000000, 8067.000000, 7959.000000
1415, 13355248.000000, 1712.000000, 8155.000000, 8213.000000, 8190.000000
1416, 13355408.000000, 1634.000000, 8178.000000, 8231.000000, 8227.000000
1417, 13355568.000000, 1569.000000, 8188.000000, 8235.000000, 8237.000000
1418, 13355728.000000, 1513.000000, 8194.000000, 8242.000000, 8248.000000
1419, 13355888.000000, 1465.500000, 8203.000000, 8254.000000, 8264.000000
1420, 13356048.000000, 1424.250000, 8214.000000, 8270.000000, 8286.000000
1421, 13356208.000000, 1390.250000, 8220.000000, 8289.000000, 8309.000000
1422, 13356368.000000, 1362.500000, 8238.000000, 8313.000000, 8341.000000
1423, 13356528.000000, 1339.250000, 8248.000000, 8331.000000, 8365.000000
1424, 13356688.000000, 1317.000000, 8250.000000, 8332.000000, 8366.000000
1425, 13356848.000000, 1293.500000, 8241.000000, 8313.000000, 8343.000000
1426, 13357008.000000, 1272.750000, 8221.000000, 8262.000000, 8284.000000
1427, 13357168.000000, 1249.250000, 8190.000000, 8205.000000, 8211.000000
1428, 13357328.000000, 1226.000000, 8166.000000, 8171.000000, 8163.000000
1429, 13357488.000000, 1197.500000, 8160.000000, 8163.000000, 8151.000000
1430, 13357648.000000, 1168.000000, 8161.000000, 8164.000000, 8151.000000
1431, 13357808.000000, 1139.750000, 8163.000000, 8166.000000, 8156.000000
1432, 13357968.000000, 1108.750000, 8169.000000, 8166.000000, 8158.000000
1433, 13358128.000000, 1074.000000, 8169.000000, 8163.000000, 8155.000000
1434, 13358288.000000, 1030.750000, 8170.000000, 8161.000000, 8152.000000
1435, 13358448.000000, 1033.250000, 8170.000000, 8159.000000, 8148.000000
1436, 13358608.000000, 1165.250000, 8170.000000, 8157.000000, 8146.000000
1437, 13358768.000000, 1477.750000, 8169.000000, 8156.000000, 8144.000000
1438, 13358928.000000, 1860.750000, 8171.000000, 8155.000000, 8144.000000
1439, 13359088.000000, 2167.500000, 8171.000000, 8157.000000, 8146.000000
1440, 13359248.000000, 2295.750000, 8171.000000, 8157.000000, 8146.000000
1441, 13359408.000000, 2284.500000, 8171.000000, 8160.000000, 8149.000000
1442, 13359568.000000, 2207.750000, 8173.000000, 8160.000000, 8151.000000
1443, 13359728.000000, 2137.750000, 8174.000000, 8161.000000, 8152.000000
1444, 13359888.000000, 2107.250000, 8170.000000, 8162.000000, 8151.000000
1445, 13360048.000000, 2104.250000, 8178.000000, 8179.000000, 8167.000000
1446, 13360208.000000, 2080.250000, 8183.000000, 8167.000000, 8158.000000
1447, 13360368.000000, 2017.500000, 8186.000000, 8167.000000, 8162.000000
1448, 13360528.000000, 1943.750000, 8175.000000, 8165.000000, 8155.000000
1449, 13360688.000000, 1899.500000, 8177.000000, 8168.000000, 8161.000000
1450, 13360848.000000, 1897.250000, 8176.000000, 8171.000000, 8164.000000
1451, 13361008.000000, 1908.250000, 8225.000000, 8254.000000, 8275.000000
1452, 13361168.000000, 1899.750000, 8591.000000, 8033.000000, 8242.000000
1453, 13361328.000000, 1856.250000, 8044.000000, 8010.000000, 7941.000000
1454, 13361488.000000, 1788.250000, 8097.000000, 8139.000000, 8057.000000
1455, 13361648.000000, 1712.500000, 8172.000000, 8224.000000, 8216.000000
1456, 13361808.000000, 1638.000000, 8185.000000, 8231.000000, 8233.000000
1457, 13361968.000000, 1572.250000, 8192.000000, 8237.000000, 8242.000000
1458, 13362128.000000, 1514.750000, 8200.000000, 8244.000000, 8254.000000
1459, 13362288.000000, 1466.500000, 8207.000000, 8257.000000, 8270.000000
1460, 13362448.000000, 1423.500000, 8216.000000, 8275.000000, 8292.000000
1461, 13362608.000000, 1391.000000, 8229.000000, 8296.000000, 8320.000000
1462, 13362768.000000, 1366.000000, 8241.000000, 8319.000000, 8349.000000
1463, 13362928.000000, 1350.000000, 8248.000000, 8329.000000, 8363.000000
1464, 13363088.000000, 1340.500000, 8247.000000, 8323.000000, 8355.000000
1465, 13363248.000000, 1333.000000, 8235.000000, 8294.000000, 8320.000000
1466, 13363408.000000, 1327.250000, 8208.000000, 8237.000000, 8253.000000
1467, 13363568.000000, 1317.250000, 8178.000000, 8188.000000, 8188.000000
1468, 13363728.000000, 1301.000000, 8164.000000, 8165.000000, 8156.000000
1469, 13363888.000000, 1278.500000, 8163.000000, 8161.000000, 8151.000000
1470, 13364048.000000, 1253.500000, 8164.000000, 8162.000000, 8151.000000
1471, 13364208.000000, 1231.000000, 8168.000000, 8164.000000, 8155.000000
1472, 13364368.000000, 1209.250000, 8171.000000, 8161.000000, 8154.000000
1473, 13364528.000000, 1180.250000, 8172.000000, 8158.000000, 8150.000000
1474, 13364688.000000, 1147.000000, 8171.000000, 8156.000000, 8147.000000
1475, 13364848.000000, 1167.000000, 8169.000000, 8155.000000, 8145.000000
1476, 13365008.000000, 1316.250000, 8167.000000, 8154.000000, 8141.000000
1477, 13365168.000000, 1636.500000, 8169.000000, 8153.000000, 8141.000000
1478, 13365328.000000, 2002.750000, 8170.000000, 8154.000000, 8141.000000
1479, 13365488.000000, 2275.500000, 8170.000000, 8155.000000, 8142.000000
1480, 13365648.000000, 2370.000000, 8172.000000, 8157.000000, 8145.000000
1481, 13365808.000000, 2334.500000, 8172.000000, 8157.000000, 8145.000000
1482, 13365968.000000, 2242.000000, 8175.000000, 8158.000000, 8148.000000
1483, 13366128.000000, 2168.750000, 8177.000000, 8160.000000, 8153.000000
1484, 13366288.000000, 2129.500000, 8179.000000, 8168.000000, 8163.000000
1485, 13366448.000000, 2105.500000, 8182.000000, 8171.000000, 8156.000000
1486, 13366608.000000, 2056.000000, 8190.000000, 8166.000000, 8160.000000
1487, 13366768.000000, 1983.500000, 8180.000000, 8163.000000, 8154.000000
1488, 13366928.000000, 1930.250000, 8180.000000, 8165.000000, 8156.000000
1489, 13367088.000000, 1922.750000, 8181.000000, 8166.000000, 8158.000000
1490, 13367248.000000, 1948.750000, 8174.000000, 8208.000000, 8209.000000
1491, 13367408.000000, 1967.250000, 8513.000000, 8174.000000, 8323.000000
1492, 13367568.000000, 1951.500000, 8167.000000, 8043.000000, 8075.000000
1493, 13367728.000000, 1893.750000, 8061.000000, 8070.000000, 7984.000000
1494, 13367888.000000, 1815.250000, 8138.000000, 8177.000000, 8128.000000
1495, 13368048.000000, 1727.000000, 8185.000000, 8217.000000, 8214.000000
1496, 13368208.000000, 1644.000000, 8197.000000, 8221.000000, 8225.000000
1497, 13368368.000000, 1565.500000, 8204.000000, 8225.000000, 8232.000000
1498, 13368528.000000, 1502.500000, 8211.000000, 8234.000000, 8244.000000
1499, 13368688.000000, 1456.000000, 8222.000000, 8248.000000, 8263.000000
1500, 13368848.000000, 1420.750000, 8233.000000, 8266.000000, 8286.000000
1501, 13369008.000000, 1387.500000, 8245.000000, 8286.000000, 8312.000000
1502, 13369168.000000, 1353.000000, 8257.000000, 8301.000000, 8331.000000
1503, 13369328.000000, 1313.750000, 8260.000000, 8303.000000, 8333.000000
1504, 13369488.000000, 1279.000000, 8257.000000, 8289.000000, 8317.000000
1505, 13369648.000000, 1252.250000, 8236.000000, 8256.000000, 8278.000000
1506, 13369808.000000, 1233.500000, 8200.000000, 8212.000000, 8220.000000
1507, 13369968.000000, 1218.500000, 8174.000000, 8178.000000, 8173.000000
1508, 13370128.000000, 1204.250000, 8165.000000, 8165.000000, 8154.000000
1509, 13370288.000000, 1187.750000, 8166.000000, 8164.000000, 8154.000000
1510, 13370448.000000, 1168.000000, 8170.000000, 8165.000000, 8154.000000
1511, 13370608.000000, 1149.750000, 8171.000000, 8165.000000, 8156.000000
1512, 13370768.000000, 1127.500000, 8173.000000, 8162.000000, 8153.000000
1513, 13370928.000000, 1097.500000, 8173.000000, 8159.000000, 8150.000000
1514, 13371088.000000, 1064.750000, 8170.000000, 8158.000000, 8147.000000
1515, 13371248.000000, 1100.750000, 8168.000000, 8157.000000, 8146.000000
1516, 13371408.000000, 1291.750000, 8167.000000, 8156.000000, 8143.000000
1517, 13371568.000000, 1663.750000, 8165.000000, 8156.000000, 8143.000000
1518, 13371728.000000, 2061.000000, 8167.000000, 8156.000000, 8143.000000
1519, 13371888.000000, 2336.750000, 8165.000000, 8158.000000, 8145.000000
1520, 13372048.000000, 2421.250000, 8166.000000, 8160.000000, 8148.000000
1521, 13372208.000000, 2370.750000, 8172.000000, 8171.000000, 8153.000000
1522, 13372368.000000, 2258.750000, 8178.000000, 8164.000000, 8154.000000
1523, 13372528.000000, 2158.750000, 8176.000000, 8166.000000, 8157.000000
1524, 13372688.000000, 2089.000000, 8166.000000, 8163.000000, 8149.000000
1525, 13372848.000000, 2029.000000, 8168.000000, 8167.000000, 8156.000000
1526, 13373008.000000, 1958.500000, 8167.000000, 8170.000000, 8159.000000
1527, 13373168.000000, 1895.000000, 8259.000000, 8250.000000, 8280.000000
1528, 13373328.000000, 1879.250000, 8524.000000, 8089.000000, 8269.000000
1529, 13373488.000000, 1910.500000, 8040.000000, 8074.000000, 8020.000000
1530, 13373648.000000, 1954.750000, 8090.000000, 8133.000000, 8050.000000
1531, 13373808.000000, 1975.500000, 8164.000000, 8209.000000, 8194.000000
1532, 13373968.000000, 1959.750000, 8180.000000, 8218.000000, 8215.000000
1533, 13374128.000000, 1912.250000, 8190.000000, 8224.000000, 8226.000000
1534, 13374288.000000, 1850.250000, 8197.000000, 8233.000000, 8239.000000
1535, 13374448.000000, 1786.000000, 8208.000000, 8244.000000, 8256.000000
1536, 13374608.000000, 1727.750000, 8217.000000, 8259.000000, 8275.000000
1537, 13374768.000000, 1676.000000, 8230.000000, 8280.000000, 8302.000000
1538, 13374928.000000, 1630.000000, 8245.000000, 8299.000000, 8327.000000
1539, 13375088.000000, 1590.000000, 8251.000000, 8307.000000, 8337.000000
1540, 13375248.000000, 1555.000000, 8247.000000, 8298.000000, 8324.000000
1541, 13375408.000000, 1525.000000, 8233.000000, 8268.000000, 8290.000000
1542, 13375568.000000, 1495.250000, 8198.000000, 8224.000000, 8235.000000
1543, 13375728.000000, 1468.750000, 8168.000000, 8185.000000, 8182.000000
1544, 13375888.000000, 1444.000000, 8155.000000, 8168.000000, 8155.000000
1545, 13376048.000000, 1427.250000, 8151.000000, 8166.000000, 8150.000000
1546, 13376208.000000, 1417.500000, 8155.000000, 8167.000000, 8152.000000
1547, 13376368.000000, 1411.750000, 8159.000000, 8166.000000, 8153.000000
1548, 13376528.000000, 1402.000000, 8162.000000, 8164.000000, 8153.000000
1549, 13376688.000000, 1376.250000, 8163.000000, 8163.000000, 8151.000000
1550, 13376848.000000, 1335.500000, 8162.000000, 8161.000000, 8148.000000
1551, 13377008.000000, 1305.750000, 8160.000000, 8159.000000, 8145.000000
1552, 13377168.000000, 1382.000000, 8161.000000, 8157.000000, 8142.000000
1553, 13377328.000000, 1624.000000, 8160.000000, 8157.000000, 8143.000000
1554, 13377488.000000, 2000.000000, 8161.000000, 8158.000000, 8143.000000
1555, 13377648.000000, 2347.750000, 8163.000000, 8160.000000, 8146.000000
1556, 13377808.000000, 2549.500000, 8161.000000, 8161.000000, 8148.000000
1557, 13377968.000000, 2576.500000, 8167.000000, 8173.000000, 8168.000000
1558, 13378128.000000, 2498.000000, 8171.000000, 8169.000000, 8156.000000
1559, 13378288.000000, 2384.500000, 8176.000000, 8166.000000, 8153.000000
1560, 13378448.000000, 2285.500000, 8167.000000, 8166.000000, 8151.000000
1561, 13378608.000000, 2203.250000, 8164.000000, 8167.000000, 8152.000000
1562, 13378768.000000, 2117.750000, 8167.000000, 8168.000000, 8155.000000
1563, 13378928.000000, 2023.250000, 8157.000000, 8210.000000, 8206.000000
1564, 13379088.000000, 1951.000000, 8490.000000, 8165.000000, 8309.000000
1565, 13379248.000000, 1933.750000, 8179.000000, 7972.000000, 8004.000000
1566, 13379408.000000, 1956.500000, 8044.000000, 8055.000000, 7946.000000
1567, 13379568.000000, 1989.250000, 8140.000000, 8203.000000, 8166.000000
1568, 13379728.000000, 1995.750000, 8172.000000, 8228.000000, 8220.000000
1569, 13379888.000000, 1969.000000, 8183.000000, 8235.000000, 8234.000000
1570, 13380048.000000, 1914.250000, 8188.000000, 8242.000000, 8244.000000
1571, 13380208.000000, 1840.750000, 8195.000000, 8251.000000, 8256.000000
1572, 13380368.000000, 1765.250000, 8207.000000, 8267.000000, 8280.000000
1573, 13380528.000000, 1692.750000, 8218.000000, 8287.000000, 8305.000000
1574, 13380688.000000, 1630.750000, 8231.000000, 8314.000000, 8339.000000
1575, 13380848.000000, 1581.500000, 8242.000000, 8335.000000, 8365.000000
1576, 13381008.000000, 1549.500000, 8244.000000, 8337.000000, 8367.000000
1577, 13381168.000000, 1527.750000, 8238.000000, 8315.000000, 8341.000000
1578, 13381328.000000, 1511.500000, 8218.000000, 8264.000000, 8284.000000
1579, 13381488.000000, 1489.750000, 8185.000000, 8207.000000, 8209.000000
1580, 13381648.000000, 1464.000000, 8163.000000, 8174.000000, 8162.000000
1581, 13381808.000000, 1435.000000, 8158.000000, 8164.000000, 8147.000000
1582, 13381968.000000, 1409.250000, 8159.000000, 8163.000000, 8148.000000
1583, 13382128.000000, 1395.750000, 8165.000000, 8165.000000, 8154.000000
1584, 13382288.000000, 1393.000000, 8167.000000, 8167.000000, 8154.000000
1585, 13382448.000000, 1389.750000, 8168.000000, 8165.000000, 8154.000000
1586, 13382608.000000, 1375.250000, 8169.000000, 8160.000000, 8148.000000
1587, 13382768.000000, 1354.250000, 8167.000000, 8157.000000, 8144.000000
1588, 13382928.000000, 1396.000000, 8167.000000, 8155.000000, 8142.000000
1589, 13383088.000000, 1614.500000, 8167.000000, 8156.000000, 8141.000000
1590, 13383248.000000, 2018.250000, 8168.000000, 8157.000000, 8144.000000
1591, 13383408.000000, 2473.500000, 8169.000000, 8157.000000, 8143.000000
1592, 13383568.000000, 2786.500000, 8170.000000, 8158.000000, 8147.000000
1593, 13383728.000000, 2905.500000, 8168.000000, 8163.000000, 8154.000000
1594, 13383888.000000, 2864.500000, 8176.000000, 8174.000000, 8157.000000
1595, 13384048.000000, 2760.750000, 8183.000000, 8166.000000, 8155.000000
1596, 13384208.000000, 2669.500000, 8178.000000, 8165.000000, 8153.000000
1597, 13384368.000000, 2613.750000, 8172.000000, 8162.000000, 8148.000000
1598, 13384528.000000, 2563.500000, 8173.000000, 8165.000000, 8152.000000
1599, 13384688.000000, 2484.500000, 8171.000000, 8176.000000, 8167.000000
1600, 13384848.000000, 2378.500000, 8337.000000, 8244.000000, 8312.000000
1601, 13385008.000000, 2295.000000, 8453.000000, 7948.000000, 8105.000000
1602, 13385168.000000, 2263.500000, 8037.000000, 8015.000000, 7913.000000
1603, 13385328.000000, 2269.500000, 8122.000000, 8177.000000, 8116.000000
1604, 13385488.000000, 2278.000000, 8176.000000, 8226.000000, 8217.000000
1605, 13385648.000000, 2257.250000, 8186.000000, 8232.000000, 8231.000000
1606, 13385808.000000, 2198.000000, 8194.000000, 8238.000000, 8242.000000
1607, 13385968.000000, 2111.250000, 8202.000000, 8247.000000, 8253.000000
1608, 13386128.000000, 2014.000000, 8210.000000, 8260.000000, 8271.000000
1609, 13386288.000000, 1918.000000, 8221.000000, 8280.000000, 8298.000000
1610, 13386448.000000, 1836.000000, 8233.000000, 8305.000000, 8329.000000
1611, 13386608.000000, 1773.750000, 8245.000000, 8326.000000, 8356.000000
1612, 13386768.000000, 1724.500000, 8249.000000, 8331.000000, 8362.000000
1613, 13386928.000000, 1683.750000, 8245.000000, 8318.000000, 8346.000000
1614, 13387088.000000, 1645.750000, 8226.000000, 8276.000000, 8296.000000
1615, 13387248.000000, 1605.000000, 8196.000000, 8218.000000, 8224.000000
1616, 13387408.000000, 1565.500000, 8169.000000, 8177.000000, 8169.000000
1617, 13387568.000000, 1534.000000, 8160.000000, 8163.000000, 8149.000000
1618, 13387728.000000, 1511.000000, 8159.000000, 8162.000000, 8147.000000
1619, 13387888.000000, 1492.000000, 8164.000000, 8166.000000, 8153.000000
1620, 13388048.000000, 1473.000000, 8166.000000, 8166.000000, 8154.000000
1621, 13388208.000000, 1448.750000, 8168.000000, 8164.000000, 8153.000000
1622, 13388368.000000, 1407.500000, 8170.000000, 8160.000000, 8149.000000
1623, 13388528.000000, 1351.500000, 8169.000000, 8156.000000, 8144.000000
1624, 13388688.000000, 1335.250000, 8168.000000, 8156.000000, 8143.000000
1625, 13388848.000000, 1464.500000, 8168.000000, 8156.000000, 8143.000000
1626, 13389008.000000, 1803.250000, 8168.000000, 8156.000000, 8143.000000
1627, 13389168.000000, 2248.500000, 8167.000000, 8156.000000, 8143.000000
1628, 13389328.000000, 2620.750000, 8170.000000, 8156.000000, 8145.000000
1629, 13389488.000000, 2790.250000, 8172.000000, 8159.000000, 8149.000000
1630, 13389648.000000, 2787.500000, 8168.000000, 8159.000000, 8148.000000
1631, 13389808.000000, 2695.500000, 8176.000000, 8175.000000, 8160.000000
1632, 13389968.000000, 2603.750000, 8182.000000, 8163.000000, 8154.000000
1633, 13390128.000000, 2545.500000, 8183.000000, 8165.000000, 8158.000000
1634, 13390288.000000, 2501.250000, 8170.000000, 8163.000000, 8150.000000
1635, 13390448.000000, 2426.000000, 8174.000000, 8166.000000, 8157.000000
1636, 13390608.000000, 2317.750000, 8173.000000, 8167.000000, 8158.000000
1637, 13390768.000000, 2216.750000, 8235.000000, 8253.000000, 8277.000000
1638, 13390928.000000, 2166.750000, 8572.000000, 8016.000000, 8220.000000
1639, 13391088.000000, 2166.250000, 8041.000000, 8009.000000, 7932.000000
1640, 13391248.000000, 2173.500000, 8101.000000, 8146.000000, 8065.000000
1641, 13391408.000000, 2151.000000, 8171.000000, 8221.000000, 8212.000000
1642, 13391568.000000, 2088.500000, 8185.000000, 8228.000000, 8228.000000
1643, 13391728.000000, 1994.250000, 8196.000000, 8235.000000, 8241.000000
1644, 13391888.000000, 1892.500000, 8199.000000, 8243.000000, 8249.000000
1645, 13392048.000000, 1800.750000, 8206.000000, 8257.000000, 8267.000000
1646, 13392208.000000, 1724.750000, 8216.000000, 8272.000000, 8287.000000
1647, 13392368.000000, 1666.250000, 8230.000000, 8294.000000, 8318.000000
1648, 13392528.000000, 1623.750000, 8244.000000, 8317.000000, 8347.000000
1649, 13392688.000000, 1594.750000, 8252.000000, 8327.000000, 8360.000000
1650, 13392848.000000, 1567.500000, 8248.000000, 8319.000000, 8351.000000
1651, 13393008.000000, 1540.000000, 8236.000000, 8285.000000, 8313.000000
1652, 13393168.000000, 1505.000000, 8208.000000, 8231.000000, 8247.000000
1653, 13393328.000000, 1467.500000, 8178.000000, 8183.000000, 8181.000000
1654, 13393488.000000, 1434.500000, 8165.000000, 8165.000000, 8156.000000
1655, 13393648.000000, 1403.750000, 8164.000000, 8165.000000, 8154.000000
1656, 13393808.000000, 1380.000000, 8165.000000, 8164.000000, 8153.000000
1657, 13393968.000000, 1363.250000, 8169.000000, 8164.000000, 8154.000000
1658, 13394128.000000, 1350.250000, 8174.000000, 8163.000000, 8156.000000
1659, 13394288.000000, 1326.000000, 8175.000000, 8160.000000, 8152.000000
1660, 13394448.000000, 1290.750000, 8173.000000, 8158.000000, 8149.000000
1661, 13394608.000000, 1277.250000, 8172.000000, 8155.000000, 8145.000000
1662, 13394768.000000, 1377.750000, 8170.000000, 8153.000000, 8140.000000
1663, 13394928.000000, 1670.750000, 8171.000000, 8152.000000, 8141.000000
1664, 13395088.000000, 2102.250000, 8172.000000, 8155.000000, 8143.000000
1665, 13395248.000000, 2492.750000, 8170.000000, 8156.000000, 8143.000000
1666, 13395408.000000, 2700.500000, 8172.000000, 8157.000000, 8145.000000
1667, 13395568.000000, 2716.250000, 8173.000000, 8157.000000, 8146.000000
1668, 13395728.000000, 2636.500000, 8172.000000, 8158.000000, 8148.000000
1669, 13395888.000000, 2551.500000, 8179.000000, 8171.000000, 8154.000000
1670, 13396048.000000, 2500.500000, 8188.000000, 8163.000000, 8156.000000
1671, 13396208.000000, 2465.000000, 8187.000000, 8165.000000, 8161.000000
1672, 13396368.000000, 2396.500000, 8176.000000, 8160.000000, 8151.000000
1673, 13396528.000000, 2287.000000, 8179.000000, 8162.000000, 8155.000000
1674, 13396688.000000, 2175.500000, 8178.000000, 8167.000000, 8161.000000
1675, 13396848.000000, 2119.000000, 8287.000000, 8247.000000, 8291.000000
1676, 13397008.000000, 2120.000000, 8522.000000, 8049.000000, 8224.000000
1677, 13397168.000000, 2144.500000, 8048.000000, 8056.000000, 7995.000000
1678, 13397328.000000, 2140.750000, 8103.000000, 8136.000000, 8058.000000
1679, 13397488.000000, 2075.750000, 8179.000000, 8208.000000, 8201.000000
1680, 13397648.000000, 1984.500000, 8189.000000, 8217.000000, 8218.000000
1681, 13397808.000000, 1889.500000, 8199.000000, 8222.000000, 8226.000000
1682, 13397968.000000, 1783.250000, 8207.000000, 8230.000000, 8237.000000
1683, 13398128.000000, 1691.250000, 8216.000000, 8240.000000, 8253.000000
1684, 13398288.000000, 1620.250000, 8228.000000, 8257.000000, 8276.000000
1685, 13398448.000000, 1557.000000, 8240.000000, 8275.000000, 8300.000000
1686, 13398608.000000, 1514.250000, 8254.000000, 8294.000000, 8324.000000
1687, 13398768.000000, 1477.500000, 8261.000000, 8298.000000, 8329.000000
1688, 13398928.000000, 1446.500000, 8258.000000, 8290.000000, 8319.000000
1689, 13399088.000000, 1417.500000, 8247.000000, 8265.000000, 8289.000000
1690, 13399248.000000, 1390.250000, 8213.000000, 8224.000000, 8239.000000
1691, 13399408.000000, 1360.000000, 8178.000000, 8185.000000, 8183.000000
1692, 13399568.000000, 1337.500000, 8164.000000, 8166.000000, 8155.000000
1693, 13399728.000000, 1322.500000, 8160.000000, 8163.000000, 8151.000000
1694, 13399888.000000, 1303.000000, 8166.000000, 8166.000000, 8156.000000
1695, 13400048.000000, 1274.000000, 8171.000000, 8166.000000, 8159.000000
1696, 13400208.000000, 1224.250000, 8174.000000, 8163.000000, 8156.000000
1697, 13400368.000000, 1174.750000, 8176.000000, 8160.000000, 8153.000000
1698, 13400528.000000, 1183.500000, 8172.000000, 8157.000000, 8149.000000
1699, 13400688.000000, 1354.000000, 8172.000000, 8157.000000, 8147.000000
1700, 13400848.000000, 1694.750000, 8169.000000, 8156.000000, 8144.000000
1701, 13401008.000000, 2098.250000, 8169.000000, 8154.000000, 8142.000000
1702, 13401168.000000, 2386.750000, 8169.000000, 8156.000000, 8146.000000
1703, 13401328.000000, 2498.000000, 8170.000000, 8156.000000, 8143.000000
1704, 13401488.000000, 2458.750000, 8171.000000, 8158.000000, 8147.000000
1705, 13401648.000000, 2363.250000, 8173.000000, 8167.000000, 8160.000000
1706, 13401808.000000, 2275.250000, 8175.000000, 8165.000000, 8151.000000
1707, 13401968.000000, 2214.750000, 8184.000000, 8163.000000, 8155.000000
1708, 13402128.000000, 2152.500000, 8173.000000, 8161.000000, 8150.000000
1709, 13402288.000000, 2054.000000, 8172.000000, 8165.000000, 8155.000000
1710, 13402448.000000, 1951.250000, 8173.000000, 8167.000000, 8158.000000
1711, 13402608.000000, 1896.000000, 8166.000000, 8208.000000, 8206.000000
1712, 13402768.000000, 1904.500000, 8515.000000, 8174.000000, 8324.000000
1713, 13402928.000000, 1937.250000, 8128.000000, 8091.000000, 8115.000000
1714, 13403088.000000, 1949.750000, 8057.000000, 8089.000000, 8010.000000
1715, 13403248.000000, 1915.500000, 8125.000000, 8168.000000, 8111.000000
1716, 13403408.000000, 1843.500000, 8179.000000, 8209.000000, 8202.000000
1717, 13403568.000000, 1757.750000, 8189.000000, 8214.000000, 8215.000000
1718, 13403728.000000, 1672.500000, 8197.000000, 8221.000000, 8227.000000
1719, 13403888.000000, 1606.000000, 8204.000000, 8230.000000, 8237.000000
1720, 13404048.000000, 1550.750000, 8214.000000, 8240.000000, 8252.000000
1721, 13404208.000000, 1502.500000, 8228.000000, 8255.000000, 8274.000000
1722, 13404368.000000, 1459.500000, 8243.000000, 8273.000000, 8298.000000
1723, 13404528.000000, 1417.000000, 8255.000000, 8287.000000, 8314.000000
1724, 13404688.000000, 1378.500000, 8260.000000, 8287.000000, 8315.000000
1725, 13404848.000000, 1345.250000, 8254.000000, 8272.000000, 8298.000000
1726, 13405008.000000, 1308.250000, 8229.000000, 8247.000000, 8267.000000
1727, 13405168.000000, 1270.000000, 8187.000000, 8210.000000, 8214.000000
1728, 13405328.000000, 1232.250000, 8161.000000, 8181.000000, 8174.000000
1729, 13405488.000000, 1200.750000, 8152.000000, 8171.000000, 8156.000000
1730, 13405648.000000, 1175.750000, 8155.000000, 8172.000000, 8157.000000
1731, 13405808.000000, 1155.000000, 8159.000000, 8172.000000, 8161.000000
1732, 13405968.000000, 1135.000000, 8163.000000, 8172.000000, 8162.000000
1733, 13406128.000000, 1111.750000, 8165.000000, 8169.000000, 8160.000000
1734, 13406288.000000, 1095.000000, 8164.000000, 8168.000000, 8157.000000
1735, 13406448.000000, 1126.750000, 8162.000000, 8165.000000, 8154.000000
1736, 13406608.000000, 1301.500000, 8161.000000, 8164.000000, 8151.000000
1737, 13406768.000000, 1617.500000, 8161.000000, 8162.000000, 8149.000000
1738, 13406928.000000, 1970.250000, 8160.000000, 8162.000000, 8148.000000
1739, 13407088.000000, 2200.000000, 8160.000000, 8163.000000, 8151.000000
1740, 13407248.000000, 2265.250000, 8162.000000, 8164.000000, 8151.000000
1741, 13407408.000000, 2204.750000, 8162.000000, 8166.000000, 8155.000000
1742, 13407568.000000, 2108.250000, 8162.000000, 8168.000000, 8157.000000
1743, 13407728.000000, 2032.250000, 8168.000000, 8177.000000, 8160.000000
1744, 13407888.000000, 1983.500000, 8178.000000, 8171.000000, 8163.000000
1745, 13408048.000000, 1925.250000, 8172.000000, 8172.000000, 8162.000000
1746, 13408208.000000, 1842.500000, 8163.000000, 8169.000000, 8155.000000
1747, 13408368.000000, 1773.250000, 8166.000000, 8170.000000, 8158.000000
1748, 13408528.000000, 1756.500000, 8165.000000, 8181.000000, 8174.000000
1749, 13408688.000000, 1797.750000, 8342.000000, 8250.000000, 8323.000000
1750, 13408848.000000, 1842.750000, 8431.000000, 8039.000000, 8179.000000
1751, 13409008.000000, 1857.250000, 8039.000000, 8071.000000, 7994.000000
1752, 13409168.000000, 1824.500000, 8103.000000, 8157.000000, 8085.000000
1753, 13409328.000000, 1762.750000, 8166.000000, 8217.000000, 8207.000000
1754, 13409488.000000, 1691.750000, 8179.000000, 8225.000000, 8222.000000
1755, 13409648.000000, 1622.500000, 8190.000000, 8231.000000, 8235.000000
1756, 13409808.000000, 1558.250000, 8196.000000, 8240.000000, 8244.000000
1757, 13409968.000000, 1505.000000, 8205.000000, 8251.000000, 8263.000000
1758, 13410128.000000, 1461.250000, 8215.000000, 8267.000000, 8283.000000
1759, 13410288.000000, 1428.000000, 8232.000000, 8289.000000, 8311.000000
1760, 13410448.000000, 1396.500000, 8248.000000, 8308.000000, 8338.000000
1761, 13410608.000000, 1370.750000, 8257.000000, 8312.000000, 8344.000000
1762, 13410768.000000, 1347.000000, 8254.000000, 8300.000000, 8330.000000
1763, 13410928.000000, 1325.250000, 8235.000000, 8269.000000, 8293.000000
1764, 13411088.000000, 1303.750000, 8200.000000, 8226.000000, 8236.000000
1765, 13411248.000000, 1283.000000, 8169.000000, 8189.000000, 8183.000000
1766, 13411408.000000, 1265.750000, 8155.000000, 8171.000000, 8156.000000
1767, 13411568.000000, 1253.000000, 8153.000000, 8168.000000, 8153.000000
1768, 13411728.000000, 1242.000000, 8156.000000, 8172.000000, 8159.000000
1769, 13411888.000000, 1222.250000, 8162.000000, 8174.000000, 8165.000000
1770, 13412048.000000, 1180.500000, 8166.000000, 8173.000000, 8165.000000
1771, 13412208.000000, 1131.000000, 8167.000000, 8169.000000, 8160.000000
1772, 13412368.000000, 1137.250000, 8166.000000, 8165.000000, 8155.000000
1773, 13412528.000000, 1300.000000, 8164.000000, 8164.000000, 8153.000000
1774, 13412688.000000, 1629.000000, 8165.000000, 8164.000000, 8153.000000
1775, 13412848.000000, 2008.250000, 8163.000000, 8163.000000, 8151.000000
1776, 13413008.000000, 2272.500000, 8163.000000, 8162.000000, 8150.000000
1777, 13413168.000000, 2375.500000, 8165.000000, 8163.000000, 8152.000000
1778, 13413328.000000, 2351.000000, 8166.000000, 8164.000000, 8152.000000
1779, 13413488.000000, 2285.000000, 8167.000000, 8166.000000, 8155.000000
1780, 13413648.000000, 2232.000000, 8165.000000, 8166.000000, 8155.000000
1781, 13413808.000000, 2212.250000, 8171.000000, 8176.000000, 8169.000000
1782, 13413968.000000, 2192.250000, 8174.000000, 8174.000000, 8163.000000
1783, 13414128.000000, 2137.500000, 8181.000000, 8171.000000, 8163.000000
1784, 13414288.000000, 2044.250000, 8171.000000, 8173.000000, 8162.000000
1785, 13414448.000000, 1966.500000, 8170.000000, 8174.000000, 8163.000000
1786, 13414608.000000, 1941.250000, 8172.000000, 8173.000000, 8165.000000
1787, 13414768.000000, 1954.750000, 8161.000000, 8226.000000, 8228.000000
1788, 13414928.000000, 1969.500000, 8539.000000, 8155.000000, 8323.000000
1789, 13415088.000000, 1951.250000, 8139.000000, 8028.000000, 8042.000000
1790, 13415248.000000, 1896.000000, 8059.000000, 8081.000000, 7988.000000
1791, 13415408.000000, 1820.000000, 8136.000000, 8195.000000, 8155.000000
1792, 13415568.000000, 1744.750000, 8175.000000, 8224.000000, 8220.000000
1793, 13415728.000000, 1679.750000, 8187.000000, 8230.000000, 8234.000000
1794, 13415888.000000, 1631.000000, 8194.000000, 8238.000000, 8244.000000
1795, 13416048.000000, 1595.250000, 8199.000000, 8249.000000, 8257.000000
1796, 13416208.000000, 1564.750000, 8210.000000, 8261.000000, 8276.000000
1797, 13416368.000000, 1534.000000, 8222.000000, 8280.000000, 8301.000000
1798, 13416528.000000, 1502.250000, 8238.000000, 8303.000000, 8331.000000
1799, 13416688.000000, 1468.000000, 8253.000000, 8321.000000, 8355.000000
1800, 13416848.000000, 1438.500000, 8257.000000, 8321.000000, 8357.000000
1801, 13417008.000000, 1413.500000, 8254.000000, 8302.000000, 8336.000000
1802, 13417168.000000, 1388.500000, 8229.000000, 8261.000000, 8285.000000
1803, 13417328.000000, 1360.000000, 8194.000000, 8215.000000, 8225.000000
1804, 13417488.000000, 1328.500000, 8166.000000, 8181.000000, 8175.000000
1805, 13417648.000000, 1294.250000, 8158.000000, 8168.000000, 8155.000000
1806, 13417808.000000, 1267.750000, 8158.000000, 8168.000000, 8155.000000
1807, 13417968.000000, 1247.000000, 8161.000000, 8171.000000, 8160.000000
1808, 13418128.000000, 1216.250000, 8167.000000, 8172.000000, 8163.000000
1809, 13418288.000000, 1174.500000, 8170.000000, 8173.000000, 8168.000000
1810, 13418448.000000, 1139.750000, 8170.000000, 8169.000000, 8162.000000
1811, 13418608.000000, 1205.000000, 8167.000000, 8165.000000, 8156.000000
1812, 13418768.000000, 1439.500000, 8170.000000, 8161.000000, 8154.000000
1813, 13418928.000000, 1816.500000, 8168.000000, 8161.000000, 8152.000000
1814, 13419088.000000, 2163.500000, 8167.000000, 8162.000000, 8151.000000
1815, 13419248.000000, 2363.250000, 8168.000000, 8162.000000, 8151.000000
1816, 13419408.000000, 2394.500000, 8167.000000, 8162.000000, 8151.000000
1817, 13419568.000000, 2335.500000, 8168.000000, 8162.000000, 8151.000000
1818, 13419728.000000, 2269.250000, 8169.000000, 8165.000000, 8155.000000
1819, 13419888.000000, 2240.250000, 8170.000000, 8167.000000, 8156.000000
1820, 13420048.000000, 2242.000000, 8172.000000, 8167.000000, 8157.000000
1821, 13420208.000000, 2234.000000, 8173.000000, 8168.000000, 8159.000000
1822, 13420368.000000, 2179.000000, 8173.000000, 8168.000000, 8159.000000
1823, 13420528.000000, 2081.250000, 8172.000000, 8171.000000, 8161.000000
1824, 13420688.000000, 2004.000000, 8181.000000, 8184.000000, 8170.000000
1825, 13420848.000000, 1980.000000, 8187.000000, 8175.000000, 8169.000000
1826, 13421008.000000, 1997.750000, 8186.000000, 8176.000000, 8171.000000
1827, 13421168.000000, 2007.000000, 8178.000000, 8172.000000, 8164.000000
1828, 13421328.000000, 1984.000000, 8179.000000, 8175.000000, 8168.000000
1829, 13421488.000000, 1922.250000, 8177.000000, 8178.000000, 8173.000000
1830, 13421648.000000, 1840.500000, 8249.000000, 8264.000000, 8299.000000
1831, 13421808.000000, 1757.000000, 8594.000000, 8034.000000, 8237.000000
1832, 13421968.000000, 1687.000000, 8052.000000, 8049.000000, 7987.000000
1833, 13422128.000000, 1632.750000, 8094.000000, 8147.000000, 8065.000000
1834, 13422288.000000, 1588.500000, 8170.000000, 8225.000000, 8216.000000
1835, 13422448.000000, 1560.250000, 8182.000000, 8232.000000, 8234.000000
1836, 13422608.000000, 1538.750000, 8192.000000, 8238.000000, 8245.000000
1837, 13422768.000000, 1513.750000, 8199.000000, 8246.000000, 8256.000000
1838, 13422928.000000, 1488.000000, 8205.000000, 8258.000000, 8270.000000
1839, 13423088.000000, 1455.500000, 8216.000000, 8274.000000, 8293.000000
1840, 13423248.000000, 1421.000000, 8228.000000, 8295.000000, 8320.000000
1841, 13423408.000000, 1393.500000, 8241.000000, 8317.000000, 8349.000000
1842, 13423568.000000, 1372.250000, 8255.000000, 8327.000000, 8364.000000
1843, 13423728.000000, 1352.250000, 8256.000000, 8320.000000, 8356.000000
1844, 13423888.000000, 1329.500000, 8245.000000, 8295.000000, 8325.000000
1845, 13424048.000000, 1304.500000, 8216.000000, 8246.000000, 8265.000000
1846, 13424208.000000, 1278.500000, 8185.000000, 8197.000000, 8201.000000
1847, 13424368.000000, 1254.250000, 8166.000000, 8168.000000, 8160.000000
1848, 13424528.000000, 1235.750000, 8160.000000, 8163.000000, 8151.000000
1849, 13424688.000000, 1223.250000, 8158.000000, 8167.000000, 8152.000000
1850, 13424848.000000, 1209.500000, 8163.000000, 8168.000000, 8158.000000
1851, 13425008.000000, 1186.250000, 8167.000000, 8168.000000, 8159.000000
1852, 13425168.000000, 1154.250000, 8172.000000, 8166.000000, 8160.000000
1853, 13425328.000000, 1167.250000, 8172.000000, 8163.000000, 8157.000000
1854, 13425488.000000, 1325.250000, 8169.000000, 8160.000000, 8152.000000
1855, 13425648.000000, 1650.500000, 8168.000000, 8157.000000, 8148.000000
1856, 13425808.000000, 2028.000000, 8167.000000, 8155.000000, 8144.000000
1857, 13425968.000000, 2295.250000, 8166.000000, 8154.000000, 8142.000000
1858, 13426128.000000, 2385.750000, 8169.000000, 8157.000000, 8147.000000
1859, 13426288.000000, 2356.750000, 8167.000000, 8158.000000, 8145.000000
1860, 13426448.000000, 2291.750000, 8170.000000, 8159.000000, 8148.000000
1861, 13426608.000000, 2246.750000, 8171.000000, 8160.000000, 8149.000000
1862, 13426768.000000, 2245.000000, 8169.000000, 8160.000000, 8148.000000
1863, 13426928.000000, 2267.750000, 8172.000000, 8164.000000, 8154.000000
1864, 13427088.000000, 2262.750000, 8172.000000, 8164.000000, 8154.000000
1865, 13427248.000000, 2206.000000, 8173.000000, 8167.000000, 8158.000000
1866, 13427408.000000, 2115.500000, 8175.000000, 8166.000000, 8158.000000
1867, 13427568.000000, 2048.750000, 8174.000000, 8168.000000, 8161.000000
1868, 13427728.000000, 2027.250000, 8177.000000, 8174.000000, 8169.000000
1869, 13427888.000000, 2040.000000, 8178.000000, 8182.000000, 8168.000000
1870, 13428048.000000, 2048.750000, 8188.000000, 8173.000000, 8166.000000
1871, 13428208.000000, 2031.250000, 8183.000000, 8173.000000, 8168.000000
1872, 13428368.000000, 1980.500000, 8178.000000, 8170.000000, 8162.000000
1873, 13428528.000000, 1911.250000, 8180.000000, 8173.000000, 8168.000000
1874, 13428688.000000, 1833.750000, 8174.000000, 8186.000000, 8185.000000
1875, 13428848.000000, 1764.500000, 8337.000000, 8244.000000, 8318.000000
1876, 13429008.000000, 1710.500000, 8495.000000, 7964.000000, 8133.000000
1877, 13429168.000000, 1671.500000, 8047.000000, 8043.000000, 7956.000000
1878, 13429328.000000, 1640.500000, 8116.000000, 8172.000000, 8107.000000
1879, 13429488.000000, 1614.000000, 8171.000000, 8228.000000, 8221.000000
1880, 13429648.000000, 1580.500000, 8185.000000, 8235.000000, 8237.000000
1881, 13429808.000000, 1544.750000, 8194.000000, 8240.000000, 8248.000000
1882, 13429968.000000, 1508.750000, 8200.000000, 8249.000000, 8259.000000
1883, 13430128.000000, 1478.000000, 8206.000000, 8262.000000, 8276.000000
1884, 13430288.000000, 1448.000000, 8214.000000, 8280.000000, 8298.000000
1885, 13430448.000000, 1418.750000, 8227.000000, 8302.000000, 8328.000000
1886, 13430608.000000, 1391.000000, 8244.000000, 8325.000000, 8359.000000
1887, 13430768.000000, 1361.000000, 8254.000000, 8335.000000, 8373.000000
1888, 13430928.000000, 1332.500000, 8253.000000, 8328.000000, 8364.000000
1889, 13431088.000000, 1310.000000, 8241.000000, 8295.000000, 8325.000000
1890, 13431248.000000, 1293.500000, 8208.000000, 8238.000000, 8252.000000
1891, 13431408.000000, 1276.000000, 8178.000000, 8188.000000, 8186.000000
1892, 13431568.000000, 1259.750000, 8162.000000, 8163.000000, 8152.000000
1893, 13431728.000000, 1245.500000, 8158.000000, 8160.000000, 8145.000000
1894, 13431888.000000, 1236.250000, 8159.000000, 8163.000000, 8150.000000
1895, 13432048.000000, 1226.250000, 8161.000000, 8165.000000, 8154.000000
1896, 13432208.000000, 1201.250000, 8166.000000, 8165.000000, 8157.000000
1897, 13432368.000000, 1165.750000, 8170.000000, 8163.000000, 8156.000000
1898, 13432528.000000, 1175.750000, 8171.000000, 8160.000000, 8153.000000
1899, 13432688.000000, 1337.750000, 8169.000000, 8158.000000, 8148.000000
1900, 13432848.000000, 1671.000000, 8167.000000, 8156.000000, 8145.000000
1901, 13433008.000000, 2062.000000, 8167.000000, 8154.000000, 8141.000000
1902, 13433168.000000, 2324.750000, 8165.000000, 8155.000000, 8142.000000
1903, 13433328.000000, 2412.500000, 8166.000000, 8156.000000, 8142.000000
1904, 13433488.000000, 2378.250000, 8165.000000, 8158.000000, 8143.000000
1905, 13433648.000000, 2311.000000, 8169.000000, 8158.000000, 8146.000000
1906, 13433808.000000, 2268.000000, 8171.000000, 8159.000000, 8148.000000
1907, 13433968.000000, 2264.750000, 8170.000000, 8160.000000, 8147.000000
1908, 13434128.000000, 2281.750000, 8173.000000, 8162.000000, 8151.000000
1909, 13434288.000000, 2275.250000, 8171.000000, 8164.000000, 8151.000000
1910, 13434448.000000, 2216.750000, 8174.000000, 8165.000000, 8154.000000
1911, 13434608.000000, 2131.500000, 8176.000000, 8167.000000, 8158.000000
1912, 13434768.000000, 2072.000000, 8175.000000, 8167.000000, 8157.000000
1913, 13434928.000000, 2060.500000, 8175.000000, 8170.000000, 8162.000000
1914, 13435088.000000, 2076.750000, 8182.000000, 8182.000000, 8179.000000
1915, 13435248.000000, 2084.250000, 8182.000000, 8177.000000, 8168.000000
1916, 13435408.000000, 2059.000000, 8188.000000, 8171.000000, 8164.000000
1917, 13435568.000000, 2002.250000, 8178.000000, 8171.000000, 8161.000000
1918, 13435728.000000, 1929.500000, 8175.000000, 8173.000000, 8163.000000
1919, 13435888.000000, 1856.250000, 8176.000000, 8174.000000, 8165.000000
1920, 13436048.000000, 1790.250000, 8162.000000, 8225.000000, 8228.000000
1921, 13436208.000000, 1739.500000, 8526.000000, 8143.000000, 8309.000000
1922, 13436368.000000, 1700.000000, 8186.000000, 7958.000000, 7985.000000
1923, 13436528.000000, 1675.000000, 8056.000000, 8066.000000, 7959.000000
1924, 13436688.000000, 1650.500000, 8149.000000, 8213.000000, 8184.000000
1925, 13436848.000000, 1626.500000, 8176.000000, 8236.000000, 8233.000000
1926, 13437008.000000, 1596.250000, 8187.000000, 8240.000000, 8242.000000
1927, 13437168.000000, 1563.000000, 8193.000000, 8247.000000, 8253.000000
1928, 13437328.000000, 1528.250000, 8199.000000, 8259.000000, 8267.000000
1929, 13437488.000000, 1496.000000, 8207.000000, 8273.000000, 8286.000000
1930, 13437648.000000, 1468.500000, 8216.000000, 8292.000000, 8311.000000
1931, 13437808.000000, 1444.250000, 8233.000000, 8316.000000, 8344.000000
1932, 13437968.000000, 1423.000000, 8245.000000, 8338.000000, 8372.000000
1933, 13438128.000000, 1403.000000, 8251.000000, 8345.000000, 8381.000000
1934, 13438288.000000, 1383.250000, 8248.000000, 8331.000000, 8365.000000
1935, 13438448.000000, 1363.250000, 8232.000000, 8285.000000, 8311.000000
1936, 13438608.000000, 1343.000000, 8199.000000, 8220.000000, 8230.000000
1937, 13438768.000000, 1323.000000, 8171.000000, 8176.000000, 8169.000000
1938, 13438928.000000, 1307.000000, 8159.000000, 8160.000000, 8145.000000
1939, 13439088.000000, 1299.500000, 8156.000000, 8159.000000, 8142.000000
1940, 13439248.000000, 1294.250000, 8161.000000, 8161.000000, 8146.000000
1941, 13439408.000000, 1283.250000, 8162.000000, 8162.000000, 8149.000000
1942, 13439568.000000, 1256.000000, 8168.000000, 8162.000000, 8151.000000
1943, 13439728.000000, 1222.500000, 8171.000000, 8161.000000, 8150.000000
1944, 13439888.000000, 1244.500000, 8172.000000, 8158.000000, 8148.000000
1945, 13440048.000000, 1423.250000, 8171.000000, 8154.000000, 8143.000000
1946, 13440208.000000, 1781.500000, 8170.000000, 8151.000000, 8138.000000
1947, 13440368.000000, 2174.750000, 8170.000000, 8151.000000, 8138.000000
1948, 13440528.000000, 2448.000000, 8169.000000, 8152.000000, 8138.000000
1949, 13440688.000000, 2531.500000, 8170.000000, 8154.000000, 8141.000000
1950, 13440848.000000, 2501.000000, 8171.000000, 8155.000000, 8144.000000
1951, 13441008.000000, 2440.750000, 8172.000000, 8155.000000, 8143.000000
1952, 13441168.000000, 2409.500000, 8173.000000, 8157.000000, 8146.000000
1953, 13441328.000000, 2422.250000, 8175.000000, 8158.000000, 8148.000000
1954, 13441488.000000, 2454.000000, 8176.000000, 8161.000000, 8150.000000
1955, 13441648.000000, 2450.750000, 8177.000000, 8161.000000, 8152.000000
1956, 13441808.000000, 2389.000000, 8176.000000, 8163.000000, 8152.000000
1957, 13441968.000000, 2296.000000, 8179.000000, 8164.000000, 8155.000000
1958, 13442128.000000, 2236.750000, 8179.000000, 8167.000000, 8158.000000
1959, 13442288.000000, 2225.250000, 8176.000000, 8166.000000, 8155.000000
1960, 13442448.000000, 2243.500000, 8185.000000, 8179.000000, 8170.000000
1961, 13442608.000000, 2258.750000, 8191.000000, 8171.000000, 8166.000000
1962, 13442768.000000, 2244.500000, 8193.000000, 8170.000000, 8166.000000
1963, 13442928.000000, 2195.000000, 8182.000000, 8169.000000, 8160.000000
1964, 13443088.000000, 2123.500000, 8183.000000, 8170.000000, 8163.000000
1965, 13443248.000000, 2050.250000, 8181.000000, 8172.000000, 8164.000000
1966, 13443408.000000, 1981.500000, 8193.000000, 8247.000000, 8259.000000
1967, 13443568.000000, 1923.000000, 8631.000000, 8102.000000, 8312.000000
1968, 13443728.000000, 1875.250000, 8065.000000, 8040.000000, 8003.000000
1969, 13443888.000000, 1829.500000, 8087.000000, 8114.000000, 8025.000000
1970, 13444048.000000, 1785.750000, 8167.000000, 8214.000000, 8197.000000
1971, 13444208.000000, 1745.000000, 8187.000000, 8226.000000, 8226.000000
1972, 13444368.000000, 1706.250000, 8196.000000, 8232.000000, 8236.000000
1973, 13444528.000000, 1667.250000, 8202.000000, 8240.000000, 8248.000000
1974, 13444688.000000, 1623.500000, 8211.000000, 8250.000000, 8262.000000
1975, 13444848.000000, 1578.500000, 8218.000000, 8263.000000, 8279.000000
1976, 13445008.000000, 1533.750000, 8231.000000, 8281.000000, 8304.000000
1977, 13445168.000000, 1492.250000, 8246.000000, 8306.000000, 8337.000000
1978, 13445328.000000, 1447.750000, 8257.000000, 8324.000000, 8358.000000
1979, 13445488.000000, 1407.250000, 8259.000000, 8323.000000, 8355.000000
1980, 13445648.000000, 1369.250000, 8254.000000, 8304.000000, 8334.000000
1981, 13445808.000000, 1332.250000, 8231.000000, 8260.000000, 8281.000000
1982, 13445968.000000, 1303.250000, 8198.000000, 8208.000000, 8213.000000
1983, 13446128.000000, 1278.500000, 8172.000000, 8175.000000, 8167.000000
1984, 13446288.000000, 1258.250000, 8163.000000, 8163.000000, 8147.000000
1985, 13446448.000000, 1246.750000, 8164.000000, 8163.000000, 8150.000000
1986, 13446608.000000, 1241.500000, 8167.000000, 8164.000000, 8151.000000
1987, 13446768.000000, 1232.250000, 8171.000000, 8165.000000, 8154.000000
1988, 13446928.000000, 1211.500000, 8174.000000, 8165.000000, 8156.000000
1989, 13447088.000000, 1174.500000, 8174.000000, 8162.000000, 8153.000000
1990, 13447248.000000, 1186.000000, 8172.000000, 8159.000000, 8149.000000
1991, 13447408.000000, 1346.750000, 8172.000000, 8157.000000, 8145.000000
1992, 13447568.000000, 1701.000000, 8169.000000, 8155.000000, 8141.000000
1993, 13447728.000000, 2108.250000, 8170.000000, 8156.000000, 8143.000000
1994, 13447888.000000, 2401.750000, 8170.000000, 8157.000000, 8144.000000
1995, 13448048.000000, 2502.750000, 8170.000000, 8157.000000, 8144.000000
1996, 13448208.000000, 2475.000000, 8170.000000, 8158.000000, 8145.000000
1997, 13448368.000000, 2398.750000, 8171.000000, 8160.000000, 8147.000000
1998, 13448528.000000, 2344.500000, 8172.000000, 8162.000000, 8150.000000
1999, 13448688.000000, 2332.000000, 8172.000000, 8162.000000, 8150.000000
2000, 13448848.000000, 2339.250000, 8174.000000, 8163.000000, 8152.000000
2001, 13449008.000000, 2322.000000, 8175.000000, 8165.000000, 8155.000000
2002, 13449168.000000, 2258.000000, 8172.000000, 8164.000000, 8154.000000
2003, 13449328.000000, 2184.250000, 8179.000000, 8173.000000, 8166.000000
2004, 13449488.000000, 2153.750000, 8182.000000, 8177.000000, 8164.000000
2005, 13449648.000000, 2173.000000, 8189.000000, 8170.000000, 8163.000000
2006, 13449808.000000, 2207.500000, 8178.000000, 8170.000000, 8160.000000
2007, 13449968.000000, 2220.250000, 8177.000000, 8170.000000, 8161.000000
2008, 13450128.000000, 2192.250000, 8178.000000, 8172.000000, 8164.000000
2009, 13450288.000000, 2136.250000, 8167.000000, 8220.000000, 8220.000000
2010, 13450448.000000, 2068.750000, 8526.000000, 8161.000000, 8319.000000
2011, 13450608.000000, 2005.250000, 8153.000000, 8056.000000, 8081.000000
2012, 13450768.000000, 1952.500000, 8060.000000, 8083.000000, 7996.000000
2013, 13450928.000000, 1914.250000, 8133.000000, 8182.000000, 8132.000000
2014, 13451088.000000, 1891.000000, 8179.000000, 8221.000000, 8216.000000
2015, 13451248.000000, 1871.000000, 8190.000000, 8226.000000, 8228.000000
2016, 13451408.000000, 1851.000000, 8198.000000, 8231.000000, 8236.000000
2017, 13451568.000000, 1828.500000, 8206.000000, 8241.000000, 8251.000000
2018, 13451728.000000, 1802.250000, 8213.000000, 8254.000000, 8267.000000
2019, 13451888.000000, 1769.500000, 8223.000000, 8269.000000, 8287.000000
2020, 13452048.000000, 1743.500000, 8239.000000, 8291.000000, 8317.000000
2021, 13452208.000000, 1718.500000, 8250.000000, 8310.000000, 8340.000000
2022, 13452368.000000, 1691.000000, 8256.000000, 8316.000000, 8348.000000
2023, 13452528.000000, 1661.000000, 8254.000000, 8304.000000, 8334.000000
2024, 13452688.000000, 1632.750000, 8235.000000, 8270.000000, 8292.000000
2025, 13452848.000000, 1612.000000, 8201.000000, 8222.000000, 8231.000000
2026, 13453008.000000, 1588.500000, 8170.000000, 8183.000000, 8176.000000
2027, 13453168.000000, 1564.500000, 8159.000000, 8167.000000, 8154.000000
2028, 13453328.000000, 1541.000000, 8157.000000, 8165.000000, 8149.000000
2029, 13453488.000000, 1518.500000, 8162.000000, 8167.000000, 8154.000000
2030, 13453648.000000, 1496.750000, 8165.000000, 8167.000000, 8156.000000
2031, 13453808.000000, 1469.250000, 8169.000000, 8165.000000, 8155.000000
2032, 13453968.000000, 1434.000000, 8168.000000, 8163.000000, 8152.000000
2033, 13454128.000000, 1407.250000, 8167.000000, 8162.000000, 8149.000000
2034, 13454288.000000, 1472.000000, 8164.000000, 8161.000000, 8146.000000
2035, 13454448.000000, 1741.000000, 8164.000000, 8158.000000, 8143.000000
2036, 13454608.000000, 2172.250000, 8165.000000, 8156.000000, 8141.000000
2037, 13454768.000000, 2591.250000, 8165.000000, 8158.000000, 8143.000000
2038, 13454928.000000, 2836.250000, 8165.000000, 8161.000000, 8146.000000
2039, 13455088.000000, 2885.500000, 8166.000000, 8160.000000, 8144.000000
2040, 13455248.000000, 2816.500000, 8168.000000, 8161.000000, 8148.000000
2041, 13455408.000000, 2721.750000, 8169.000000, 8162.000000, 8148.000000
2042, 13455568.000000, 2662.500000, 8171.000000, 8164.000000, 8153.000000
2043, 13455728.000000, 2638.250000, 8170.000000, 8168.000000, 8155.000000
2044, 13455888.000000, 2619.250000, 8171.000000, 8167.000000, 8156.000000
2045, 13456048.000000, 2565.500000, 8172.000000, 8169.000000, 8159.000000
2046, 13456208.000000, 2492.250000, 8176.000000, 8177.000000, 8172.000000
2047, 13456368.000000, 2439.250000, 8180.000000, 8180.000000, 8169.000000
2048, 13456528.000000, 2442.500000, 8187.000000, 8174.000000, 8168.000000
2049, 13456688.000000, 2470.250000, 8176.000000, 8173.000000, 8162.000000
2050, 13456848.000000, 2492.500000, 8175.000000, 8173.000000, 8163.000000
2051, 13457008.000000, 2478.250000, 8174.000000, 8174.000000, 8165.000000
2052, 13457168.000000, 2431.250000, 8164.000000, 8215.000000, 8215.000000
2053, 13457328.000000, 2358.000000, 8493.000000, 8170.000000, 8316.000000
2054, 13457488.000000, 2279.500000, 8218.000000, 7999.000000, 8047.000000
2055, 13457648.000000, 2207.000000, 8051.000000, 8066.000000, 7967.000000
2056, 13457808.000000, 2144.000000, 8135.000000, 8196.000000, 8153.000000
2057, 13457968.000000, 2088.750000, 8175.000000, 8229.000000, 8223.000000
2058, 13458128.000000, 2044.250000, 8186.000000, 8236.000000, 8237.000000
2059, 13458288.000000, 2009.500000, 8192.000000, 8242.000000, 8247.000000
2060, 13458448.000000, 1973.250000, 8198.000000, 8251.000000, 8258.000000
2061, 13458608.000000, 1933.750000, 8207.000000, 8264.000000, 8277.000000
2062, 13458768.000000, 1897.250000, 8219.000000, 8284.000000, 8303.000000
2063, 13458928.000000, 1864.750000, 8231.000000, 8310.000000, 8335.000000
2064, 13459088.000000, 1840.500000, 8244.000000, 8333.000000, 8365.000000
2065, 13459248.000000, 1816.250000, 8252.000000, 8339.000000, 8374.000000
2066, 13459408.000000, 1793.250000, 8245.000000, 8326.000000, 8356.000000
2067, 13459568.000000, 1762.500000, 8230.000000, 8287.000000, 8311.000000
2068, 13459728.000000, 1727.000000, 8198.000000, 8228.000000, 8237.000000
2069, 13459888.000000, 1687.750000, 8170.000000, 8183.000000, 8176.000000
2070, 13460048.000000, 1650.250000, 8158.000000, 8165.000000, 8150.000000
2071, 13460208.000000, 1621.250000, 8157.000000, 8162.000000, 8146.000000
2072, 13460368.000000, 1603.750000, 8161.000000, 8165.000000, 8152.000000
2073, 13460528.000000, 1586.250000, 8164.000000, 8166.000000, 8155.000000
2074, 13460688.000000, 1556.000000, 8166.000000, 8165.000000, 8155.000000
2075, 13460848.000000, 1510.250000, 8166.000000, 8162.000000, 8150.000000
2076, 13461008.000000, 1469.000000, 8166.000000, 8158.000000, 8146.000000
2077, 13461168.000000, 1523.500000, 8165.000000, 8158.000000, 8145.000000
2078, 13461328.000000, 1800.250000, 8164.000000, 8156.000000, 8141.000000
2079, 13461488.000000, 2276.750000, 8165.000000, 8156.000000, 8141.000000
2080, 13461648.000000, 2762.000000, 8165.000000, 8156.000000, 8141.000000
2081, 13461808.000000, 3073.500000, 8163.000000, 8157.000000, 8141.000000
2082, 13461968.000000, 3155.500000, 8165.000000, 8159.000000, 8144.000000
2083, 13462128.000000, 3087.250000, 8167.000000, 8161.000000, 8146.000000
2084, 13462288.000000, 2974.250000, 8168.000000, 8163.000000, 8150.000000
2085, 13462448.000000, 2882.250000, 8171.000000, 8163.000000, 8152.000000
2086, 13462608.000000, 2838.750000, 8171.000000, 8164.000000, 8153.000000
2087, 13462768.000000, 2814.000000, 8173.000000, 8167.000000, 8156.000000
2088, 13462928.000000, 2759.750000, 8172.000000, 8168.000000, 8158.000000
2089, 13463088.000000, 2673.500000, 8172.000000, 8171.000000, 8163.000000
2090, 13463248.000000, 2590.250000, 8176.000000, 8182.000000, 8167.000000
2091, 13463408.000000, 2560.500000, 8188.000000, 8171.000000, 8164.000000
2092, 13463568.000000, 2576.500000, 8186.000000, 8174.000000, 8169.000000
2093, 13463728.000000, 2602.500000, 8174.000000, 8172.000000, 8161.000000
2094, 13463888.000000, 2599.250000, 8175.000000, 8172.000000, 8162.000000
2095, 13464048.000000, 2558.500000, 8173.000000, 8176.000000, 8167.000000
2096, 13464208.000000, 2487.500000, 8274.000000, 8262.000000, 8304.000000
2097, 13464368.000000, 2398.000000, 8558.000000, 7985.000000, 8184.000000
2098, 13464528.000000, 2304.500000, 8043.000000, 8021.000000, 7935.000000
2099, 13464688.000000, 2214.500000, 8106.000000, 8163.000000, 8089.000000
2100, 13464848.000000, 2140.250000, 8173.000000, 8228.000000, 8221.000000
2101, 13465008.000000, 2080.250000, 8185.000000, 8235.000000, 8235.000000
2102, 13465168.000000, 2035.250000, 8193.000000, 8242.000000, 8246.000000
2103, 13465328.000000, 1998.500000, 8201.000000, 8251.000000, 8260.000000
2104, 13465488.000000, 1963.500000, 8206.000000, 8262.000000, 8274.000000
2105, 13465648.000000, 1926.000000, 8216.000000, 8279.000000, 8296.000000
2106, 13465808.000000, 1890.250000, 8228.000000, 8302.000000, 8327.000000
2107, 13465968.000000, 1850.250000, 8242.000000, 8330.000000, 8362.000000
2108, 13466128.000000, 1805.500000, 8249.000000, 8346.000000, 8381.000000
2109, 13466288.000000, 1763.750000, 8248.000000, 8341.000000, 8375.000000
2110, 13466448.000000, 1731.250000, 8239.000000, 8310.000000, 8340.000000
2111, 13466608.000000, 1708.000000, 8212.000000, 8249.000000, 8265.000000
2112, 13466768.000000, 1690.000000, 8181.000000, 8193.000000, 8191.000000
2113, 13466928.000000, 1668.500000, 8163.000000, 8168.000000, 8156.000000
2114, 13467088.000000, 1635.750000, 8161.000000, 8161.000000, 8146.000000
2115, 13467248.000000, 1592.500000, 8162.000000, 8161.000000, 8148.000000
2116, 13467408.000000, 1541.500000, 8167.000000, 8162.000000, 8149.000000
2117, 13467568.000000, 1475.500000, 8168.000000, 8163.000000, 8152.000000
2118, 13467728.000000, 1396.750000, 8172.000000, 8162.000000, 8152.000000
2119, 13467888.000000, 1305.750000, 8172.000000, 8158.000000, 8148.000000
2120, 13468048.000000, 1273.750000, 8171.000000, 8155.000000, 8144.000000
2121, 13468208.000000, 1430.250000, 8171.000000, 8154.000000, 8141.000000
2122, 13468368.000000, 1856.500000, 8170.000000, 8156.000000, 8141.000000
2123, 13468528.000000, 2418.500000, 8171.000000, 8157.000000, 8144.000000
2124, 13468688.000000, 2889.000000, 8169.000000, 8157.000000, 8141.000000
2125, 13468848.000000, 3116.750000, 8170.000000, 8156.000000, 8141.000000
2126, 13469008.000000, 3139.250000, 8170.000000, 8159.000000, 8144.000000
2127, 13469168.000000, 3053.250000, 8173.000000, 8161.000000, 8148.000000
2128, 13469328.000000, 2958.000000, 8174.000000, 8163.000000, 8150.000000
2129, 13469488.000000, 2898.750000, 8174.000000, 8164.000000, 8151.000000
2130, 13469648.000000, 2881.500000, 8176.000000, 8164.000000, 8151.000000
2131, 13469808.000000, 2853.250000, 8177.000000, 8166.000000, 8157.000000
2132, 13469968.000000, 2784.250000, 8176.000000, 8168.000000, 8157.000000
2133, 13470128.000000, 2685.500000, 8176.000000, 8175.000000, 8166.000000
2134, 13470288.000000, 2623.000000, 8179.000000, 8181.000000, 8164.000000
2135, 13470448.000000, 2611.250000, 8190.000000, 8172.000000, 8164.000000
2136, 13470608.000000, 2628.000000, 8183.000000, 8172.000000, 8163.000000
2137, 13470768.000000, 2635.000000, 8180.000000, 8173.000000, 8164.000000
2138, 13470928.000000, 2604.250000, 8180.000000, 8174.000000, 8165.000000
2139, 13471088.000000, 2527.250000, 8169.000000, 8195.000000, 8189.000000
2140, 13471248.000000, 2417.000000, 8410.000000, 8208.000000, 8312.000000
2141, 13471408.000000, 2293.750000, 8363.000000, 7959.000000, 8072.000000
2142, 13471568.000000, 2176.750000, 8050.000000, 8043.000000, 7944.000000
2143, 13471728.000000, 2075.750000, 8133.000000, 8188.000000, 8136.000000
2144, 13471888.000000, 2004.250000, 8179.000000, 8228.000000, 8225.000000
2145, 13472048.000000, 1955.250000, 8191.000000, 8233.000000, 8237.000000
2146, 13472208.000000, 1918.250000, 8198.000000, 8239.000000, 8246.000000
2147, 13472368.000000, 1881.750000, 8204.000000, 8249.000000, 8258.000000
2148, 13472528.000000, 1840.750000, 8212.000000, 8263.000000, 8277.000000
2149, 13472688.000000, 1799.000000, 8223.000000, 8281.000000, 8301.000000
2150, 13472848.000000, 1757.250000, 8237.000000, 8302.000000, 8329.000000
2151, 13473008.000000, 1710.750000, 8249.000000, 8326.000000, 8357.000000
2152, 13473168.000000, 1661.250000, 8255.000000, 8337.000000, 8372.000000
2153, 13473328.000000, 1614.000000, 8253.000000, 8328.000000, 8360.000000
2154, 13473488.000000, 1567.500000, 8239.000000, 8292.000000, 8318.000000
2155, 13473648.000000, 1523.250000, 8211.000000, 8233.000000, 8247.000000
2156, 13473808.000000, 1488.000000, 8183.000000, 8184.000000, 8183.000000
2157, 13473968.000000, 1448.000000, 8168.000000, 8165.000000, 8156.000000
2158, 13474128.000000, 1409.500000, 8164.000000, 8161.000000, 8148.000000
2159, 13474288.000000, 1377.750000, 8167.000000, 8161.000000, 8150.000000
2160, 13474448.000000, 1353.250000, 8170.000000, 8161.000000, 8150.000000
2161, 13474608.000000, 1335.250000, 8173.000000, 8160.000000, 8151.000000
2162, 13474768.000000, 1306.750000, 8173.000000, 8159.000000, 8150.000000
2163, 13474928.000000, 1256.500000, 8173.000000, 8157.000000, 8146.000000
2164, 13475088.000000, 1240.750000, 8172.000000, 8154.000000, 8142.000000
2165, 13475248.000000, 1419.000000, 8170.000000, 8152.000000, 8137.000000
2166, 13475408.000000, 1865.250000, 8171.000000, 8152.000000, 8139.000000
2167, 13475568.000000, 2446.750000, 8171.000000, 8154.000000, 8141.000000
2168, 13475728.000000, 2897.000000, 8171.000000, 8156.000000, 8143.000000
2169, 13475888.000000, 3097.750000, 8172.000000, 8156.000000, 8142.000000
2170, 13476048.000000, 3071.000000, 8172.000000, 8156.000000, 8142.000000
2171, 13476208.000000, 2937.750000, 8172.000000, 8158.000000, 8144.000000
2172, 13476368.000000, 2799.750000, 8174.000000, 8161.000000, 8150.000000
2173, 13476528.000000, 2705.500000, 8176.000000, 8163.000000, 8152.000000
2174, 13476688.000000, 2648.500000, 8176.000000, 8163.000000, 8152.000000
2175, 13476848.000000, 2595.500000, 8176.000000, 8163.000000, 8152.000000
2176, 13477008.000000, 2509.750000, 8181.000000, 8173.000000, 8165.000000
2177, 13477168.000000, 2424.250000, 8188.000000, 8177.000000, 8168.000000
2178, 13477328.000000, 2382.750000, 8190.000000, 8171.000000, 8163.000000
2179, 13477488.000000, 2393.000000, 8180.000000, 8169.000000, 8158.000000
2180, 13477648.000000, 2410.500000, 8178.000000, 8171.000000, 8161.000000
2181, 13477808.000000, 2399.500000, 8183.000000, 8172.000000, 8165.000000
2182, 13477968.000000, 2348.000000, 8175.000000, 8233.000000, 8231.000000
2183, 13478128.000000, 2261.250000, 8574.000000, 8151.000000, 8331.000000
2184, 13478288.000000, 2158.500000, 8093.000000, 8082.000000, 8081.000000
2185, 13478448.000000, 2053.500000, 8071.000000, 8092.000000, 8007.000000
2186, 13478608.000000, 1954.250000, 8145.000000, 8187.000000, 8145.000000
2187, 13478768.000000, 1871.750000, 8186.000000, 8218.000000, 8215.000000
2188, 13478928.000000, 1802.500000, 8194.000000, 8223.000000, 8225.000000
2189, 13479088.000000, 1754.250000, 8203.000000, 8229.000000, 8237.000000
2190, 13479248.000000, 1714.000000, 8211.000000, 8235.000000, 8245.000000
2191, 13479408.000000, 1676.500000, 8218.000000, 8248.000000, 8262.000000
2192, 13479568.000000, 1638.250000, 8229.000000, 8265.000000, 8283.000000
2193, 13479728.000000, 1600.000000, 8244.000000, 8285.000000, 8311.000000
2194, 13479888.000000, 1564.250000, 8254.000000, 8303.000000, 8333.000000
2195, 13480048.000000, 1531.250000, 8260.000000, 8305.000000, 8337.000000
2196, 13480208.000000, 1504.250000, 8253.000000, 8291.000000, 8317.000000
2197, 13480368.000000, 1478.500000, 8235.000000, 8261.000000, 8281.000000
2198, 13480528.000000, 1447.750000, 8197.000000, 8219.000000, 8227.000000
2199, 13480688.000000, 1414.250000, 8169.000000, 8184.000000, 8178.000000
2200, 13480848.000000, 1382.750000, 8160.000000, 8169.000000, 8157.000000
2201, 13481008.000000, 1353.250000, 8162.000000, 8167.000000, 8156.000000
2202, 13481168.000000, 1324.000000, 8164.000000, 8169.000000, 8158.000000
2203, 13481328.000000, 1290.000000, 8169.000000, 8169.000000, 8161.000000
2204, 13481488.000000, 1235.750000, 8168.000000, 8167.000000, 8158.000000
2205, 13481648.000000, 1196.000000, 8169.000000, 8164.000000, 8154.000000
2206, 13481808.000000, 1278.000000, 8165.000000, 8163.000000, 8152.000000
2207, 13481968.000000, 1602.250000, 8164.000000, 8162.000000, 8149.000000
2208, 13482128.000000, 2144.250000, 8163.000000, 8159.000000, 8145.000000
2209, 13482288.000000, 2674.500000, 8162.000000, 8159.000000, 8144.000000
2210, 13482448.000000, 2991.750000, 8162.000000, 8159.000000, 8144.000000
2211, 13482608.000000, 3052.500000, 8163.000000, 8162.000000, 8148.000000
2212, 13482768.000000, 2954.500000, 8162.000000, 8164.000000, 8149.000000
2213, 13482928.000000, 2801.500000, 8164.000000, 8163.000000, 8148.000000
2214, 13483088.000000, 2676.500000, 8166.000000, 8166.000000, 8152.000000
2215, 13483248.000000, 2593.250000, 8167.000000, 8166.000000, 8153.000000
2216, 13483408.000000, 2515.500000, 8166.000000, 8166.000000, 8154.000000
2217, 13483568.000000, 2421.000000, 8171.000000, 8178.000000, 8171.000000
2218, 13483728.000000, 2333.000000, 8179.000000, 8176.000000, 8165.000000
2219, 13483888.000000, 2303.250000, 8181.000000, 8170.000000, 8160.000000
2220, 13484048.000000, 2332.500000, 8169.000000, 8169.000000, 8155.000000
2221, 13484208.000000, 2378.500000, 8171.000000, 8171.000000, 8160.000000
2222, 13484368.000000, 2398.000000, 8175.000000, 8173.000000, 8165.000000
2223, 13484528.000000, 2372.250000, 8167.000000, 8228.000000, 8228.000000
2224, 13484688.000000, 2307.000000, 8542.000000, 8155.000000, 8327.000000
2225, 13484848.000000, 2217.500000, 8125.000000, 8027.000000, 8035.000000
2226, 13485008.000000, 2122.500000, 8061.000000, 8078.000000, 7982.000000
2227, 13485168.000000, 2031.500000, 8146.000000, 8198.000000, 8161.000000
2228, 13485328.000000, 1955.000000, 8179.000000, 8226.000000, 8221.000000
2229, 13485488.000000, 1887.500000, 8188.000000, 8229.000000, 8231.000000
2230, 13485648.000000, 1828.750000, 8197.000000, 8236.000000, 8242.000000
2231, 13485808.000000, 1779.500000, 8205.000000, 8247.000000, 8255.000000
2232, 13485968.000000, 1743.750000, 8213.000000, 8261.000000, 8274.000000
2233, 13486128.000000, 1708.500000, 8223.000000, 8280.000000, 8298.000000
2234, 13486288.000000, 1670.000000, 8238.000000, 8303.000000, 8327.000000
2235, 13486448.000000, 1627.250000, 8253.000000, 8323.000000, 8355.000000
2236, 13486608.000000, 1587.250000, 8256.000000, 8328.000000, 8360.000000
2237, 13486768.000000, 1549.500000, 8249.000000, 8313.000000, 8340.000000
2238, 13486928.000000, 1517.750000, 8232.000000, 8272.000000, 8294.000000
2239, 13487088.000000, 1487.750000, 8198.000000, 8219.000000, 8226.000000
2240, 13487248.000000, 1461.000000, 8171.000000, 8179.000000, 8172.000000
2241, 13487408.000000, 1446.000000, 8161.000000, 8166.000000, 8151.000000
2242, 13487568.000000, 1443.500000, 8161.000000, 8165.000000, 8150.000000
2243, 13487728.000000, 1450.250000, 8164.000000, 8166.000000, 8153.000000
2244, 13487888.000000, 1448.750000, 8165.000000, 8166.000000, 8153.000000
2245, 13488048.000000, 1414.250000, 8168.000000, 8163.000000, 8152.000000
2246, 13488208.000000, 1374.000000, 8168.000000, 8163.000000, 8152.000000
2247, 13488368.000000, 1427.500000, 8169.000000, 8160.000000, 8148.000000
2248, 13488528.000000, 1742.750000, 8166.000000, 8159.000000, 8145.000000
2249, 13488688.000000, 2288.500000, 8166.000000, 8156.000000, 8142.000000
2250, 13488848.000000, 2877.750000, 8168.000000, 8156.000000, 8143.000000
2251, 13489008.000000, 3261.500000, 8169.000000, 8158.000000, 8144.000000
2252, 13489168.000000, 3393.500000, 8170.000000, 8159.000000, 8146.000000
2253, 13489328.000000, 3336.000000, 8171.000000, 8161.000000, 8148.000000
2254, 13489488.000000, 3210.500000, 8172.000000, 8161.000000, 8149.000000
2255, 13489648.000000, 3098.750000, 8172.000000, 8163.000000, 8151.000000
2256, 13489808.000000, 3025.250000, 8175.000000, 8166.000000, 8154.000000
2257, 13489968.000000, 2961.250000, 8175.000000, 8167.000000, 8155.000000
2258, 13490128.000000, 2867.500000, 8175.000000, 8166.000000, 8156.000000
2259, 13490288.000000, 2753.000000, 8177.000000, 8175.000000, 8168.000000
2260, 13490448.000000, 2670.500000, 8180.000000, 8178.000000, 8163.000000
2261, 13490608.000000, 2662.250000, 8190.000000, 8172.000000, 8164.000000
2262, 13490768.000000, 2697.000000, 8181.000000, 8173.000000, 8163.000000
2263, 13490928.000000, 2726.500000, 8177.000000, 8171.000000, 8160.000000
2264, 13491088.000000, 2710.750000, 8179.000000, 8173.000000, 8162.000000
2265, 13491248.000000, 2644.000000, 8170.000000, 8195.000000, 8190.000000
2266, 13491408.000000, 2537.250000, 8410.000000, 8214.000000, 8318.000000
2267, 13491568.000000, 2414.750000, 8363.000000, 7974.000000, 8087.000000
2268, 13491728.000000, 2291.500000, 8048.000000, 8047.000000, 7948.000000
2269, 13491888.000000, 2182.250000, 8131.000000, 8186.000000, 8131.000000
2270, 13492048.000000, 2088.250000, 8178.000000, 8229.000000, 8221.000000
2271, 13492208.000000, 2015.750000, 8190.000000, 8236.000000, 8236.000000
2272, 13492368.000000, 1959.250000, 8197.000000, 8242.000000, 8246.000000
2273, 13492528.000000, 1913.750000, 8203.000000, 8251.000000, 8259.000000
2274, 13492688.000000, 1878.000000, 8211.000000, 8263.000000, 8275.000000
2275, 13492848.000000, 1847.000000, 8222.000000, 8281.000000, 8300.000000
2276, 13493008.000000, 1815.500000, 8236.000000, 8308.000000, 8334.000000
2277, 13493168.000000, 1776.250000, 8246.000000, 8332.000000, 8363.000000
2278, 13493328.000000, 1724.500000, 8254.000000, 8341.000000, 8377.000000
2279, 13493488.000000, 1675.250000, 8250.000000, 8330.000000, 8362.000000
2280, 13493648.000000, 1636.500000, 8234.000000, 8291.000000, 8316.000000
2281, 13493808.000000, 1605.750000, 8206.000000, 8233.000000, 8245.000000
2282, 13493968.000000, 1586.000000, 8177.000000, 8186.000000, 8183.000000
2283, 13494128.000000, 1566.750000, 8164.000000, 8167.000000, 8154.000000
2284, 13494288.000000, 1549.000000, 8160.000000, 8163.000000, 8147.000000
2285, 13494448.000000, 1530.750000, 8164.000000, 8165.000000, 8152.000000
2286, 13494608.000000, 1508.000000, 8167.000000, 8167.000000, 8154.000000
2287, 13494768.000000, 1464.750000, 8169.000000, 8166.000000, 8154.000000
2288, 13494928.000000, 1414.000000, 8170.000000, 8164.000000, 8153.000000
2289, 13495088.000000, 1448.000000, 8170.000000, 8160.000000, 8147.000000
2290, 13495248.000000, 1729.750000, 8170.000000, 8158.000000, 8145.000000
2291, 13495408.000000, 2307.000000, 8170.000000, 8158.000000, 8145.000000
2292, 13495568.000000, 2984.750000, 8169.000000, 8158.000000, 8144.000000
2293, 13495728.000000, 3489.250000, 8168.000000, 8158.000000, 8145.000000
2294, 13495888.000000, 3704.000000, 8170.000000, 8157.000000, 8144.000000
2295, 13496048.000000, 3681.250000, 8170.000000, 8158.000000, 8145.000000
2296, 13496208.000000, 3543.750000, 8172.000000, 8161.000000, 8149.000000
2297, 13496368.000000, 3400.000000, 8173.000000, 8163.000000, 8150.000000
2298, 13496528.000000, 3298.250000, 8171.000000, 8164.000000, 8151.000000
2299, 13496688.000000, 3221.750000, 8173.000000, 8165.000000, 8154.000000
2300, 13496848.000000, 3125.250000, 8173.000000, 8167.000000, 8154.000000
2301, 13497008.000000, 2982.500000, 8173.000000, 8167.000000, 8156.000000
2302, 13497168.000000, 2845.500000, 8179.000000, 8181.000000, 8176.000000
2303, 13497328.000000, 2770.250000, 8183.000000, 8176.000000, 8167.000000
2304, 13497488.000000, 2765.000000, 8186.000000, 8171.000000, 8162.000000
2305, 13497648.000000, 2782.000000, 8175.000000, 8171.000000, 8157.000000
2306, 13497808.000000, 2766.250000, 8177.000000, 8174.000000, 8163.000000
2307, 13497968.000000, 2691.750000, 8176.000000, 8174.000000, 8161.000000
2308, 13498128.000000, 2573.250000, 8169.000000, 8235.000000, 8235.000000
2309, 13498288.000000, 2429.500000, 8565.000000, 8134.000000, 8318.000000
2310, 13498448.000000, 2285.750000, 8112.000000, 7979.000000, 7971.000000
2311, 13498608.000000, 2152.500000, 8066.000000, 8080.000000, 7975.000000
2312, 13498768.000000, 2043.000000, 8159.000000, 8217.000000, 8194.000000
2313, 13498928.000000, 1965.750000, 8183.000000, 8234.000000, 8231.000000
2314, 13499088.000000, 1909.250000, 8193.000000, 8239.000000, 8243.000000
2315, 13499248.000000, 1865.250000, 8200.000000, 8245.000000, 8253.000000
2316, 13499408.000000, 1820.250000, 8207.000000, 8256.000000, 8267.000000
2317, 13499568.000000, 1773.500000, 8215.000000, 8270.000000, 8286.000000
2318, 13499728.000000, 1728.750000, 8225.000000, 8291.000000, 8312.000000
2319, 13499888.000000, 1687.000000, 8240.000000, 8315.000000, 8344.000000
2320, 13500048.000000, 1647.250000, 8252.000000, 8337.000000, 8372.000000
2321, 13500208.000000, 1605.500000, 8255.000000, 8343.000000, 8378.000000
2322, 13500368.000000, 1560.500000, 8247.000000, 8327.000000, 8359.000000
2323, 13500528.000000, 1514.000000, 8229.000000, 8278.000000, 8302.000000
2324, 13500688.000000, 1464.000000, 8197.000000, 8216.000000, 8224.000000
2325, 13500848.000000, 1418.250000, 8171.000000, 8175.000000, 8168.000000
2326, 13501008.000000, 1388.000000, 8163.000000, 8164.000000, 8150.000000
2327, 13501168.000000, 1374.500000, 8160.000000, 8163.000000, 8147.000000
2328, 13501328.000000, 1383.250000, 8164.000000, 8165.000000, 8152.000000
2329, 13501488.000000, 1396.000000, 8169.000000, 8163.000000, 8153.000000
2330, 13501648.000000, 1392.500000, 8171.000000, 8162.000000, 8153.000000
2331, 13501808.000000, 1374.000000, 8172.000000, 8160.000000, 8150.000000
2332, 13501968.000000, 1441.500000, 8172.000000, 8158.000000, 8148.000000
2333, 13502128.000000, 1764.250000, 8169.000000, 8155.000000, 8143.000000
2334, 13502288.000000, 2347.250000, 8170.000000, 8153.000000, 8140.000000
2335, 13502448.000000, 3002.500000, 8170.000000, 8154.000000, 8141.000000
2336, 13502608.000000, 3455.750000, 8171.000000, 8156.000000, 8145.000000
2337, 13502768.000000, 3630.500000, 8173.000000, 8158.000000, 8149.000000
2338, 13502928.000000, 3580.500000, 8173.000000, 8157.000000, 8148.000000
2339, 13503088.000000, 3444.250000, 8174.000000, 8159.000000, 8150.000000
2340, 13503248.000000, 3314.500000, 8175.000000, 8160.000000, 8152.000000
2341, 13503408.000000, 3239.750000, 8176.000000, 8163.000000, 8154.000000
2342, 13503568.000000, 3180.500000, 8178.000000, 8165.000000, 8157.000000
2343, 13503728.000000, 3084.250000, 8177.000000, 8165.000000, 8156.000000
2344, 13503888.000000, 2932.000000, 8172.000000, 8161.000000, 8149.000000
2345, 13504048.000000, 2786.250000, 8185.000000, 8181.000000, 8170.000000
2346, 13504208.000000, 2708.500000, 8186.000000, 8170.000000, 8163.000000
2347, 13504368.000000, 2694.500000, 8191.000000, 8172.000000, 8169.000000
2348, 13504528.000000, 2694.750000, 8178.000000, 8169.000000, 8161.000000
2349, 13504688.000000, 2651.500000, 8180.000000, 8170.000000, 8165.000000
2350, 13504848.000000, 2541.750000, 8184.000000, 8172.000000, 8168.000000
2351, 13505008.000000, 2387.750000, 8175.000000, 8231.000000, 8237.000000
2352, 13505168.000000, 2212.000000, 8569.000000, 8140.000000, 8324.000000
2353, 13505328.000000, 2036.000000, 8113.000000, 8014.000000, 8016.000000
2354, 13505488.000000, 1876.750000, 8070.000000, 8081.000000, 7989.000000
2355, 13505648.000000, 1744.250000, 8159.000000, 8204.000000, 8181.000000
2356, 13505808.000000, 1641.250000, 8190.000000, 8227.000000, 8231.000000
2357, 13505968.000000, 1578.750000, 8200.000000, 8232.000000, 8240.000000
2358, 13506128.000000, 1539.500000, 8206.000000, 8238.000000, 8250.000000
2359, 13506288.000000, 1503.000000, 8215.000000, 8247.000000, 8263.000000
2360, 13506448.000000, 1450.750000, 8224.000000, 8260.000000, 8280.000000
2361, 13506608.000000, 1377.500000, 8234.000000, 8279.000000, 8302.000000
2362, 13506768.000000, 1286.250000, 8247.000000, 8300.000000, 8330.000000
2363, 13506928.000000, 1201.250000, 8261.000000, 8319.000000, 8354.000000
2364, 13507088.000000, 1134.250000, 8266.000000, 8322.000000, 8358.000000
2365, 13507248.000000, 1093.250000, 8261.000000, 8308.000000, 8341.000000
2366, 13507408.000000, 1068.500000, 8240.000000, 8269.000000, 8294.000000
2367, 13507568.000000, 1041.000000, 8205.000000, 8216.000000, 8226.000000
2368, 13507728.000000, 1012.250000, 8177.000000, 8176.000000, 8173.000000
2369, 13507888.000000, 988.500000, 8168.000000, 8163.000000, 8152.000000
2370, 13508048.000000, 982.000000, 8166.000000, 8162.000000, 8150.000000
2371, 13508208.000000, 984.500000, 8170.000000, 8165.000000, 8154.000000
2372, 13508368.000000, 979.750000, 8172.000000, 8165.000000, 8155.000000
2373, 13508528.000000, 949.750000, 8176.000000, 8161.000000, 8152.000000
2374, 13508688.000000, 904.000000, 8176.000000, 8158.000000, 8149.000000
2375, 13508848.000000, 919.500000, 8173.000000, 8157.000000, 8146.000000
2376, 13509008.000000, 1165.250000, 8172.000000, 8157.000000, 8145.000000
2377, 13509168.000000, 1675.250000, 8172.000000, 8154.000000, 8142.000000
2378, 13509328.000000, 2320.000000, 8171.000000, 8156.000000, 8143.000000
2379, 13509488.000000, 2832.500000, 8169.000000, 8155.000000, 8141.000000
2380, 13509648.000000, 3090.500000, 8173.000000, 8157.000000, 8144.000000
2381, 13509808.000000, 3098.750000, 8173.000000, 8160.000000, 8147.000000
2382, 13509968.000000, 2983.250000, 8172.000000, 8158.000000, 8144.000000
2383, 13510128.000000, 2838.750000, 8175.000000, 8160.000000, 8148.000000
2384, 13510288.000000, 2729.250000, 8176.000000, 8163.000000, 8154.000000
2385, 13510448.000000, 2642.750000, 8173.000000, 8163.000000, 8144.000000
2386, 13510608.000000, 2540.750000, 8180.000000, 8171.000000, 8148.000000
2387, 13510768.000000, 2404.500000, 8190.000000, 8168.000000, 8160.000000
2388, 13510928.000000, 2282.750000, 8186.000000, 8169.000000, 8162.000000
2389, 13511088.000000, 2221.000000, 8179.000000, 8167.000000, 8158.000000
2390, 13511248.000000, 2204.750000, 8180.000000, 8171.000000, 8162.000000
2391, 13511408.000000, 2201.500000, 8182.000000, 8173.000000, 8166.000000
2392, 13511568.000000, 2175.750000, 8245.000000, 8252.000000, 8276.000000
2393, 13511728.000000, 2118.500000, 8569.000000, 8115.000000, 8303.000000
2394, 13511888.000000, 2026.750000, 8050.000000, 8088.000000, 8045.000000
2395, 13512048.000000, 1906.750000, 8095.000000, 8129.000000, 8046.000000
2396, 13512208.000000, 1777.500000, 8172.000000, 8211.000000, 8197.000000
2397, 13512368.000000, 1665.750000, 8190.000000, 8221.000000, 8219.000000
2398, 13512528.000000, 1585.750000, 8199.000000, 8225.000000, 8229.000000
2399, 13512688.000000, 1531.750000, 8208.000000, 8232.000000, 8240.000000
2400, 13512848.000000, 1480.500000, 8215.000000, 8242.000000, 8254.000000
2401, 13513008.000000, 1417.250000, 8223.000000, 8256.000000, 8270.000000
2402, 13513168.000000, 1339.500000, 8240.000000, 8275.000000, 8298.000000
2403, 13513328.000000, 1268.500000, 8254.000000, 8295.000000, 8323.000000
2404, 13513488.000000, 1221.500000, 8265.000000, 8307.000000, 8339.000000
2405, 13513648.000000, 1189.750000, 8263.000000, 8301.000000, 8331.000000
2406, 13513808.000000, 1156.500000, 8253.000000, 8279.000000, 8305.000000
2407, 13513968.000000, 1106.500000, 8219.000000, 8241.000000, 8256.000000
2408, 13514128.000000, 1052.250000, 8182.000000, 8200.000000, 8200.000000
2409, 13514288.000000, 1009.500000, 8164.000000, 8175.000000, 8164.000000
2410, 13514448.000000, 989.500000, 8157.000000, 8168.000000, 8152.000000
2411, 13514608.000000, 970.500000, 8162.000000, 8169.000000, 8156.000000
2412, 13514768.000000, 937.500000, 8165.000000, 8169.000000, 8158.000000
2413, 13514928.000000, 885.500000, 8169.000000, 8168.000000, 8158.000000
2414, 13515088.000000, 836.750000, 8172.000000, 8166.000000, 8156.000000
2415, 13515248.000000, 804.000000, 8170.000000, 8166.000000, 8155.000000
2416, 13515408.000000, 850.250000, 8168.000000, 8163.000000, 8152.000000
2417, 13515568.000000, 1091.750000, 8168.000000, 8162.000000, 8149.000000
2418, 13515728.000000, 1591.000000, 8166.000000, 8160.000000, 8146.000000
2419, 13515888.000000, 2214.750000, 8166.000000, 8159.000000, 8145.000000
2420, 13516048.000000, 2740.500000, 8166.000000, 8162.000000, 8148.000000
2421, 13516208.000000, 3015.750000, 8168.000000, 8162.000000, 8149.000000
2422, 13516368.000000, 3066.750000, 8169.000000, 8164.000000, 8152.000000
2423, 13516528.000000, 2986.250000, 8168.000000, 8164.000000, 8151.000000
2424, 13516688.000000, 2883.000000, 8172.000000, 8166.000000, 8156.000000
2425, 13516848.000000, 2808.250000, 8171.000000, 8167.000000, 8158.000000
2426, 13517008.000000, 2748.250000, 8167.000000, 8171.000000, 8152.000000
2427, 13517168.000000, 2661.250000, 8173.000000, 8175.000000, 8154.000000
2428, 13517328.000000, 2559.250000, 8182.000000, 8170.000000, 8159.000000
2429, 13517488.000000, 2495.750000, 8181.000000, 8171.000000, 8165.000000
2430, 13517648.000000, 2506.500000, 8173.000000, 8171.000000, 8162.000000
2431, 13517808.000000, 2558.500000, 8174.000000, 8174.000000, 8167.000000
2432, 13517968.000000, 2591.000000, 8174.000000, 8176.000000, 8171.000000
2433, 13518128.000000, 2575.250000, 8265.000000, 8260.000000, 8300.000000
2434, 13518288.000000, 2503.750000, 8556.000000, 8017.000000, 8213.000000
2435, 13518448.000000, 2386.750000, 8042.000000, 8039.000000, 7966.000000
2436, 13518608.000000, 2248.500000, 8102.000000, 8157.000000, 8082.000000
2437, 13518768.000000, 2106.000000, 8170.000000, 8226.000000, 8217.000000
2438, 13518928.000000, 1984.750000, 8183.000000, 8232.000000, 8233.000000
2439, 13519088.000000, 1892.000000, 8193.000000, 8237.000000, 8243.000000
2440, 13519248.000000, 1834.000000, 8198.000000, 8246.000000, 8255.000000
2441, 13519408.000000, 1801.500000, 8205.000000, 8256.000000, 8266.000000
2442, 13519568.000000, 1777.750000, 8215.000000, 8273.000000, 8289.000000
2443, 13519728.000000, 1758.000000, 8231.000000, 8296.000000, 8321.000000
2444, 13519888.000000, 1744.000000, 8244.000000, 8319.000000, 8351.000000
2445, 13520048.000000, 1735.750000, 8255.000000, 8335.000000, 8372.000000
2446, 13520208.000000, 1732.750000, 8251.000000, 8329.000000, 8363.000000
2447, 13520368.000000, 1727.000000, 8239.000000, 8298.000000, 8326.000000
2448, 13520528.000000, 1706.500000, 8209.000000, 8242.000000, 8258.000000
2449, 13520688.000000, 1670.750000, 8176.000000, 8190.000000, 8187.000000
2450, 13520848.000000, 1618.000000, 8160.000000, 8167.000000, 8155.000000
2451, 13521008.000000, 1570.500000, 8153.000000, 8162.000000, 8145.000000
2452, 13521168.000000, 1532.750000, 8156.000000, 8163.000000, 8148.000000
2453, 13521328.000000, 1506.250000, 8162.000000, 8164.000000, 8153.000000
2454, 13521488.000000, 1478.500000, 8166.000000, 8163.000000, 8153.000000
2455, 13521648.000000, 1440.250000, 8167.000000, 8164.000000, 8155.000000
2456, 13521808.000000, 1400.250000, 8166.000000, 8162.000000, 8150.000000
2457, 13521968.000000, 1450.500000, 8164.000000, 8158.000000, 8143.000000
2458, 13522128.000000, 1735.750000, 8163.000000, 8156.000000, 8140.000000
2459, 13522288.000000, 2289.000000, 8163.000000, 8156.000000, 8140.000000
2460, 13522448.000000, 2915.500000, 8163.000000, 8158.000000, 8142.000000
2461, 13522608.000000, 3370.750000, 8165.000000, 8158.000000, 8143.000000
2462, 13522768.000000, 3550.000000, 8165.000000, 8159.000000, 8144.000000
2463, 13522928.000000, 3509.750000, 8167.000000, 8159.000000, 8142.000000
2464, 13523088.000000, 3369.250000, 8169.000000, 8161.000000, 8147.000000
2465, 13523248.000000, 3239.000000, 8169.000000, 8163.000000, 8149.000000
2466, 13523408.000000, 3159.500000, 8170.000000, 8165.000000, 8150.000000
2467, 13523568.000000, 3104.750000, 8168.000000, 8163.000000, 8150.000000
2468, 13523728.000000, 3017.500000, 8171.000000, 8172.000000, 8153.000000
2469, 13523888.000000, 2875.500000, 8173.000000, 8170.000000, 8149.000000
2470, 13524048.000000, 2731.500000, 8183.000000, 8172.000000, 8161.000000
2471, 13524208.000000, 2641.250000, 8176.000000, 8170.000000, 8159.000000
2472, 13524368.000000, 2614.500000, 8171.000000, 8170.000000, 8157.000000
2473, 13524528.000000, 2610.750000, 8173.000000, 8170.000000, 8159.000000
2474, 13524688.000000, 2584.000000, 8168.000000, 8183.000000, 8176.000000
2475, 13524848.000000, 2515.500000, 8352.000000, 8239.000000, 8317.000000
2476, 13525008.000000, 2415.250000, 8449.000000, 7954.000000, 8110.000000
2477, 13525168.000000, 2288.250000, 8039.000000, 8031.000000, 7934.000000
2478, 13525328.000000, 2159.500000, 8119.000000, 8177.000000, 8116.000000
2479, 13525488.000000, 2038.500000, 8171.000000, 8228.000000, 8221.000000
2480, 13525648.000000, 1942.000000, 8183.000000, 8235.000000, 8234.000000
2481, 13525808.000000, 1872.000000, 8188.000000, 8242.000000, 8244.000000
2482, 13525968.000000, 1821.750000, 8198.000000, 8249.000000, 8256.000000
2483, 13526128.000000, 1787.000000, 8207.000000, 8261.000000, 8272.000000
2484, 13526288.000000, 1764.250000, 8216.000000, 8278.000000, 8293.000000
2485, 13526448.000000, 1746.750000, 8232.000000, 8303.000000, 8327.000000
2486, 13526608.000000, 1730.000000, 8245.000000, 8326.000000, 8356.000000
2487, 13526768.000000, 1708.250000, 8254.000000, 8336.000000, 8370.000000
2488, 13526928.000000, 1683.750000, 8252.000000, 8326.000000, 8357.000000
2489, 13527088.000000, 1659.750000, 8237.000000, 8290.000000, 8315.000000
2490, 13527248.000000, 1632.250000, 8202.000000, 8233.000000, 8241.000000
2491, 13527408.000000, 1601.250000, 8170.000000, 8184.000000, 8175.000000
2492, 13527568.000000, 1564.000000, 8156.000000, 8163.000000, 8146.000000
2493, 13527728.000000, 1527.250000, 8152.000000, 8160.000000, 8139.000000
2494, 13527888.000000, 1497.500000, 8156.000000, 8163.000000, 8146.000000
2495, 13528048.000000, 1475.000000, 8159.000000, 8167.000000, 8150.000000
2496, 13528208.000000, 1450.000000, 8161.000000, 8166.000000, 8149.000000
2497, 13528368.000000, 1412.500000, 8163.000000, 8163.000000, 8147.000000
2498, 13528528.000000, 1377.500000, 8165.000000, 8159.000000, 8144.000000
2499, 13528688.000000, 1463.250000, 8164.000000, 8156.000000, 8139.000000
2500, 13528848.000000, 1792.500000, 8162.000000, 8156.000000, 8137.000000
2501, 13529008.000000, 2399.000000, 8162.000000, 8156.000000, 8137.000000
2502, 13529168.000000, 3049.750000, 8163.000000, 8156.000000, 8136.000000
2503, 13529328.000000, 3516.000000, 8164.000000, 8156.000000, 8137.000000
2504, 13529488.000000, 3673.250000, 8164.000000, 8157.000000, 8138.000000
2505, 13529648.000000, 3612.500000, 8164.000000, 8158.000000, 8139.000000
2506, 13529808.000000, 3457.500000, 8165.000000, 8161.000000, 8144.000000
2507, 13529968.000000, 3323.250000, 8166.000000, 8161.000000, 8143.000000
2508, 13530128.000000, 3240.750000, 8168.000000, 8160.000000, 8145.000000
2509, 13530288.000000, 3176.000000, 8168.000000, 8163.000000, 8148.000000
2510, 13530448.000000, 3065.500000, 8164.000000, 8161.000000, 8140.000000
2511, 13530608.000000, 2893.750000, 8176.000000, 8179.000000, 8158.000000
2512, 13530768.000000, 2724.250000, 8181.000000, 8166.000000, 8154.000000
2513, 13530928.000000, 2625.250000, 8184.000000, 8168.000000, 8160.000000
2514, 13531088.000000, 2599.250000, 8175.000000, 8167.000000, 8155.000000
2515, 13531248.000000, 2601.000000, 8177.000000, 8169.000000, 8160.000000
2516, 13531408.000000, 2580.750000, 8176.000000, 8171.000000, 8162.000000
2517, 13531568.000000, 2510.500000, 8174.000000, 8237.000000, 8242.000000
2518, 13531728.000000, 2407.000000, 8600.000000, 8123.000000, 8318.000000
2519, 13531888.000000, 2282.000000, 8084.000000, 8022.000000, 8005.000000
2520, 13532048.000000, 2155.000000, 8075.000000, 8092.000000, 7999.000000
2521, 13532208.000000, 2039.250000, 8159.000000, 8208.000000, 8187.000000
2522, 13532368.000000, 1939.500000, 8183.000000, 8225.000000, 8222.000000
2523, 13532528.000000, 1863.500000, 8194.000000, 8228.000000, 8232.000000
2524, 13532688.000000, 1806.500000, 8203.000000, 8237.000000, 8245.000000
2525, 13532848.000000, 1753.000000, 8211.000000, 8247.000000, 8259.000000
2526, 13533008.000000, 1709.250000, 8218.000000, 8258.000000, 8272.000000
2527, 13533168.000000, 1674.250000, 8235.000000, 8277.000000, 8299.000000
2528, 13533328.000000, 1640.750000, 8248.000000, 8300.000000, 8330.000000
2529, 13533488.000000, 1608.500000, 8260.000000, 8318.000000, 8352.000000
2530, 13533648.000000, 1562.500000, 8272.000000, 8318.000000, 8356.000000
2531, 13533808.000000, 1504.000000, 8263.000000, 8303.000000, 8337.000000
2532, 13533968.000000, 1443.000000, 8237.000000, 8263.000000, 8288.000000
2533, 13534128.000000, 1383.000000, 8199.000000, 8210.000000, 8218.000000
2534, 13534288.000000, 1321.000000, 8173.000000, 8173.000000, 8166.000000
2535, 13534448.000000, 1257.500000, 8161.000000, 8163.000000, 8148.000000
2536, 13534608.000000, 1195.250000, 8162.000000, 8163.000000, 8150.000000
2537, 13534768.000000, 1139.250000, 8165.000000, 8164.000000, 8153.000000
2538, 13534928.000000, 1092.250000, 8171.000000, 8164.000000, 8155.000000
2539, 13535088.000000, 1042.250000, 8176.000000, 8164.000000, 8157.000000
2540, 13535248.000000, 989.750000, 8176.000000, 8163.000000, 8156.000000
2541, 13535408.000000, 963.500000, 8173.000000, 8159.000000, 8150.000000
2542, 13535568.000000, 1073.250000, 8174.000000, 8156.000000, 8147.000000
2543, 13535728.000000, 1426.000000, 8173.000000, 8154.000000, 8143.000000
2544, 13535888.000000, 2001.250000, 8171.000000, 8156.000000, 8147.000000
2545, 13536048.000000, 2575.250000, 8174.000000, 8157.000000, 8148.000000
2546, 13536208.000000, 2940.750000, 8174.000000, 8157.000000, 8148.000000
2547, 13536368.000000, 3028.000000, 8173.000000, 8158.000000, 8149.000000
2548, 13536528.000000, 2932.000000, 8174.000000, 8159.000000, 8150.000000
2549, 13536688.000000, 2770.500000, 8177.000000, 8160.000000, 8153.000000
2550, 13536848.000000, 2648.500000, 8178.000000, 8164.000000, 8156.000000
2551, 13537008.000000, 2577.000000, 8170.000000, 8161.000000, 8148.000000
2552, 13537168.000000, 2506.500000, 8184.000000, 8172.000000, 8158.000000
2553, 13537328.000000, 2385.500000, 8189.000000, 8168.000000, 8165.000000
2554, 13537488.000000, 2229.000000, 8190.000000, 8168.000000, 8166.000000
2555, 13537648.000000, 2104.750000, 8179.000000, 8169.000000, 8164.000000
2556, 13537808.000000, 2050.250000, 8181.000000, 8170.000000, 8166.000000
2557, 13537968.000000, 2047.250000, 8180.000000, 8171.000000, 8168.000000
2558, 13538128.000000, 2039.750000, 8176.000000, 8233.000000, 8239.000000
2559, 13538288.000000, 2003.500000, 8588.000000, 8146.000000, 8337.000000
2560, 13538448.000000, 1927.000000, 8083.000000, 8094.000000, 8096.000000
2561, 13538608.000000, 1829.500000, 8072.000000, 8097.000000, 8020.000000
2562, 13538768.000000, 1720.500000, 8144.000000, 8186.000000, 8149.000000
2563, 13538928.000000, 1620.500000, 8187.000000, 8215.000000, 8217.000000
2564, 13539088.000000, 1540.750000, 8199.000000, 8221.000000, 8229.000000
2565, 13539248.000000, 1487.500000, 8205.000000, 8228.000000, 8238.000000
2566, 13539408.000000, 1449.750000, 8214.000000, 8236.000000, 8252.000000
2567, 13539568.000000, 1414.000000, 8222.000000, 8247.000000, 8266.000000
2568, 13539728.000000, 1372.500000, 8234.000000, 8261.000000, 8284.000000
2569, 13539888.000000, 1324.000000, 8252.000000, 8281.000000, 8312.000000
2570, 13540048.000000, 1269.500000, 8266.000000, 8298.000000, 8336.000000
2571, 13540208.000000, 1216.250000, 8272.000000, 8298.000000, 8336.000000
2572, 13540368.000000, 1171.250000, 8265.000000, 8282.000000, 8316.000000
2573, 13540528.000000, 1137.000000, 8238.000000, 8252.000000, 8278.000000
2574, 13540688.000000, 1112.250000, 8197.000000, 8214.000000, 8226.000000
2575, 13540848.000000, 1095.750000, 8164.000000, 8182.000000, 8177.000000
2576, 13541008.000000, 1083.500000, 8154.000000, 8168.000000, 8156.000000
2577, 13541168.000000, 1081.750000, 8154.000000, 8168.000000, 8156.000000
2578, 13541328.000000, 1087.750000, 8160.000000, 8169.000000, 8161.000000
2579, 13541488.000000, 1089.250000, 8164.000000, 8170.000000, 8163.000000
2580, 13541648.000000, 1082.250000, 8165.000000, 8170.000000, 8163.000000
2581, 13541808.000000, 1063.000000, 8167.000000, 8167.000000, 8160.000000
2582, 13541968.000000, 1044.750000, 8164.000000, 8164.000000, 8155.000000
2583, 13542128.000000, 1080.250000, 8165.000000, 8162.000000, 8155.000000
2584, 13542288.000000, 1310.250000, 8164.000000, 8163.000000, 8154.000000
2585, 13542448.000000, 1771.250000, 8165.000000, 8164.000000, 8155.000000
2586, 13542608.000000, 2351.750000, 8166.000000, 8163.000000, 8153.000000
2587, 13542768.000000, 2808.250000, 8166.000000, 8163.000000, 8153.000000
2588, 13542928.000000, 3032.250000, 8166.000000, 8164.000000, 8154.000000
2589, 13543088.000000, 3025.750000, 8167.000000, 8166.000000, 8157.000000
2590, 13543248.000000, 2902.250000, 8170.000000, 8168.000000, 8161.000000
2591, 13543408.000000, 2763.500000, 8169.000000, 8168.000000, 8162.000000
2592, 13543568.000000, 2664.000000, 8163.000000, 8167.000000, 8151.000000
2593, 13543728.000000, 2578.500000, 8173.000000, 8175.000000, 8156.000000
2594, 13543888.000000, 2461.750000, 8182.000000, 8171.000000, 8164.000000
2595, 13544048.000000, 2314.750000, 8184.000000, 8174.000000, 8174.000000
2596, 13544208.000000, 2193.750000, 8172.000000, 8171.000000, 8163.000000
2597, 13544368.000000, 2150.500000, 8173.000000, 8172.000000, 8165.000000
2598, 13544528.000000, 2165.750000, 8174.000000, 8174.000000, 8169.000000
2599, 13544688.000000, 2192.000000, 8216.000000, 8258.000000, 8281.000000
2600, 13544848.000000, 2181.500000, 8612.000000, 8082.000000, 8293.000000
2601, 13545008.000000, 2123.250000, 8049.000000, 8051.000000, 8003.000000
2602, 13545168.000000, 2024.500000, 8089.000000, 8131.000000, 8046.000000
2603, 13545328.000000, 1907.750000, 8168.000000, 8218.000000, 8209.000000
2604, 13545488.000000, 1797.500000, 8184.000000, 8229.000000, 8231.000000
2605, 13545648.000000, 1712.500000, 8193.000000, 8236.000000, 8242.000000
2606, 13545808.000000, 1646.250000, 8200.000000, 8241.000000, 8251.000000
2607, 13545968.000000, 1594.750000, 8206.000000, 8251.000000, 8265.000000
2608, 13546128.000000, 1544.250000, 8218.000000, 8266.000000, 8286.000000
2609, 13546288.000000, 1495.750000, 8231.000000, 8288.000000, 8313.000000
2610, 13546448.000000, 1454.500000, 8248.000000, 8313.000000, 8347.000000
2611, 13546608.000000, 1422.750000, 8262.000000, 8327.000000, 8367.000000
2612, 13546768.000000, 1402.500000, 8262.000000, 8324.000000, 8362.000000
2613, 13546928.000000, 1391.000000, 8253.000000, 8297.000000, 8331.000000
2614, 13547088.000000, 1386.500000, 8220.000000, 8248.000000, 8268.000000
2615, 13547248.000000, 1379.000000, 8183.000000, 8197.000000, 8200.000000
2616, 13547408.000000, 1369.250000, 8162.000000, 8167.000000, 8158.000000
2617, 13547568.000000, 1358.750000, 8156.000000, 8159.000000, 8146.000000
2618, 13547728.000000, 1336.000000, 8156.000000, 8160.000000, 8145.000000
2619, 13547888.000000, 1302.000000, 8161.000000, 8165.000000, 8154.000000
2620, 13548048.000000, 1256.250000, 8164.000000, 8166.000000, 8155.000000
2621, 13548208.000000, 1204.500000, 8168.000000, 8164.000000, 8157.000000
2622, 13548368.000000, 1148.000000, 8169.000000, 8162.000000, 8154.000000
2623, 13548528.000000, 1120.000000, 8169.000000, 8158.000000, 8148.000000
2624, 13548688.000000, 1236.000000, 8167.000000, 8158.000000, 8147.000000
2625, 13548848.000000, 1603.500000, 8166.000000, 8158.000000, 8146.000000
2626, 13549008.000000, 2206.000000, 8165.000000, 8158.000000, 8145.000000
2627, 13549168.000000, 2821.750000, 8166.000000, 8158.000000, 8144.000000
2628, 13549328.000000, 3243.750000, 8167.000000, 8158.000000, 8145.000000
2629, 13549488.000000, 3382.000000, 8170.000000, 8160.000000, 8149.000000
2630, 13549648.000000, 3322.000000, 8168.000000, 8162.000000, 8149.000000
2631, 13549808.000000, 3179.750000, 8169.000000, 8163.000000, 8151.000000
2632, 13549968.000000, 3060.750000, 8171.000000, 8163.000000, 8152.000000
2633, 13550128.000000, 2992.000000, 8173.000000, 8164.000000, 8155.000000
2634, 13550288.000000, 2936.250000, 8169.000000, 8163.000000, 8153.000000
2635, 13550448.000000, 2830.500000, 8174.000000, 8178.000000, 8165.000000
2636, 13550608.000000, 2666.500000, 8178.000000, 8170.000000, 8158.000000
2637, 13550768.000000, 2504.500000, 8186.000000, 8171.000000, 8166.000000
2638, 13550928.000000, 2410.000000, 8177.000000, 8170.000000, 8163.000000
2639, 13551088.000000, 2379.250000, 8174.000000, 8171.000000, 8164.000000
2640, 13551248.000000, 2367.250000, 8176.000000, 8172.000000, 8165.000000
2641, 13551408.000000, 2335.750000, 8168.000000, 8193.000000, 8192.000000
2642, 13551568.000000, 2266.250000, 8395.000000, 8217.000000, 8319.000000
2643, 13551728.000000, 2162.000000, 8409.000000, 7943.000000, 8081.000000
2644, 13551888.000000, 2037.500000, 8047.000000, 8040.000000, 7943.000000
2645, 13552048.000000, 1900.750000, 8128.000000, 8189.000000, 8138.000000
2646, 13552208.000000, 1765.000000, 8178.000000, 8233.000000, 8231.000000
2647, 13552368.000000, 1641.500000, 8189.000000, 8237.000000, 8242.000000
2648, 13552528.000000, 1546.250000, 8196.000000, 8243.000000, 8251.000000
2649, 13552688.000000, 1478.000000, 8202.000000, 8251.000000, 8261.000000
2650, 13552848.000000, 1431.250000, 8210.000000, 8264.000000, 8279.000000
2651, 13553008.000000, 1395.250000, 8222.000000, 8282.000000, 8303.000000
2652, 13553168.000000, 1374.250000, 8234.000000, 8306.000000, 8333.000000
2653, 13553328.000000, 1370.000000, 8251.000000, 8330.000000, 8366.000000
2654, 13553488.000000, 1376.250000, 8261.000000, 8340.000000, 8381.000000
2655, 13553648.000000, 1388.000000, 8260.000000, 8331.000000, 8371.000000
2656, 13553808.000000, 1385.750000, 8241.000000, 8291.000000, 8321.000000
2657, 13553968.000000, 1364.750000, 8209.000000, 8229.000000, 8245.000000
2658, 13554128.000000, 1333.500000, 8176.000000, 8180.000000, 8177.000000
2659, 13554288.000000, 1301.750000, 8160.000000, 8160.000000, 8146.000000
2660, 13554448.000000, 1280.750000, 8157.000000, 8157.000000, 8141.000000
2661, 13554608.000000, 1271.750000, 8160.000000, 8159.000000, 8145.000000
2662, 13554768.000000, 1260.000000, 8163.000000, 8161.000000, 8149.000000
2663, 13554928.000000, 1238.250000, 8166.000000, 8162.000000, 8152.000000
2664, 13555088.000000, 1202.250000, 8169.000000, 8161.000000, 8151.000000
2665, 13555248.000000, 1155.000000, 8168.000000, 8158.000000, 8147.000000
2666, 13555408.000000, 1155.750000, 8169.000000, 8154.000000, 8142.000000
2667, 13555568.000000, 1356.000000, 8169.000000, 8152.000000, 8140.000000
2668, 13555728.000000, 1824.500000, 8167.000000, 8153.000000, 8140.000000
2669, 13555888.000000, 2471.000000, 8165.000000, 8153.000000, 8138.000000
2670, 13556048.000000, 3033.250000, 8167.000000, 8155.000000, 8140.000000
2671, 13556208.000000, 3350.750000, 8168.000000, 8156.000000, 8143.000000
2672, 13556368.000000, 3406.500000, 8170.000000, 8156.000000, 8143.000000
2673, 13556528.000000, 3323.250000, 8172.000000, 8158.000000, 8146.000000
2674, 13556688.000000, 3208.500000, 8171.000000, 8160.000000, 8147.000000
2675, 13556848.000000, 3135.250000, 8171.000000, 8163.000000, 8150.000000
2676, 13557008.000000, 3100.750000, 8173.000000, 8162.000000, 8151.000000
2677, 13557168.000000, 3053.500000, 8175.000000, 8163.000000, 8153.000000
2678, 13557328.000000, 2936.500000, 8169.000000, 8161.000000, 8145.000000
2679, 13557488.000000, 2757.000000, 8180.000000, 8181.000000, 8166.000000
2680, 13557648.000000, 2588.750000, 8184.000000, 8168.000000, 8158.000000
2681, 13557808.000000, 2489.750000, 8187.000000, 8169.000000, 8163.000000
2682, 13557968.000000, 2450.750000, 8175.000000, 8166.000000, 8156.000000
2683, 13558128.000000, 2424.250000, 8178.000000, 8169.000000, 8163.000000
2684, 13558288.000000, 2378.000000, 8178.000000, 8171.000000, 8165.000000
2685, 13558448.000000, 2296.250000, 8166.000000, 8231.000000, 8237.000000
2686, 13558608.000000, 2192.500000, 8575.000000, 8124.000000, 8312.000000
2687, 13558768.000000, 2075.750000, 8114.000000, 7991.000000, 7988.000000
2688, 13558928.000000, 1954.250000, 8065.000000, 8079.000000, 7980.000000
2689, 13559088.000000, 1842.750000, 8157.000000, 8211.000000, 8189.000000
2690, 13559248.000000, 1745.750000, 8180.000000, 8229.000000, 8228.000000
2691, 13559408.000000, 1675.250000, 8190.000000, 8233.000000, 8237.000000
2692, 13559568.000000, 1623.250000, 8199.000000, 8238.000000, 8244.000000
2693, 13559728.000000, 1577.500000, 8205.000000, 8247.000000, 8257.000000
2694, 13559888.000000, 1529.000000, 8214.000000, 8263.000000, 8277.000000
2695, 13560048.000000, 1478.250000, 8225.000000, 8282.000000, 8303.000000
2696, 13560208.000000, 1427.500000, 8241.000000, 8306.000000, 8334.000000
2697, 13560368.000000, 1382.500000, 8254.000000, 8324.000000, 8358.000000
2698, 13560528.000000, 1339.750000, 8264.000000, 8330.000000, 8367.000000
2699, 13560688.000000, 1300.000000, 8260.000000, 8317.000000, 8351.000000
2700, 13560848.000000, 1259.500000, 8238.000000, 8271.000000, 8297.000000
2701, 13561008.000000, 1225.250000, 8201.000000, 8212.000000, 8221.000000
2702, 13561168.000000, 1196.750000, 8171.000000, 8170.000000, 8161.000000
2703, 13561328.000000, 1169.250000, 8160.000000, 8156.000000, 8140.000000
2704, 13561488.000000, 1128.750000, 8161.000000, 8158.000000, 8141.000000
2705, 13561648.000000, 1083.750000, 8162.000000, 8159.000000, 8144.000000
2706, 13561808.000000, 1036.000000, 8166.000000, 8159.000000, 8145.000000
2707, 13561968.000000, 985.000000, 8169.000000, 8156.000000, 8144.000000
2708, 13562128.000000, 931.500000, 8171.000000, 8156.000000, 8145.000000
2709, 13562288.000000, 876.250000, 8172.000000, 8153.000000, 8143.000000
2710, 13562448.000000, 917.750000, 8169.000000, 8151.000000, 8137.000000
2711, 13562608.000000, 1388.500000, 8171.000000, 8150.000000, 8137.000000
2712, 13562768.000000, 2283.500000, 8170.000000, 8149.000000, 8134.000000
2713, 13562928.000000, 2921.500000, 8170.000000, 8150.000000, 8135.000000
2714, 13563088.000000, 3186.250000, 8171.000000, 8153.000000, 8140.000000
2715, 13563248.000000, 3147.500000, 8172.000000, 8153.000000, 8139.000000
2716, 13563408.000000, 2940.000000, 8172.000000, 8155.000000, 8141.000000
2717, 13563568.000000, 2777.500000, 8175.000000, 8156.000000, 8142.000000
2718, 13563728.000000, 2660.250000, 8175.000000, 8158.000000, 8146.000000
2719, 13563888.000000, 2564.250000, 8176.000000, 8159.000000, 8146.000000
2720, 13564048.000000, 2421.750000, 8171.000000, 8156.000000, 8141.000000
2721, 13564208.000000, 2239.500000, 8179.000000, 8168.000000, 8151.000000
2722, 13564368.000000, 2077.750000, 8183.000000, 8167.000000, 8152.000000
2723, 13564528.000000, 1996.500000, 8188.000000, 8165.000000, 8154.000000
2724, 13564688.000000, 1992.000000, 8179.000000, 8165.000000, 8154.000000
2725, 13564848.000000, 2014.750000, 8178.000000, 8166.000000, 8156.000000
2726, 13565008.000000, 2020.000000, 8179.000000, 8168.000000, 8159.000000
2727, 13565168.000000, 1982.750000, 8171.000000, 8192.000000, 8189.000000
2728, 13565328.000000, 1899.250000, 8441.000000, 8211.000000, 8322.000000
2729, 13565488.000000, 1788.250000, 8284.000000, 8083.000000, 8165.000000
2730, 13565648.000000, 1663.250000, 8058.000000, 8090.000000, 8016.000000
2731, 13565808.000000, 1539.000000, 8119.000000, 8161.000000, 8096.000000
2732, 13565968.000000, 1429.750000, 8180.000000, 8212.000000, 8207.000000
2733, 13566128.000000, 1345.500000, 8193.000000, 8217.000000, 8219.000000
2734, 13566288.000000, 1288.500000, 8199.000000, 8223.000000, 8227.000000
2735, 13566448.000000, 1248.500000, 8206.000000, 8231.000000, 8239.000000
2736, 13566608.000000, 1222.750000, 8215.000000, 8240.000000, 8252.000000
2737, 13566768.000000, 1217.250000, 8228.000000, 8254.000000, 8271.000000
2738, 13566928.000000, 1216.750000, 8242.000000, 8273.000000, 8297.000000
2739, 13567088.000000, 1208.250000, 8257.000000, 8295.000000, 8325.000000
2740, 13567248.000000, 1195.750000, 8267.000000, 8302.000000, 8335.000000
2741, 13567408.000000, 1172.250000, 8266.000000, 8292.000000, 8324.000000
2742, 13567568.000000, 1151.000000, 8247.000000, 8265.000000, 8289.000000
2743, 13567728.000000, 1143.500000, 8208.000000, 8224.000000, 8236.000000
2744, 13567888.000000, 1140.250000, 8171.000000, 8186.000000, 8181.000000
2745, 13568048.000000, 1143.750000, 8155.000000, 8166.000000, 8151.000000
2746, 13568208.000000, 1144.000000, 8155.000000, 8161.000000, 8146.000000
2747, 13568368.000000, 1142.250000, 8156.000000, 8162.000000, 8147.000000
2748, 13568528.000000, 1135.000000, 8161.000000, 8166.000000, 8153.000000
2749, 13568688.000000, 1123.250000, 8164.000000, 8165.000000, 8154.000000
2750, 13568848.000000, 1109.000000, 8165.000000, 8164.000000, 8151.000000
2751, 13569008.000000, 1134.000000, 8166.000000, 8161.000000, 8149.000000
2752, 13569168.000000, 1338.500000, 8163.000000, 8159.000000, 8145.000000
2753, 13569328.000000, 1785.000000, 8162.000000, 8159.000000, 8144.000000
2754, 13569488.000000, 2398.750000, 8162.000000, 8158.000000, 8143.000000
2755, 13569648.000000, 2929.000000, 8161.000000, 8159.000000, 8142.000000
2756, 13569808.000000, 3224.250000, 8161.000000, 8159.000000, 8142.000000
2757, 13569968.000000, 3248.250000, 8163.000000, 8158.000000, 8142.000000
2758, 13570128.000000, 3112.750000, 8165.000000, 8161.000000, 8146.000000
2759, 13570288.000000, 2926.500000, 8165.000000, 8163.000000, 8148.000000
2760, 13570448.000000, 2770.000000, 8162.000000, 8160.000000, 8145.000000
2761, 13570608.000000, 2648.750000, 8167.000000, 8170.000000, 8149.000000
2762, 13570768.000000, 2522.500000, 8168.000000, 8167.000000, 8146.000000
2763, 13570928.000000, 2369.750000, 8179.000000, 8168.000000, 8157.000000
2764, 13571088.000000, 2237.750000, 8172.000000, 8170.000000, 8158.000000
2765, 13571248.000000, 2173.500000, 8169.000000, 8168.000000, 8156.000000
2766, 13571408.000000, 2176.500000, 8170.000000, 8170.000000, 8159.000000
2767, 13571568.000000, 2197.500000, 8166.000000, 8183.000000, 8177.000000
2768, 13571728.000000, 2185.500000, 8352.000000, 8244.000000, 8320.000000
2769, 13571888.000000, 2129.750000, 8435.000000, 8024.000000, 8169.000000
2770, 13572048.000000, 2034.000000, 8044.000000, 8067.000000, 7990.000000
2771, 13572208.000000, 1915.500000, 8106.000000, 8163.000000, 8093.000000
2772, 13572368.000000, 1797.750000, 8171.000000, 8219.000000, 8212.000000
2773, 13572528.000000, 1691.000000, 8182.000000, 8227.000000, 8227.000000
2774, 13572688.000000, 1599.750000, 8191.000000, 8233.000000, 8237.000000
2775, 13572848.000000, 1525.750000, 8197.000000, 8240.000000, 8246.000000
2776, 13573008.000000, 1471.500000, 8205.000000, 8251.000000, 8259.000000
2777, 13573168.000000, 1426.500000, 8217.000000, 8267.000000, 8283.000000
2778, 13573328.000000, 1384.750000, 8234.000000, 8291.000000, 8316.000000
2779, 13573488.000000, 1339.500000, 8250.000000, 8315.000000, 8347.000000
2780, 13573648.000000, 1298.000000, 8259.000000, 8325.000000, 8361.000000
2781, 13573808.000000, 1262.000000, 8259.000000, 8317.000000, 8351.000000
2782, 13573968.000000, 1234.500000, 8240.000000, 8282.000000, 8307.000000
2783, 13574128.000000, 1213.750000, 8205.000000, 8230.000000, 8242.000000
2784, 13574288.000000, 1195.750000, 8170.000000, 8186.000000, 8181.000000
2785, 13574448.000000, 1180.750000, 8152.000000, 8163.000000, 8146.000000
2786, 13574608.000000, 1167.500000, 8150.000000, 8158.000000, 8139.000000
2787, 13574768.000000, 1148.250000, 8154.000000, 8161.000000, 8145.000000
2788, 13574928.000000, 1122.000000, 8158.000000, 8164.000000, 8151.000000
2789, 13575088.000000, 1087.750000, 8162.000000, 8165.000000, 8154.000000
2790, 13575248.000000, 1048.750000, 8162.000000, 8164.000000, 8153.000000
2791, 13575408.000000, 1040.500000, 8164.000000, 8160.000000, 8149.000000
2792, 13575568.000000, 1182.750000, 8162.000000, 8157.000000, 8144.000000
2793, 13575728.000000, 1565.500000, 8159.000000, 8157.000000, 8142.000000
2794, 13575888.000000, 2151.250000, 8161.000000, 8156.000000, 8141.000000
2795, 13576048.000000, 2708.500000, 8161.000000, 8156.000000, 8141.000000
2796, 13576208.000000, 3059.500000, 8162.000000, 8156.000000, 8141.000000
2797, 13576368.000000, 3146.250000, 8163.000000, 8157.000000, 8143.000000
2798, 13576528.000000, 3066.500000, 8161.000000, 8159.000000, 8142.000000
2799, 13576688.000000, 2929.500000, 8163.000000, 8160.000000, 8144.000000
2800, 13576848.000000, 2811.500000, 8165.000000, 8162.000000, 8149.000000
2801, 13577008.000000, 2727.750000, 8164.000000, 8160.000000, 8147.000000
2802, 13577168.000000, 2642.500000, 8167.000000, 8170.000000, 8153.000000
2803, 13577328.000000, 2517.250000, 8170.000000, 8168.000000, 8149.000000
2804, 13577488.000000, 2367.750000, 8176.000000, 8168.000000, 8155.000000
2805, 13577648.000000, 2250.250000, 8173.000000, 8168.000000, 8157.000000
2806, 13577808.000000, 2202.750000, 8168.000000, 8166.000000, 8155.000000
2807, 13577968.000000, 2199.750000, 8172.000000, 8169.000000, 8161.000000
2808, 13578128.000000, 2188.250000, 8169.000000, 8178.000000, 8172.000000
2809, 13578288.000000, 2136.500000, 8312.000000, 8252.000000, 8315.000000
2810, 13578448.000000, 2037.000000, 8504.000000, 7950.000000, 8131.000000
2811, 13578608.000000, 1909.250000, 8040.000000, 8023.000000, 7931.000000
2812, 13578768.000000, 1776.750000, 8116.000000, 8175.000000, 8112.000000
2813, 13578928.000000, 1652.750000, 8172.000000, 8231.000000, 8225.000000
2814, 13579088.000000, 1546.750000, 8183.000000, 8237.000000, 8238.000000
2815, 13579248.000000, 1467.750000, 8190.000000, 8242.000000, 8246.000000
2816, 13579408.000000, 1417.000000, 8199.000000, 8249.000000, 8257.000000
2817, 13579568.000000, 1383.750000, 8205.000000, 8261.000000, 8273.000000
2818, 13579728.000000, 1363.250000, 8215.000000, 8279.000000, 8297.000000
2819, 13579888.000000, 1342.250000, 8230.000000, 8303.000000, 8329.000000
2820, 13580048.000000, 1319.000000, 8245.000000, 8330.000000, 8364.000000
2821, 13580208.000000, 1301.500000, 8257.000000, 8344.000000, 8384.000000
2822, 13580368.000000, 1286.750000, 8257.000000, 8337.000000, 8375.000000
2823, 13580528.000000, 1276.250000, 8241.000000, 8300.000000, 8330.000000
2824, 13580688.000000, 1257.750000, 8206.000000, 8237.000000, 8251.000000
2825, 13580848.000000, 1232.000000, 8173.000000, 8184.000000, 8179.000000
2826, 13581008.000000, 1203.000000, 8158.000000, 8160.000000, 8145.000000
2827, 13581168.000000, 1178.750000, 8155.000000, 8157.000000, 8140.000000
2828, 13581328.000000, 1169.250000, 8159.000000, 8160.000000, 8145.000000
2829, 13581488.000000, 1162.750000, 8162.000000, 8163.000000, 8150.000000
2830, 13581648.000000, 1151.250000, 8163.000000, 8163.000000, 8151.000000
2831, 13581808.000000, 1122.750000, 8166.000000, 8161.000000, 8149.000000
2832, 13581968.000000, 1128.500000, 8166.000000, 8158.000000, 8146.000000
2833, 13582128.000000, 1294.750000, 8165.000000, 8156.000000, 8143.000000
2834, 13582288.000000, 1737.250000, 8163.000000, 8155.000000, 8139.000000
2835, 13582448.000000, 2372.000000, 8163.000000, 8155.000000, 8141.000000
2836, 13582608.000000, 2959.250000, 8165.000000, 8154.000000, 8139.000000
2837, 13582768.000000, 3288.000000, 8164.000000, 8155.000000, 8138.000000
2838, 13582928.000000, 3344.500000, 8165.000000, 8157.000000, 8142.000000
2839, 13583088.000000, 3226.500000, 8167.000000, 8159.000000, 8144.000000
2840, 13583248.000000, 3065.250000, 8169.000000, 8159.000000, 8147.000000
2841, 13583408.000000, 2942.750000, 8171.000000, 8159.000000, 8148.000000
2842, 13583568.000000, 2876.500000, 8172.000000, 8160.000000, 8150.000000
2843, 13583728.000000, 2820.000000, 8167.000000, 8165.000000, 8146.000000
2844, 13583888.000000, 2716.500000, 8175.000000, 8171.000000, 8151.000000
2845, 13584048.000000, 2561.000000, 8186.000000, 8167.000000, 8158.000000
2846, 13584208.000000, 2419.500000, 8184.000000, 8167.000000, 8161.000000
2847, 13584368.000000, 2341.000000, 8177.000000, 8166.000000, 8157.000000
2848, 13584528.000000, 2319.500000, 8177.000000, 8168.000000, 8161.000000
2849, 13584688.000000, 2309.750000, 8178.000000, 8171.000000, 8165.000000
2850, 13584848.000000, 2271.250000, 8230.000000, 8256.000000, 8282.000000
2851, 13585008.000000, 2185.250000, 8605.000000, 8029.000000, 8241.000000
2852, 13585168.000000, 2065.500000, 8049.000000, 8019.000000, 7953.000000
2853, 13585328.000000, 1929.500000, 8099.000000, 8142.000000, 8061.000000
2854, 13585488.000000, 1801.500000, 8173.000000, 8224.000000, 8215.000000
2855, 13585648.000000, 1694.750000, 8186.000000, 8230.000000, 8231.000000
2856, 13585808.000000, 1611.750000, 8194.000000, 8234.000000, 8238.000000
2857, 13585968.000000, 1547.500000, 8201.000000, 8242.000000, 8249.000000
2858, 13586128.000000, 1497.000000, 8211.000000, 8255.000000, 8267.000000
2859, 13586288.000000, 1447.750000, 8219.000000, 8269.000000, 8284.000000
2860, 13586448.000000, 1405.000000, 8233.000000, 8290.000000, 8314.000000
2861, 13586608.000000, 1367.500000, 8250.000000, 8314.000000, 8344.000000
2862, 13586768.000000, 1337.500000, 8264.000000, 8330.000000, 8367.000000
2863, 13586928.000000, 1312.500000, 8267.000000, 8328.000000, 8365.000000
2864, 13587088.000000, 1287.500000, 8257.000000, 8302.000000, 8336.000000
2865, 13587248.000000, 1262.500000, 8224.000000, 8246.000000, 8266.000000
2866, 13587408.000000, 1232.000000, 8189.000000, 8191.000000, 8192.000000
2867, 13587568.000000, 1205.250000, 8169.000000, 8162.000000, 8150.000000
2868, 13587728.000000, 1189.000000, 8163.000000, 8157.000000, 8141.000000
2869, 13587888.000000, 1181.500000, 8164.000000, 8158.000000, 8143.000000
2870, 13588048.000000, 1174.500000, 8168.000000, 8160.000000, 8147.000000
2871, 13588208.000000, 1156.250000, 8170.000000, 8159.000000, 8148.000000
2872, 13588368.000000, 1115.000000, 8173.000000, 8157.000000, 8148.000000
2873, 13588528.000000, 1082.500000, 8175.000000, 8157.000000, 8147.000000
2874, 13588688.000000, 1152.500000, 8173.000000, 8154.000000, 8143.000000
2875, 13588848.000000, 1475.000000, 8173.000000, 8153.000000, 8142.000000
2876, 13589008.000000, 2037.250000, 8173.000000, 8151.000000, 8138.000000
2877, 13589168.000000, 2665.250000, 8168.000000, 8151.000000, 8136.000000
2878, 13589328.000000, 3107.250000, 8171.000000, 8153.000000, 8138.000000
2879, 13589488.000000, 3281.250000, 8170.000000, 8155.000000, 8140.000000
2880, 13589648.000000, 3222.000000, 8173.000000, 8157.000000, 8142.000000
2881, 13589808.000000, 3061.250000, 8174.000000, 8156.000000, 8143.000000
2882, 13589968.000000, 2899.750000, 8173.000000, 8158.000000, 8145.000000
2883, 13590128.000000, 2786.500000, 8170.000000, 8158.000000, 8137.000000
2884, 13590288.000000, 2697.750000, 8179.000000, 8168.000000, 8143.000000
2885, 13590448.000000, 2580.500000, 8188.000000, 8163.000000, 8152.000000
2886, 13590608.000000, 2420.500000, 8188.000000, 8167.000000, 8160.000000
2887, 13590768.000000, 2268.500000, 8179.000000, 8165.000000, 8154.000000
2888, 13590928.000000, 2177.750000, 8180.000000, 8168.000000, 8159.000000
2889, 13591088.000000, 2144.500000, 8181.000000, 8169.000000, 8161.000000
2890, 13591248.000000, 2135.750000, 8190.000000, 8243.000000, 8249.000000
2891, 13591408.000000, 2110.500000, 8614.000000, 8131.000000, 8331.000000
2892, 13591568.000000, 2057.500000, 8064.000000, 8092.000000, 8074.000000
2893, 13591728.000000, 1974.000000, 8082.000000, 8103.000000, 8019.000000
2894, 13591888.000000, 1869.750000, 8157.000000, 8193.000000, 8163.000000
2895, 13592048.000000, 1751.250000, 8188.000000, 8213.000000, 8210.000000
2896, 13592208.000000, 1638.500000, 8199.000000, 8219.000000, 8223.000000
2897, 13592368.000000, 1544.250000, 8207.000000, 8224.000000, 8231.000000
2898, 13592528.000000, 1479.250000, 8214.000000, 8233.000000, 8243.000000
2899, 13592688.000000, 1442.000000, 8225.000000, 8244.000000, 8259.000000
2900, 13592848.000000, 1414.500000, 8235.000000, 8260.000000, 8280.000000
2901, 13593008.000000, 1390.250000, 8254.000000, 8280.000000, 8310.000000
2902, 13593168.000000, 1368.000000, 8270.000000, 8296.000000, 8331.000000
2903, 13593328.000000, 1351.500000, 8275.000000, 8297.000000, 8333.000000
2904, 13593488.000000, 1340.750000, 8267.000000, 8281.000000, 8312.000000
2905, 13593648.000000, 1326.750000, 8235.000000, 8247.000000, 8269.000000
2906, 13593808.000000, 1310.250000, 8191.000000, 8206.000000, 8210.000000
2907, 13593968.000000, 1293.500000, 8165.000000, 8177.000000, 8168.000000
2908, 13594128.000000, 1277.000000, 8156.000000, 8165.000000, 8150.000000
2909, 13594288.000000, 1254.500000, 8157.000000, 8165.000000, 8151.000000
2910, 13594448.000000, 1221.250000, 8160.000000, 8167.000000, 8153.000000
2911, 13594608.000000, 1182.000000, 8164.000000, 8167.000000, 8156.000000
2912, 13594768.000000, 1145.500000, 8167.000000, 8167.000000, 8156.000000
2913, 13594928.000000, 1109.250000, 8167.000000, 8165.000000, 8154.000000
2914, 13595088.000000, 1110.750000, 8165.000000, 8165.000000, 8154.000000
2915, 13595248.000000, 1273.500000, 8164.000000, 8162.000000, 8149.000000
2916, 13595408.000000, 1680.000000, 8162.000000, 8160.000000, 8145.000000
2917, 13595568.000000, 2283.000000, 8162.000000, 8160.000000, 8145.000000
2918, 13595728.000000, 2838.500000, 8159.000000, 8161.000000, 8144.000000
2919, 13595888.000000, 3160.250000, 8162.000000, 8163.000000, 8148.000000
2920, 13596048.000000, 3195.500000, 8161.000000, 8163.000000, 8146.000000
2921, 13596208.000000, 3052.250000, 8161.000000, 8164.000000, 8147.000000
2922, 13596368.000000, 2846.500000, 8160.000000, 8163.000000, 8147.000000
2923, 13596528.000000, 2674.000000, 8164.000000, 8173.000000, 8154.000000
2924, 13596688.000000, 2543.250000, 8165.000000, 8171.000000, 8150.000000
