Time_Seconds,ECG_Raw,ECG_Filtered,R_Peak_Marker
0.0,8153.0,29.18433064568785,0.0
0.008,8162.0,73.04224473832255,0.0
0.016,8168.0,90.97018873861612,0.0
0.024,8175.0,90.43650160343259,0.0
0.032,8185.0,79.88275281683923,0.0
0.04,8194.0,65.41183062420646,0.0
0.048,8210.0,52.04406609442435,0.0
0.056,8236.0,44.82853208963866,0.0
0.064,8266.5,45.30773915059763,0.0
0.072,8282.5,48.221941702532604,0.0
0.08,8276.5,44.67738898195489,0.0
0.088,8238.0,26.71614014722445,0.0
0.096,8193.5,-4.913563409161952,0.0
0.104,8165.0,-37.78832391164542,0.0
0.112,8152.5,-59.87758093335174,0.0
0.12,8152.0,-66.5188938026904,0.0
0.128,8156.0,-59.64645294531147,0.0
0.136,8156.5,-45.61964274107436,0.0
0.144,8160.0,-29.59053070397522,0.0
0.152,8163.5,-14.19456077501468,0.0
0.16,8161.0,-2.7330457579396352,0.0
0.168,8160.5,3.84673485113035,0.0
0.176,8162.5,7.46124708409684,0.0
0.184,8159.0,8.161199296766654,0.0
0.192,8164.0,7.644266973971753,0.0
0.2,8166.5,7.711849130593009,0.0
0.208,8174.0,8.625617994813183,0.0
0.216,8191.5,12.965794501926212,0.0
0.224,8174.5,13.668950657282494,0.0
0.232,8162.5,6.0876978829096515,0.0
0.24,8163.0,-1.6682688438704645,0.0
0.248,8164.0,-5.695754295051756,0.0
0.256,8173.5,-5.068900315207429,0.0
0.264,8522.5,69.31217072509367,0.0
0.272,8135.5,95.02903898405975,0.0
0.28,8145.0,18.70686731964338,0.0
0.288,8152.5,-25.79300705645619,0.0
0.296,8159.0,-45.339423542968234,0.0
0.304,8163.0,-47.879991601979555,0.0
0.312,8173.5,-39.16094553434664,0.0
0.32,8182.5,-24.08338841218938,0.0
0.328,8193.5,-7.429203550122338,0.0
0.336,8207.0,8.55177906515678,0.0
0.344,8235.0,25.184839399075372,0.0
0.352,8258.5,41.72477738930161,1.0
0.36,8280.0,54.374037793026446,0.0
0.368,8273.0,56.5734055627147,0.0
0.376,8240.5,41.22702943005743,0.0
0.384,8191.0,9.148036008945382,0.0
0.392,8161.0,-27.45229358426809,0.0
0.4,8153.0,-52.69900775003066,0.0
0.408,8154.0,-61.07018704985535,0.0
0.416,8157.5,-55.84257378069378,0.0
0.424,8164.0,-42.2415703471504,0.0
0.432,8163.0,-26.669984143705506,0.0
0.44,8162.5,-13.723940576169298,0.0
0.448,8163.5,-3.884809959537961,0.0
0.456,8165.0,3.0337707712037627,0.0
0.464,8161.0,6.154700490695177,0.0
0.472,8163.0,6.658686291811591,0.0
0.48,8166.0,6.96871134776643,0.0
0.488,8175.5,8.64928106319394,0.0
0.496,8170.5,9.251187830934668,0.0
0.504,8195.5,12.290581715772532,0.0
0.512,8193.0,16.821445535627845,0.0
0.52,8169.5,11.638839802637676,0.0
0.528,8169.5,2.008200452338997,0.0
0.536,8172.5,-3.37890820176176,0.0
0.544,8164.5,-7.074057133872884,0.0
0.552,8337.0,25.420634036824367,0.0
0.56,8312.5,71.02039464912627,0.0
0.568,8129.5,44.82806674110566,0.0
0.576,8155.5,-9.533726262932305,0.0
0.584,8165.0,-32.985096329449334,0.0
0.592,8170.5,-38.7887556181397,0.0
0.6,8177.0,-33.888587068254765,0.0
0.608,8185.0,-22.890363711386044,0.0
0.616,8195.5,-9.136017975844197,0.0
0.624,8203.5,4.16297282815799,0.0
0.632,8227.5,17.934444624248272,0.0
0.64,8254.0,33.67698847421411,0.0
0.648,8278.5,48.30061603515264,0.0
0.656,8279.5,54.83573277993423,1.0
0.664,8271.0,48.85458952527915,0.0
0.672,8226.0,26.98032473911985,0.0
0.68,8182.0,-8.22938844816963,0.0
0.688,8165.0,-40.26703263859872,0.0
0.696,8157.0,-58.21660576424756,0.0
0.704,8165.5,-59.90347871499921,0.0
0.712,8164.5,-50.28676197261939,0.0
0.72,8167.0,-36.66893363541794,0.0
0.728,8169.0,-22.136575537946783,0.0
0.736,8171.0,-9.368793479953865,0.0
0.744,8168.5,-0.49967895612758184,0.0
0.752,8168.0,4.208355506430962,0.0
0.76,8167.5,6.15034213363856,0.0
0.768,8171.5,7.0814182456097114,0.0
0.776,8174.5,7.988534302003018,0.0
0.784,8176.5,8.335349271159657,0.0
0.792,8188.0,10.034778864644068,0.0
0.8,8195.5,13.400143465144538,0.0
0.808,8178.0,11.315786381203225,0.0
0.816,8171.5,3.4642744738689544,0.0
0.824,8171.5,-3.0322769827785123,0.0
0.832,8170.5,-6.618898646336447,0.0
0.84,8234.0,5.0322838942772705,0.0
0.848,8445.0,67.24039667427905,0.0
0.856,8132.0,72.99705013146286,0.0
0.864,8154.0,5.882771205681365,0.0
0.872,8159.0,-29.184278002189103,0.0
0.88,8163.0,-43.65948465252791,0.0
0.888,8170.0,-43.35349572757764,0.0
0.896,8176.5,-33.841571579691845,0.0
0.904,8187.5,-19.51018919521971,0.0
0.912,8197.0,-3.888491411646555,0.0
0.92,8216.0,11.762269591881932,0.0
0.928,8240.5,28.1218907988291,0.0
0.936,8268.5,44.25912650485043,0.0
0.944,8282.0,55.57093931650479,0.0
0.952,8276.0,55.36777261650491,0.0
0.96,8229.5,36.12741902869038,0.0
0.968,8185.0,0.679987471464301,1.0
0.976,8160.0,-34.5855665285801,0.0
0.984,8156.0,-56.122700814607015,0.0
0.992,8154.0,-61.57666758481673,0.0
1.0,8156.5,-55.3642345048313,0.0
1.008,8162.5,-41.55978337547663,0.0
1.016,8165.5,-25.25619260744088,0.0
1.024,8166.5,-10.967935698083693,0.0
1.032,8165.5,-0.85501560596731,0.0
1.04,8162.0,4.336025413011157,0.0
1.048,8165.0,6.646455468765225,0.0
1.056,8164.0,7.413760543046919,0.0
1.064,8170.0,7.7650340140585286,0.0
1.072,8173.5,8.736363585665458,0.0
1.08,8181.5,10.335729933423409,0.0
1.088,8196.0,14.311342446122353,0.0
1.096,8190.0,16.229301700127053,0.0
1.104,8169.5,9.489054097193502,0.0
1.112,8166.0,-0.8389896113301347,0.0
1.12,8170.0,-6.717626493514672,0.0
1.128,8164.0,-9.584372834982787,0.0
1.136,8476.0,52.6893943913326,0.0
1.144,8170.0,82.75546850269848,0.0
1.152,8136.0,18.52750907626705,0.0
1.16,8167.0,-22.87869178007236,0.0
1.168,8168.0,-37.35994460476354,0.0
1.176,8178.0,-38.0126160050429,0.0
1.184,8183.5,-29.468780751309396,0.0
1.192,8193.5,-16.781492895144083,0.0
1.2,8204.5,-2.443662060187762,0.0
1.208,8220.5,11.922317726377969,0.0
1.216,8241.0,26.067750483289274,0.0
1.224,8267.0,39.981145762293636,0.0
1.232,8290.0,52.15863156948399,0.0
1.24,8298.0,57.78583795447821,0.0
1.248,8263.5,46.93877158217697,0.0
1.256,8220.5,17.574048716476455,0.0
1.264,8180.5,-19.413601612731554,0.0
1.272,8163.0,-50.09200328443876,0.0
1.28,8162.5,-64.31803533658695,0.0
1.288,8164.5,-62.67346266958248,0.0
1.296,8163.0,-52.096677988243755,0.0
1.304,8168.0,-37.22806077484847,0.0
1.312,8167.5,-21.87121792406856,0.0
1.32,8168.0,-9.473271585821294,0.0
1.328,8167.0,-0.807037182887143,0.0
1.336,8166.0,4.031914270015477,0.0
1.344,8167.0,6.282376387842987,0.0
1.352,8162.0,5.843610262762013,0.0
1.36,8175.5,6.434721415567083,0.0
1.368,8178.5,9.179687459130491,0.0
1.376,8197.0,13.803774603409693,0.0
1.384,8184.0,15.56929148857239,0.0
1.392,8168.5,8.430353409905592,0.0
1.4,8164.5,-1.053609958797324,0.0
1.408,8164.5,-7.319873850973181,0.0
1.416,8166.5,-9.50735106190632,0.0
1.424,8517.0,62.65644572840324,0.0
1.432,8147.5,91.9528237831903,0.0
1.44,8135.0,17.294605135960865,0.0
1.448,8155.0,-27.947952383177835,1.0
1.456,8163.0,-44.74666376852383,0.0
1.464,8170.0,-44.83275922965163,0.0
1.472,8177.0,-35.226288921792275,0.0
1.48,8180.0,-22.161308782897777,0.0
1.488,8194.5,-7.499520650560953,0.0
1.496,8214.0,9.254680556686708,0.0
1.504,8231.0,25.21694880687187,0.0
1.512,8263.5,40.946711650821726,0.0
1.52,8277.5,53.54125099497492,0.0
1.528,8287.0,57.67322454730811,0.0
1.536,8254.5,46.67400634961996,0.0
1.544,8203.0,15.931487321676286,0.0
1.552,8170.5,-21.826258515367954,0.0
1.56,8160.0,-49.63194418430817,0.0
1.568,8152.5,-62.22880711825542,0.0
1.576,8159.0,-60.448250239392564,0.0
1.584,8161.0,-48.49400659459161,0.0
1.592,8164.0,-33.050518691942216,0.0
1.6,8167.5,-17.57846130393841,0.0
1.608,8166.5,-5.252457790612652,0.0
1.616,8165.0,2.3227029040567686,0.0
1.624,8168.5,6.859092922857371,0.0
1.632,8169.5,9.421340762416321,0.0
1.64,8167.0,9.201812210044636,0.0
1.648,8178.0,9.41343704826454,0.0
1.656,8183.0,11.38021664975031,0.0
1.664,8184.5,12.145947051416897,0.0
1.672,8197.5,13.719691763592891,0.0
1.68,8182.0,12.059582519789728,0.0
1.688,8173.5,4.346201811711353,0.0
1.696,8172.0,-2.9174225606918753,0.0
1.704,8173.0,-6.872952755950337,0.0
1.712,8239.0,5.517929198287675,0.0
1.72,8435.0,65.536109127896,0.0
1.728,8127.0,68.21302177322104,0.0
1.736,8150.5,1.330659733774155,0.0
1.744,8159.0,-31.887576258493937,0.0
1.752,8165.5,-43.63374095131712,0.0
1.76,8170.0,-41.71770416076083,0.0
1.768,8178.5,-31.603756081181018,0.0
1.776,8189.5,-16.847015330968134,0.0
1.784,8202.5,-0.6624770186092519,0.0
1.792,8218.5,14.934195497738983,0.0
1.8,8246.0,30.780927455471783,0.0
1.808,8271.5,46.313850374196136,1.0
1.816,8287.0,56.85460279609538,0.0
1.824,8276.5,55.49006165682226,0.0
1.832,8235.0,35.646483090466745,0.0
1.84,8189.5,0.732424137558155,0.0
1.848,8168.5,-33.612741728225046,0.0
1.856,8158.5,-55.161653360046785,0.0
1.864,8156.0,-62.096246728903,0.0
1.872,8163.5,-55.76132573796258,0.0
1.88,8164.5,-41.82423174200471,0.0
1.888,8166.5,-26.627907653362172,0.0
1.896,8169.0,-12.68436782864569,0.0
1.904,8162.5,-3.332284778434314,0.0
1.912,8164.0,1.6822313030506848,0.0
1.92,8160.5,3.9841600763938914,0.0
1.928,8164.5,4.843621675635404,0.0
1.936,8166.5,5.843360576740906,0.0
1.944,8172.5,7.183088673710245,0.0
1.952,8177.0,9.031519288414302,0.0
1.96,8200.0,14.373665847475877,0.0
1.968,8181.5,16.273138823152067,0.0
1.976,8163.0,7.370153585258095,0.0
1.984,8165.5,-2.281272672696332,0.0
1.992,8167.0,-6.8260390889843165,0.0
2.0,8166.0,-8.3767479460721,0.0
2.008,8526.5,65.42232559162449,0.0
2.016,8152.0,96.28796770614986,0.0
2.024,8147.0,22.411302309040593,0.0
2.032,8154.0,-24.268452126327702,0.0
2.04,8166.0,-44.313682487087135,0.0
2.048,8168.0,-46.589709815310016,0.0
2.056,8176.0,-38.82919045362587,0.0
2.064,8189.0,-24.062351194787652,0.0
2.072,8196.0,-7.595113855308,0.0
2.08,8213.0,8.198311851748258,0.0
2.088,8233.5,23.95683784384255,0.0
2.096,8263.0,39.85930596007688,0.0
2.104,8283.5,53.435899340467586,0.0
2.112,8283.0,57.44957770010478,1.0
2.12,8250.0,44.26914876717001,0.0
2.128,8200.0,12.805570925815346,0.0
2.136,8170.5,-23.985328373111997,0.0
2.144,8155.5,-51.198333354849865,0.0
2.152,8157.0,-62.28784911104367,0.0
2.16,8157.0,-59.09614607251274,0.0
2.168,8160.5,-47.53385198802425,0.0
2.176,8163.0,-32.26343235638865,0.0
2.184,8163.0,-17.83026213456401,0.0
2.192,8164.0,-6.386930037010643,0.0
2.2,8164.0,1.5532725058592405,0.0
2.208,8160.0,5.196397456392788,0.0
2.216,8162.5,6.256649119709664,0.0
2.224,8165.0,6.956602470234884,0.0
2.232,8168.0,7.43950521489387,0.0
2.24,8179.5,9.559538251756521,0.0
2.248,8192.5,14.369353655318491,0.0
2.256,8174.5,14.01380281161073,0.0
2.264,8165.0,6.060600042777878,0.0
2.272,8163.5,-1.8090785329659411,0.0
2.28,8169.0,-5.371712512498107,0.0
2.288,8192.0,-0.8416598603232615,0.0
2.296,8490.0,67.54557597964413,0.0
2.304,8133.0,85.69521928762856,0.0
2.312,8148.5,13.667750174799721,0.0
2.32,8156.5,-26.200299196352262,0.0
2.328,8166.5,-42.12850841789668,0.0
2.336,8171.0,-42.198884001090846,0.0
2.344,8178.5,-33.39104520545993,0.0
2.352,8188.0,-19.646513265814974,0.0
2.36,8199.0,-4.351209529630978,0.0
2.368,8212.5,10.35947280353048,0.0
2.376,8241.0,26.069362349172934,0.0
2.384,8268.5,42.848588246827376,0.0
2.392,8287.0,55.6732809579446,0.0
2.4,8282.5,57.67726809347505,0.0
2.408,8240.5,40.61787981670591,0.0
2.416,8197.0,6.903115224052044,1.0
2.424,8167.0,-29.098445308627106,0.0
2.432,8160.0,-53.53717158310155,0.0
2.44,8161.5,-60.99698140928058,0.0
2.448,8161.5,-55.85438704798207,0.0
2.456,8167.0,-43.22122633497929,0.0
2.464,8165.0,-28.482094958379776,0.0
2.472,8163.5,-16.162228062951044,0.0
2.48,8164.5,-6.528044958935197,0.0
2.488,8166.5,0.7722261881310715,0.0
2.496,8165.5,5.176816728504946,0.0
2.504,8166.5,6.996817792219645,0.0
2.512,8166.5,7.21666408110309,0.0
2.52,8174.5,7.886955951925302,0.0
2.528,8178.0,9.437069322964135,0.0
2.536,8189.0,11.885394667888704,0.0
2.544,8172.5,10.40770958634107,0.0
2.552,8164.0,2.8483568373221715,0.0
2.56,8162.0,-4.199235088285377,0.0
2.568,8162.0,-8.139117378088713,0.0
2.576,8205.5,-0.34808514756309705,0.0
2.584,8461.5,65.50038916418293,0.0
2.592,8112.5,75.51245952510112,0.0
2.6,8139.5,4.200135832757496,0.0
2.608,8156.0,-29.72355914472996,0.0
2.616,8162.0,-40.68276547350183,0.0
2.624,8169.0,-38.340123869417994,0.0
2.632,8175.0,-28.48596344576049,0.0
2.64,8179.0,-16.296412682134132,0.0
2.648,8193.0,-2.9393891019594776,0.0
2.656,8210.5,11.841054671271877,0.0
2.664,8238.0,27.98047819150429,0.0
2.672,8265.0,44.41753081765137,0.0
2.68,8276.0,55.16758601299762,0.0
2.688,8274.5,55.10195155520864,0.0
2.696,8228.0,36.90258962855705,0.0
2.704,8183.5,1.9532738109191996,0.0
2.712,8159.5,-33.0064397758872,0.0
2.72,8150.0,-55.521468509971555,0.0
2.728,8152.0,-61.95136559506682,0.0
2.736,8153.0,-55.748535392543545,0.0
2.744,8161.0,-41.78934842627655,0.0
2.752,8163.5,-25.05299113157207,0.0
2.76,8164.0,-10.743905378326872,0.0
2.768,8166.0,-0.1418807223337808,0.0
2.776,8160.0,5.332446675706933,0.0
2.784,8163.0,7.148590543606588,0.0
2.792,8168.0,8.773250922790112,0.0
2.8,8165.5,8.914696058658137,0.0
2.808,8189.0,11.937090642272551,0.0
2.816,8180.0,14.877087928171932,0.0
2.824,8160.0,8.435531440263503,0.0
2.832,8162.0,-0.3303354194390522,0.0
2.84,8161.0,-5.260071055862454,0.0
2.848,8152.0,-9.421027967911414,0.0
2.856,8445.5,47.67011252825819,0.0
2.864,8183.5,80.6418431305483,0.0
2.872,8125.0,22.43660079097367,0.0
2.88,8149.0,-22.435915519515447,1.0
2.888,8156.5,-39.136422108768784,0.0
2.896,8165.0,-39.810717447036495,0.0
2.904,8171.5,-31.10920756428436,0.0
2.912,8182.0,-17.773511888430676,0.0
2.92,8189.5,-3.514714422126417,0.0
2.928,8198.5,8.821750685566485,0.0
2.936,8223.0,21.62411189519389,0.0
2.944,8254.5,37.35778276649398,0.0
2.952,8278.0,52.235314298817,0.0
2.96,8281.0,58.528343558117285,0.0
2.968,8257.0,49.08612565600038,0.0
2.976,8203.0,20.12451322355787,0.0
2.984,8171.5,-17.52217084434983,0.0
2.992,8156.5,-46.629778145274486,0.0
3.0,8153.0,-60.55390960567888,0.0
3.008,8154.5,-60.0165322020398,0.0
3.016,8164.5,-48.25005392671346,0.0
3.024,8163.0,-32.23954337290934,0.0
3.032,8171.0,-16.55510315449601,0.0
3.04,8166.0,-4.1564995478852325,0.0
3.048,8164.5,2.4782332193531147,0.0
3.056,8165.0,5.821973007763518,0.0
3.064,8167.0,7.42752743941719,0.0
3.072,8171.0,8.476753798753862,0.0
3.08,8174.0,9.242194376995712,0.0
3.088,8178.0,9.723754685629729,0.0
3.096,8195.0,12.824629984153944,0.0
3.104,8189.5,15.0635767222916,0.0
3.112,8171.5,9.302800727436988,0.0
3.12,8170.0,0.5016068318166162,0.0
3.128,8171.0,-4.881604656955915,0.0
3.136,8160.0,-9.368126413775144,0.0
3.144,8475.5,51.60847155589977,0.0
3.152,8187.0,85.36159987820179,0.0
3.16,8141.5,24.144842901515403,0.0
3.168,8161.0,-21.031110861170873,0.0
3.176,8164.5,-39.86061183373636,0.0
3.184,8173.5,-42.3992481152261,0.0
3.192,8177.5,-34.81645623839563,0.0
3.2,8189.5,-21.78460671382436,0.0
3.208,8195.0,-7.19952445224294,0.0
3.216,8211.0,6.910069761082468,0.0
3.224,8231.5,21.663792466123823,0.0
3.232,8259.0,36.91107267147231,0.0
3.24,8282.5,50.75147679174984,0.0
3.248,8286.0,56.75826830203118,1.0
3.256,8262.0,47.51728458104253,0.0
3.264,8212.0,19.729739833500844,0.0
3.272,8178.0,-16.856298999045293,0.0
3.28,8159.0,-46.765551845657,0.0
3.288,8160.5,-60.93888944030846,0.0
3.296,8154.5,-61.00127670734355,0.0
3.304,8165.0,-50.87030514917524,0.0
3.312,8163.0,-35.42976955821405,0.0
3.32,8166.0,-20.722390181379296,0.0
3.328,8166.0,-8.269808843964256,0.0
3.336,8169.0,0.9613303357532459,0.0
3.344,8168.0,6.683463450841828,0.0
3.352,8165.0,8.237028297171719,0.0
3.36,8164.5,7.191920385649155,0.0
3.368,8172.5,7.015721451897434,0.0
3.376,8181.0,9.218815111933964,0.0
3.384,8198.0,14.333710905120597,0.0
3.392,8188.0,16.615597854122825,0.0
3.4,8167.0,9.112655724106617,0.0
3.408,8167.5,-0.8943249491367169,0.0
3.416,8171.5,-5.757492893999597,0.0
3.424,8161.5,-8.986463463835662,0.0
3.432,8481.5,53.79963813011477,0.0
3.44,8194.0,89.41435173029208,0.0
3.448,8139.5,27.04968160620865,0.0
3.456,8158.5,-21.186411765064122,0.0
3.464,8160.5,-42.21073045568028,0.0
3.472,8173.0,-45.28247094600124,0.0
3.48,8172.5,-37.78212623051263,0.0
3.488,8180.0,-26.188112663931406,0.0
3.496,8190.0,-11.785740738793265,0.0
3.504,8208.0,4.239078763043608,0.0
3.512,8231.5,21.551920430040354,0.0
3.52,8253.0,37.71671801877255,0.0
3.528,8282.5,51.97759506290072,0.0
3.536,8287.0,59.47726533489845,0.0
3.544,8256.5,49.58328107498892,0.0
3.552,8209.0,20.27912013365153,1.0
3.56,8172.0,-17.389285965859017,0.0
3.568,8152.0,-48.67504521169781,0.0
3.576,8151.5,-63.98584716150049,0.0
3.584,8156.0,-62.52241721118298,0.0
3.592,8154.5,-51.5649082474647,0.0
3.6,8158.5,-36.75605471486415,0.0
3.608,8161.0,-21.0975160477833,0.0
3.616,8162.5,-7.821246340763537,0.0
3.624,8163.5,1.7268630005746672,0.0
3.632,8164.0,7.418237546608225,0.0
3.64,8162.0,9.352963460854653,0.0
3.648,8161.0,8.466235045942085,0.0
3.656,8170.5,8.394801165843319,0.0
3.664,8173.0,9.531414233980286,0.0
3.672,8185.5,11.823042791507987,0.0
3.68,8189.0,14.654608491108092,0.0
3.688,8166.0,10.123514081363737,0.0
3.696,8162.5,0.49501624609956707,0.0
3.704,8160.0,-6.5001167517496015,0.0
3.712,8152.0,-11.796691106139633,0.0
3.72,8367.0,29.149711796367228,0.0
3.728,8267.0,72.44050138704483,0.0
3.736,8122.5,37.108216380638396,0.0
3.744,8153.5,-12.60142589050156,0.0
3.752,8158.0,-32.83642221007517,0.0
3.76,8165.0,-37.47551700375743,0.0
3.768,8173.5,-31.3706765210909,0.0
3.776,8182.0,-19.531005067483875,0.0
3.784,8190.0,-6.196948385854512,0.0
3.792,8203.0,6.918638584235623,0.0
3.8,8223.0,20.368155024565567,0.0
3.808,8253.0,35.44916537284007,0.0
3.816,8279.5,50.53653470946256,0.0
3.824,8288.0,58.9477737440825,0.0
3.832,8270.0,53.04413052353607,0.0
3.84,8218.0,27.209551662362628,0.0
3.848,8174.5,-11.704993605103255,0.0
3.856,8159.0,-44.99812496536151,0.0
3.864,8156.0,-61.644946335445866,0.0
3.872,8154.0,-63.16525168240992,0.0
3.88,8156.5,-54.38560962175006,0.0
3.888,8161.5,-39.41558724127299,0.0
3.896,8160.5,-23.769269121290563,0.0
3.904,8157.5,-11.729563918174108,0.0
3.912,8164.0,-2.115908885090903,0.0
3.92,8159.5,4.2989892630491795,0.0
3.928,8160.0,6.623768639776699,0.0
3.936,8161.5,7.402999469884207,0.0
3.944,8165.5,7.865107731089893,0.0
3.952,8173.0,9.295414106776434,0.0
3.96,8188.5,13.430919401512938,0.0
3.968,8170.5,13.329612441523977,0.0
3.976,8156.0,4.6089963008014365,0.0
3.984,8159.5,-3.4944490166724336,0.0
3.992,8165.5,-5.816155669671389,0.0
4.0,8186.0,-0.8934394623790922,0.0
4.008,8502.0,70.90053013224428,0.0
4.016,8116.5,88.41110086159529,0.0
4.024,8148.5,13.142315684289542,0.0
4.032,8163.0,-23.86406163414017,1.0
4.04,8165.0,-38.76053514805494,0.0
4.048,8171.5,-39.957173381964594,0.0
4.056,8178.0,-31.950973426736937,0.0
4.064,8187.5,-19.103162079525646,0.0
4.072,8198.0,-4.522706288795007,0.0
4.08,8213.5,10.097668317320768,0.0
4.088,8238.0,25.385241023780736,0.0
4.096,8267.0,41.50767824616014,0.0
4.104,8282.5,53.840793764546106,0.0
4.112,8279.5,55.52543841048964,0.0
4.12,8237.0,38.8077351151494,0.0
4.128,8193.0,5.365180935658145,0.0
4.136,8162.5,-30.446526640658476,0.0
4.144,8152.0,-55.385792444956905,0.0
4.152,8149.5,-64.3936039633345,0.0
4.16,8155.5,-59.24292553103169,0.0
4.168,8158.5,-45.37618859616441,0.0
4.176,8158.0,-29.785105385096585,0.0
4.184,8161.5,-15.435888460602655,0.0
4.192,8157.0,-4.813823164180803,0.0
4.2,8156.5,1.1763770305956314,0.0
4.208,8160.5,5.255671792218436,0.0
4.216,8160.0,7.5863909952909125,0.0
4.224,8161.5,8.018888893224357,0.0
4.232,8170.5,9.204067885256109,0.0
4.24,8179.5,12.186950293300015,0.0
4.248,8186.0,15.26999929569979,0.0
4.256,8171.5,13.143790666364794,0.0
4.264,8163.5,5.296832034104,0.0
4.272,8163.0,-1.8834656284452649,0.0
4.28,8165.5,-5.435724559328037,0.0
4.288,8244.5,9.938112549291873,0.0
4.296,8414.5,68.39434455407422,0.0
4.304,8117.5,66.64966917947095,0.0
4.312,8154.5,2.394780176028462,0.0
4.32,8158.5,-27.592198395059313,0.0
4.328,8165.0,-38.99798646986915,0.0
4.336,8172.5,-36.970584133049215,0.0
4.344,8182.0,-26.693290784503915,0.0
4.352,8187.5,-13.503786120382756,0.0
4.36,8200.5,0.12336381071918368,0.0
4.368,8218.0,14.39490954557823,0.0
4.376,8245.0,29.7440266494375,0.0
4.384,8270.5,45.037716953023164,1.0
4.392,8283.0,55.017562017282216,0.0
4.4,8277.0,53.90626949339048,0.0
4.408,8232.0,34.65688415118848,0.0
4.416,8188.0,-0.16433667724550105,0.0
4.424,8163.5,-34.727240353452544,0.0
4.432,8155.0,-56.644552269459155,0.0
4.44,8157.5,-62.24423662306299,0.0
4.448,8158.5,-55.4038668629355,0.0
4.456,8164.0,-41.63064793147396,0.0
4.464,8166.0,-25.641235167096283,0.0
4.472,8158.0,-13.523413857267997,0.0
4.48,8161.0,-5.328149269585765,0.0
4.488,8156.0,-0.0822746318190184,0.0
4.496,8162.0,3.236901610215,0.0
4.504,8163.0,6.139210247074061,0.0
4.512,8161.5,6.822703640562395,0.0
4.52,8168.5,7.316172636815054,0.0
4.528,8172.5,8.746100326989108,0.0
4.536,8193.0,13.271115357013741,0.0
4.544,8177.5,14.956648173968688,0.0
4.552,8160.5,7.0460883098364775,0.0
4.56,8167.0,-0.845632563687559,0.0
4.568,8169.5,-3.5458679812368246,0.0
4.576,8170.5,-3.890134431006345,0.0
4.584,8521.0,68.30779699653408,0.0
4.592,8141.5,94.72454241868763,0.0
4.6,8145.0,19.16889346463995,0.0
4.608,8154.0,-25.86706297068281,0.0
4.616,8158.5,-45.821440164670776,0.0
4.624,8167.0,-48.01944404344886,0.0
4.632,8175.5,-38.565911387476945,0.0
4.64,8181.5,-24.16569842948661,0.0
4.648,8194.5,-8.10391544357185,0.0
4.656,8214.5,9.365572972326845,0.0
4.664,8234.0,26.34695077225956,0.0
4.672,8260.0,41.69088839072515,0.0
4.68,8276.0,53.025071645608705,0.0
4.688,8282.0,56.18348033019356,1.0
4.696,8250.0,44.221457809306,0.0
4.704,8200.5,13.792125259952172,0.0
4.712,8165.5,-23.55820048166629,0.0
4.72,8157.0,-50.962506144975805,0.0
4.728,8151.5,-62.30306140961943,0.0
4.736,8150.5,-60.89192295290172,0.0
4.744,8154.0,-50.314691679489215,0.0
4.752,8161.0,-34.285874740208556,0.0
4.76,8157.0,-18.99541305155799,0.0
4.768,8160.0,-7.277031210612904,0.0
4.776,8158.5,1.0629355534042588,0.0
4.784,8159.0,5.629723747843855,0.0
4.792,8158.0,7.374831774616723,0.0
4.8,8162.0,7.9016767119132965,0.0
4.808,8161.0,7.628166955429151,0.0
4.816,8169.0,7.739999357157103,0.0
4.824,8178.0,10.105775606866473,0.0
4.832,8184.5,13.13939969213925,0.0
4.84,8170.0,11.306985296669609,0.0
4.848,8162.5,4.014407876843734,0.0
4.856,8160.0,-2.9500502477769714,0.0
4.864,8163.5,-6.417256038369715,0.0
4.872,8226.0,5.989030338246494,0.0
4.88,8443.0,69.52016034966141,0.0
4.888,8122.5,75.4071536976112,0.0
4.896,8146.5,6.880902886480953,0.0
4.904,8153.5,-28.355309413634586,0.0
4.912,8161.0,-41.93258572692548,0.0
4.92,8167.5,-40.744478068597346,0.0
4.928,8172.0,-31.617180289372072,0.0
4.936,8184.5,-17.95265969253319,0.0
4.944,8196.5,-2.144279430439383,0.0
4.952,8210.0,12.739539686112266,0.0
4.96,8236.0,27.680223746815727,0.0
4.968,8263.5,43.249565126399375,0.0
4.976,8279.5,54.78718923953261,0.0
4.984,8275.0,55.65359603079651,0.0
4.992,8235.0,38.63685883350263,0.0
5.0,8189.0,5.145513770765092,1.0
5.008,8156.5,-31.478947815634456,0.0
5.016,8153.0,-55.72084364380726,0.0
5.024,8155.0,-61.91597451202256,0.0
5.032,8153.5,-56.09042172254976,0.0
5.04,8158.5,-43.42617652695776,0.0
5.048,8160.5,-27.922536085322236,0.0
5.056,8162.5,-13.703119336842292,0.0
5.064,8163.5,-2.6033226051786187,0.0
5.072,8164.5,4.764374966587411,0.0
5.08,8162.0,8.092832446588545,0.0
5.088,8161.0,8.119254905490152,0.0
5.096,8161.5,6.80175581290473,0.0
5.104,8168.5,6.523618738261348,0.0
5.112,8171.0,7.310929159635862,0.0
5.12,8190.0,11.060587812384256,0.0
5.128,8182.5,13.950673571688185,0.0
5.136,8172.0,9.867363907887238,0.0
5.144,8166.0,2.585528865918832,0.0
5.152,8165.5,-3.4408884253064116,0.0
5.16,8156.0,-8.526230619478383,0.0
5.168,8349.0,27.248184850721373,0.0
5.176,8267.5,67.05351064500246,0.0
5.184,8112.0,32.008915659484046,0.0
5.192,8152.5,-17.063924265258947,0.0
5.2,8153.5,-35.01994435461688,0.0
5.208,8160.0,-38.797411929817144,0.0
5.216,8170.5,-31.676140420428283,0.0
5.224,8177.0,-19.189041400632505,0.0
5.232,8186.0,-5.728243676262309,0.0
5.24,8198.0,7.391236571242416,0.0
5.248,8220.0,20.97570488059023,0.0
5.256,8247.5,35.942263400198726,0.0
5.264,8271.5,49.865682511315526,0.0
5.272,8281.0,57.38382117663423,0.0
5.28,8269.0,52.61921930944641,0.0
5.288,8219.0,29.15709577671055,0.0
5.296,8183.0,-6.70879616541356,0.0
5.304,8158.0,-39.365043128009575,0.0
5.312,8150.5,-59.349465351953995,0.0
5.32,8157.5,-62.2722906439119,0.0
5.328,8157.0,-53.231675054202015,0.0
5.336,8159.5,-39.405917993412004,0.0
5.344,8163.0,-24.029180820561805,0.0
5.352,8165.0,-10.168641832825415,0.0
5.36,8164.5,-0.12340456238507613,0.0
5.368,8160.0,4.814537665528633,0.0
5.376,8159.5,5.983383698567195,0.0
5.384,8162.5,6.278237782892347,0.0
5.392,8162.5,6.113661522276516,0.0
5.4,8169.5,6.519533913961368,0.0
5.408,8185.5,10.470046841696558,0.0
5.416,8181.0,13.568450469689651,0.0
5.424,8166.0,9.359837947370579,0.0
5.432,8161.5,1.4679434547310848,0.0
5.44,8163.0,-4.034769965101759,0.0
5.448,8152.0,-8.618204689663798,0.0
5.456,8387.5,35.84331618158262,0.0
5.464,8216.0,69.77876927206421,0.0
5.472,8113.5,23.290429372108065,0.0
5.48,8153.5,-20.502603723531593,0.0
5.488,8156.0,-34.61050953991935,0.0
5.496,8160.0,-36.37858465304885,0.0
5.504,8167.5,-29.55933905364668,0.0
5.512,8176.5,-17.673940144056587,0.0
5.52,8190.0,-3.368588336748644,0.0
5.528,8198.5,10.09690902577745,0.0
5.536,8218.0,22.249994460266635,0.0
5.544,8245.0,35.563935693241774,0.0
5.552,8272.0,49.07811067225521,0.0
5.56,8279.0,56.57577863156166,1.0
5.568,8265.0,51.00222550077524,0.0
5.576,8217.5,27.408995284070443,0.0
5.584,8174.0,-9.290904387972205,0.0
5.592,8155.5,-42.25320488701482,0.0
5.6,8146.0,-61.06139354550123,0.0
5.608,8145.5,-64.96990555600087,0.0
5.616,8155.5,-55.490330731837275,0.0
5.624,8159.0,-38.71307556329839,0.0
5.632,8161.0,-21.798020777868487,0.0
5.64,8163.5,-7.570294312331271,0.0
5.648,8162.0,2.1960064613560917,0.0
5.656,8159.0,6.719486428792607,0.0
5.664,8155.5,7.0479562102968885,0.0
5.672,8163.0,6.990862642930097,0.0
5.68,8167.0,8.246659787648014,0.0
5.688,8176.0,10.394955901605044,0.0
5.696,8174.5,11.621712852715746,0.0
5.704,8189.5,13.343287174190891,0.0
5.712,8175.0,12.440573969150137,0.0
5.72,8163.0,4.60660116825693,0.0
5.728,8164.5,-2.8699711972474233,0.0
5.736,8164.5,-6.550031022748044,0.0
5.744,8189.0,-2.727980125088152,0.0
5.752,8509.5,70.42975284494423,0.0
5.76,8127.5,90.45263297417455,0.0
5.768,8145.5,14.214944413576404,0.0
5.776,8155.5,-27.30662919405563,0.0
5.784,8161.5,-44.45359888546727,0.0
5.792,8167.5,-45.402988303018674,0.0
5.8,8174.5,-36.42491598385618,0.0
5.808,8180.0,-23.039091308179195,0.0
5.816,8189.5,-8.565226114770212,0.0
5.824,8205.0,6.400703884901759,0.0
5.832,8230.5,22.65744175069881,0.0
5.84,8260.5,40.17520986644581,0.0
5.848,8277.0,53.94414135754437,0.0
5.856,8281.0,58.09666308210626,0.0
5.864,8245.5,45.30884175312599,0.0
5.872,8196.0,13.511220024238355,1.0
5.88,8163.5,-24.094969072252297,0.0
5.888,8157.0,-50.64985773839999,0.0
5.896,8153.5,-60.71826708284402,0.0
5.904,8155.0,-57.87570344284404,0.0
5.912,8154.0,-47.317825804074346,0.0
5.92,8164.5,-31.959115636850356,0.0
5.928,8161.0,-16.6005148351594,0.0
5.936,8163.0,-5.3070808849663536,0.0
5.944,8163.0,2.5850550875584304,0.0
5.952,8161.0,6.451924778230477,0.0
5.96,8162.0,7.556296362577541,0.0
5.968,8162.0,7.268097002094464,0.0
5.976,8167.5,7.119381614785198,0.0
5.984,8172.5,8.097207948833102,0.0
5.992,8183.5,10.716673719338587,0.0
6.0,8188.5,13.909860416558104,0.0
6.008,8171.5,11.237796849604138,0.0
6.016,8164.5,3.050540430647061,0.0
6.024,8164.0,-3.7861436365153622,0.0
6.032,8166.5,-6.846721609337919,0.0
6.04,8230.5,5.967306250234969,0.0
6.048,8441.0,68.72136340912857,0.0
6.056,8123.0,73.45270090074087,0.0
6.064,8151.0,5.867270592673549,0.0
6.072,8157.5,-27.943810507795206,0.0
6.08,8168.5,-40.1277521974273,0.0
6.088,8174.0,-37.87851074534228,0.0
6.096,8181.5,-28.149573015844453,0.0
6.104,8193.0,-14.246372088149883,0.0
6.112,8202.0,0.32404308303580365,0.0
6.12,8219.5,14.305805682216487,0.0
6.128,8244.5,29.088453066192415,0.0
6.136,8272.0,44.14652680458562,0.0
6.144,8288.5,55.34794851207016,0.0
6.152,8285.0,56.2369592667244,0.0
6.16,8240.5,38.4300923787855,0.0
6.168,8195.0,3.685610857504571,0.0
6.176,8166.5,-32.5392613416318,0.0
6.184,8163.0,-55.56688132181716,0.0
6.192,8160.0,-62.08873808219323,0.0
6.2,8164.0,-56.32806703810593,0.0
6.208,8165.0,-43.359711728442335,0.0
6.216,8167.0,-28.503501211872162,0.0
6.224,8164.5,-15.498245992483362,0.0
6.232,8166.5,-5.5593928827859145,0.0
6.24,8166.0,1.4677492787091069,0.0
6.248,8166.5,5.401061452877229,0.0
6.256,8166.0,6.908351120686348,0.0
6.264,8166.5,6.7523721728855435,0.0
6.272,8170.5,6.555740866809629,0.0
6.28,8177.0,7.590684395803919,0.0
6.288,8179.0,8.788467948360903,0.0
6.296,8201.0,13.067619474476714,0.0
6.304,8179.0,13.617097276799768,0.0
6.312,8169.5,5.442068901577841,0.0
6.32,8172.0,-1.6478170530608622,0.0
6.328,8170.5,-5.386634578737812,0.0
6.336,8198.5,-1.3671158725230725,0.0
6.344,8510.0,70.57742161667989,0.0
6.352,8135.0,89.4518299612223,0.0
6.36,8149.0,13.299573103145349,0.0
6.368,8161.5,-28.33914647768779,0.0
6.376,8169.5,-44.47950058768515,0.0
6.384,8176.0,-44.318900145358384,0.0
6.392,8177.0,-35.97239674735056,0.0
6.4,8183.5,-24.050192269493436,0.0
6.408,8197.0,-9.267110686411797,0.0
6.416,8212.5,6.805306659274947,0.0
6.424,8235.5,23.144324700286234,0.0
6.432,8264.0,39.81973267673993,1.0
6.44,8278.5,52.42933542294941,0.0
6.448,8278.5,54.90008955290614,0.0
6.456,8246.5,41.50016150658166,0.0
6.464,8197.0,10.633034640253527,0.0
6.472,8168.0,-25.271441566690328,0.0
6.48,8156.5,-50.94802415523782,0.0
6.488,8150.5,-61.9840553674253,0.0
6.496,8159.5,-58.50032913864675,0.0
6.504,8160.5,-45.52771054280652,0.0
6.512,8161.5,-30.544585339949663,0.0
6.52,8164.5,-16.23546682927531,0.0
6.528,8163.0,-5.005138089437423,0.0
6.536,8165.0,2.497448237492563,0.0
6.544,8163.5,6.65797320325737,0.0
6.552,8162.5,7.598321423402922,0.0
6.56,8167.5,7.8196498933778,0.0
6.568,8174.0,9.11445144223785,0.0
6.576,8178.0,10.643495177961313,0.0
6.584,8197.0,14.633008582216462,0.0
6.592,8176.5,14.46741217455883,0.0
6.6,8168.0,6.25132437600837,0.0
6.608,8169.0,-1.0876871479940746,0.0
6.616,8173.5,-4.139405720418836,0.0
6.624,8182.0,-2.660693570607691,0.0
6.632,8527.5,70.93969871000468,0.0
6.64,8128.0,92.6793091957204,0.0
6.648,8149.5,14.25909019984465,0.0
6.656,8164.0,-26.925514736959485,0.0
6.664,8169.0,-43.215930277088546,0.0
6.672,8173.0,-44.4593026244047,0.0
6.68,8187.0,-34.77666109138863,0.0
6.688,8188.0,-20.713298180269703,0.0
6.696,8200.0,-6.5999573306355614,0.0
6.704,8217.0,8.672004519019993,0.0
6.712,8236.5,23.846019421656138,0.0
6.72,8269.0,39.82821167265638,0.0
6.728,8287.5,53.66096886020796,0.0
6.736,8288.0,57.58771805299352,1.0
6.744,8256.0,44.74353729466134,0.0
6.752,8198.5,12.078937811276546,0.0
6.76,8169.5,-26.74218331988709,0.0
6.768,8159.0,-53.71638227429207,0.0
6.776,8151.0,-65.30440672321083,0.0
6.784,8155.0,-63.07382969750961,0.0
6.792,8161.5,-50.0467743943675,0.0
6.8,8161.0,-33.529108694815704,0.0
6.808,8159.5,-19.085781441706786,0.0
6.816,8163.0,-7.241790121846634,0.0
6.824,8161.5,1.2692693280471303,0.0
6.832,8163.0,6.110259643460495,0.0
6.84,8159.5,7.638224202309402,0.0
6.848,8167.5,8.303168686125446,0.0
6.856,8174.5,10.50206974309549,0.0
6.864,8185.5,13.887673306544457,0.0
6.872,8188.5,16.644590016629763,0.0
6.88,8172.0,12.993448575394268,0.0
6.888,8162.0,3.4502375305291935,0.0
6.896,8164.0,-4.35110507727336,0.0
6.904,8158.5,-9.020180231420227,0.0
6.912,8309.0,19.20972173592304,0.0
6.92,8329.0,67.82570920619673,0.0
6.928,8117.5,47.170338099759874,0.0
6.936,8151.0,-8.56234107526302,0.0
6.944,8153.5,-32.86957401127552,0.0
6.952,8159.0,-40.62700950711087,0.0
6.96,8167.5,-36.194998349188154,0.0
6.968,8169.0,-26.043317037622273,0.0
6.976,8176.0,-14.354598175012143,0.0
6.984,8189.0,-1.179566106259017,0.0
6.992,8204.0,12.511385363928184,0.0
7.0,8230.0,27.08765158984056,0.0
7.008,8255.5,42.122716147513984,0.0
7.016,8267.5,52.289408489106336,0.0
7.024,8257.0,50.68073329204685,0.0
7.032,8211.0,30.502571483917336,0.0
7.04,8165.5,-4.748835440364019,0.0
7.048,8147.0,-37.95173262960793,0.0
7.056,8137.5,-57.554363740561485,0.0
7.064,8138.0,-62.260113996988366,0.0
7.072,8142.0,-54.68436506393482,0.0
7.08,8142.0,-41.09608112804949,0.0
7.088,8143.0,-26.62504061026698,0.0
7.096,8145.0,-13.417318207679045,0.0
7.104,8149.5,-2.244113783872308,0.0
7.112,8147.5,5.214687090936195,0.0
7.12,8147.0,8.324449456565844,0.0
7.128,8151.5,9.718676295023442,0.0
7.136,8148.0,9.274054532615992,0.0
7.144,8155.0,8.320102707195929,0.0
7.152,8163.0,9.559023758322382,0.0
7.16,8176.0,13.132776104348068,0.0
7.168,8160.0,12.642301007423839,0.0
7.176,8149.0,4.919390531822955,0.0
7.184,8145.0,-3.458276026469548,0.0
7.192,8148.5,-7.990649164491742,0.0
7.2,8153.5,-7.723053428953108,0.0
7.208,8511.0,67.66515711540524,0.0
7.216,8130.0,97.18971467276151,0.0
7.224,8124.5,20.953112825470043,0.0
7.232,8140.0,-25.266818804133436,0.0
7.24,8144.5,-44.684445718779216,0.0
7.248,8148.0,-47.7589022672214,0.0
7.256,8157.0,-39.78255719309368,0.0
7.264,8164.5,-25.662891022337135,0.0
7.272,8173.0,-10.152933347636917,0.0
7.28,8189.0,5.564304782178397,0.0
7.288,8207.5,21.064217655969742,0.0
7.296,8233.0,36.02649281803019,0.0
7.304,8259.0,49.93460858461185,0.0
7.312,8259.0,55.900990688670845,1.0
7.32,8230.5,45.13167572209704,0.0
7.328,8182.0,16.189062384106364,0.0
7.336,8155.0,-18.806716608417446,0.0
7.344,8141.5,-44.926025772309686,0.0
7.352,8137.5,-57.136890786617414,0.0
7.36,8138.0,-56.410802053354246,0.0
7.368,8141.0,-46.71379805387528,0.0
7.376,8146.0,-32.26223611069645,0.0
7.384,8145.5,-17.904916692222287,0.0
7.392,8148.0,-6.2908232982981644,0.0
7.4,8149.0,2.2465483384971776,0.0
7.408,8149.0,7.159233428896641,0.0
7.416,8145.0,8.161959703470984,0.0
7.424,8153.5,8.436874648002004,0.0
7.432,8158.5,10.078390239975988,0.0
7.44,8163.5,11.564185177492163,0.0
7.448,8183.5,15.797135491121026,0.0
7.456,8178.0,18.86782507901171,0.0
7.464,8156.0,12.204968182870743,0.0
7.472,8155.5,1.8173798146040099,0.0
7.48,8157.5,-4.2949078162405385,0.0
7.488,8151.0,-8.177899633986726,0.0
7.496,8351.5,30.39993143287279,0.0
7.504,8273.5,73.63265967320262,0.0
7.512,8123.0,41.354105200936374,0.0
7.52,8148.0,-9.644902619684672,0.0
7.528,8150.0,-32.82722843122019,0.0
7.536,8157.0,-39.72151497362324,0.0
7.544,8163.5,-35.018473019034445,0.0
7.552,8167.0,-24.88487966827688,0.0
7.56,8180.5,-11.645933768092618,0.0
7.568,8192.5,3.1588890528951197,0.0
7.576,8209.0,17.258085488269217,0.0
7.584,8229.5,30.538928049967353,0.0
7.592,8261.0,44.38677735201054,0.0
7.6,8266.5,53.40594373413205,0.0
7.608,8258.0,50.02998994496397,0.0
7.616,8214.5,29.82467657279767,0.0
7.624,8170.0,-4.624957986603022,0.0
7.632,8157.5,-35.942363835131346,0.0
7.64,8148.0,-53.50875755657694,0.0
7.648,8148.5,-57.62364202748199,0.0
7.656,8151.0,-50.70785115646663,0.0
7.664,8153.5,-37.90845095120585,0.0
7.672,8158.0,-23.161432385271837,0.0
7.68,8156.0,-10.417771321646342,0.0
7.688,8157.0,-1.5060349038919867,0.0
7.696,8157.5,4.299135225995769,0.0
7.704,8163.0,8.306308571223553,0.0
7.712,8157.5,9.41680985868561,0.0
7.72,8164.5,8.952310200140573,0.0
7.728,8167.5,9.363338216170632,0.0
7.736,8178.5,11.047038453962386,0.0
7.744,8185.5,14.045329413219406,0.0
7.752,8169.0,11.74821818999203,0.0
7.76,8160.0,3.3988708325712196,0.0
7.768,8163.0,-3.2800333123648215,0.0
7.776,8165.5,-5.608979913248049,0.0
7.784,8216.5,4.794166566841795,0.0
7.792,8453.5,69.05835540366638,0.0
7.8,8129.0,78.71770680196096,0.0
7.808,8148.0,10.081795977350566,0.0
7.816,8151.5,-27.441119254731348,1.0
7.824,8164.0,-42.202898694384885,0.0
7.832,8166.5,-41.4700207714161,0.0
7.84,8176.0,-32.29764344521982,0.0
7.848,8183.0,-18.605447044516268,0.0
7.856,8194.5,-3.9075340357269397,0.0
7.864,8210.5,10.995488437225731,0.0
7.872,8234.5,26.314098498587327,0.0
7.88,8255.0,40.47535798586114,0.0
7.888,8276.0,51.192245688427874,0.0
7.896,8272.0,53.24196072836344,0.0
7.904,8234.5,37.9035649289508,0.0
7.912,8190.5,6.435317922700733,0.0
7.92,8165.0,-27.34952892327101,0.0
7.928,8156.0,-50.23169868445689,0.0
7.936,8153.5,-58.497917208109584,0.0
7.944,8157.0,-54.31326966373308,0.0
7.952,8160.0,-42.27598788067394,0.0
7.96,8160.0,-28.13471803979519,0.0
7.968,8162.5,-14.995286966266804,0.0
7.976,8161.5,-4.644735354070008,0.0
7.984,8164.5,2.5893621577390604,0.0
7.992,8164.5,7.087920106409911,0.0
8.0,8162.0,8.162995449980599,0.0
8.008,8171.5,8.991292543995769,0.0
8.016,8174.5,10.671720305479766,0.0
8.024,8198.5,15.563686007712704,0.0
8.032,8188.5,18.957359495019546,0.0
8.04,8169.0,12.063338621637968,0.0
8.048,8176.5,3.705671626684534,0.0
8.056,8171.5,-1.2881103533225087,0.0
8.064,8170.5,-5.271936995610531,0.0
8.072,8515.0,63.34865551871462,0.0
8.08,8153.0,90.7510924677731,0.0
8.088,8144.0,17.402305892290315,0.0
8.096,8163.5,-26.469281891349056,0.0
8.104,8169.0,-43.29429040820992,0.0
8.112,8175.0,-44.33118777908476,0.0
8.12,8184.5,-35.05661306889715,0.0
8.128,8188.0,-21.600737828464844,0.0
8.136,8201.5,-6.894914563034035,0.0
8.144,8213.5,8.057106523456923,0.0
8.152,8233.5,22.215781070919547,0.0
8.16,8262.5,37.23176361330411,0.0
8.168,8286.5,51.295359793574335,0.0
8.176,8290.5,57.55598846169664,1.0
8.184,8262.0,47.526976528105024,0.0
8.192,8216.0,19.169773369050063,0.0
8.2,8181.0,-17.05536051046579,0.0
8.208,8168.5,-45.5973401544436,0.0
8.216,8159.0,-60.058543021837295,0.0
8.224,8169.0,-59.40314012328054,0.0
8.232,8172.0,-47.35340800768245,0.0
8.24,8172.0,-32.43497823822554,0.0
8.248,8182.0,-16.651709677827284,0.0
8.256,8180.0,-3.158508341964307,0.0
8.264,8180.5,4.9937645927218455,0.0
8.272,8186.5,10.385847068388557,0.0
8.28,8189.5,13.838806169188274,0.0
8.288,8190.0,14.497807012693102,0.0
8.296,8208.0,16.46906560708544,0.0
8.304,8190.0,15.137959951803396,0.0
8.312,8178.5,6.028778535694755,0.0
8.32,8177.0,-2.9283210388234693,0.0
8.328,8183.5,-6.760062805172083,0.0
8.336,8216.5,0.06863930455710943,0.0
8.344,8494.0,67.53212189092824,0.0
8.352,8127.0,78.90632370513231,0.0
8.36,8156.5,4.7183496629240835,0.0
8.368,8169.5,-31.188868348350525,0.0
8.376,8172.0,-44.52907452836416,0.0
8.384,8181.5,-43.215707282769245,0.0
8.392,8184.0,-33.43536284788411,0.0
8.4,8196.5,-19.51757524736422,0.0
8.408,8207.0,-3.6286048637309705,0.0
8.416,8223.0,11.732217198018816,0.0
8.424,8243.0,26.39266910817173,0.0
8.432,8276.0,41.88933972459381,0.0
8.44,8293.0,54.918168052445935,0.0
8.448,8290.0,57.157364684602726,0.0
8.456,8243.0,39.600849524771775,0.0
8.464,8200.0,4.826925000433448,0.0
8.472,8173.0,-30.771193140507876,0.0
8.48,8164.5,-54.41126469762867,0.0
8.488,8160.5,-62.69633437723337,0.0
8.496,8167.0,-57.579854540219685,0.0
8.504,8173.0,-43.270430905394505,0.0
8.512,8171.0,-27.430349994507424,0.0
8.52,8175.0,-13.495185776640938,0.0
8.528,8174.5,-2.4928702928775692,0.0
8.536,8175.0,4.391829506721706,0.0
8.544,8172.5,7.388974777429212,0.0
8.552,8174.0,7.836924933315686,0.0
8.56,8173.5,7.117972418502177,0.0
8.568,8179.5,6.73727098472591,0.0
8.576,8200.0,10.904646823899157,0.0
8.584,8186.0,13.043908211604048,0.0
8.592,8171.0,6.406729516514133,0.0
8.6,8169.5,-1.8607864390155555,0.0
8.608,8173.5,-5.957312496638906,0.0
8.616,8174.5,-6.4552882406194385,0.0
8.624,8536.0,68.28795642629075,0.0
8.632,8147.5,96.62160561524001,0.0
8.64,8150.5,19.971135385284697,0.0
8.648,8162.5,-25.32317383134614,1.0
8.656,8172.0,-43.87839385318057,0.0
8.664,8177.0,-45.23707600606235,0.0
8.672,8178.0,-37.95631876847551,0.0
8.68,8191.0,-25.035653459379546,0.0
8.688,8199.0,-9.308375414215789,0.0
8.696,8212.5,5.796438200093689,0.0
8.704,8230.0,20.183917173871123,0.0
8.712,8258.0,34.92821594156135,0.0
8.72,8278.0,48.158879680770724,0.0
8.728,8279.5,53.074485524926786,0.0
8.736,8256.0,43.440230113905955,0.0
8.744,8203.5,15.629633069242345,0.0
8.752,8168.5,-21.0634671579121,0.0
8.76,8152.0,-50.09172834826791,0.0
8.768,8154.0,-62.626858838685166,0.0
8.776,8157.0,-59.5236392094796,0.0
8.784,8157.5,-47.94886106192507,0.0
8.792,8167.0,-31.790934804620974,0.0
8.8,8165.0,-15.883026711978346,0.0
8.808,8163.5,-4.782114652430437,0.0
8.816,8162.0,1.8950689925804909,0.0
8.824,8159.0,4.637275855211328,0.0
8.832,8163.0,5.760247541662238,0.0
8.84,8162.0,6.163952100362394,0.0
8.848,8180.0,8.941288429484075,0.0
8.856,8186.0,14.131415474858159,0.0
8.864,8177.0,14.445456194391,0.0
8.872,8166.0,8.355061206583514,0.0
8.88,8164.5,0.9327254500208255,0.0
8.888,8167.5,-3.291792631115186,0.0
8.896,8196.5,1.2465353353111368,0.0
8.904,8501.0,71.8758304466262,0.0
8.912,8135.5,90.2863045735935,0.0
8.92,8150.0,15.776169826154273,0.0
8.928,8158.0,-26.084086038500118,0.0
8.936,8166.0,-43.61670383099886,0.0
8.944,8170.0,-44.921048068278424,0.0
8.952,8177.5,-36.53241450892938,0.0
8.96,8185.5,-22.865982425899347,0.0
8.968,8199.5,-6.822306054129058,0.0
8.976,8214.5,9.62496373193403,0.0
8.984,8236.5,25.45172435779341,0.0
8.992,8269.5,42.18940800507994,1.0
9.0,8284.0,55.39592343953086,0.0
9.008,8284.5,57.87207140204123,0.0
9.016,8248.5,43.3096928463126,0.0
9.024,8197.0,10.254943409482166,0.0
9.032,8171.5,-26.57951484931641,0.0
9.04,8160.0,-51.892715055658755,0.0
9.048,8156.0,-62.16201458634555,0.0
9.056,8158.0,-59.21936790853806,0.0
9.064,8162.0,-47.274931399649404,0.0
9.072,8167.0,-31.204866312682725,0.0
9.08,8169.5,-15.437774072350749,0.0
9.088,8168.0,-3.56829212205389,0.0
9.096,8168.5,3.7879943149564497,0.0
9.104,8169.5,7.8706365730452035,0.0
9.112,8174.5,10.317628014322963,0.0
9.12,8175.5,11.426305473581124,0.0
9.128,8189.0,13.311974667703225,0.0
9.136,8195.5,16.494920319254106,0.0
9.144,8178.0,13.62917544514471,0.0
9.152,8173.5,5.373416647385511,0.0
9.16,8173.5,-1.2430525932284127,0.0
9.168,8179.5,-3.741755202941249,0.0
9.176,8267.0,14.44993751958009,0.0
9.184,8426.5,73.47999711961029,0.0
9.192,8144.5,72.2229911908828,0.0
9.2,8167.0,7.513678104429118,0.0
9.208,8170.0,-26.68479424355496,0.0
9.216,8175.5,-41.12742762343851,0.0
9.224,8180.0,-41.39036547701562,0.0
9.232,8190.0,-32.3082365814555,0.0
9.24,8195.0,-18.974258145808108,0.0
9.248,8207.0,-4.738729771237786,0.0
9.256,8219.5,9.40395580292352,0.0
9.264,8245.0,24.105597360202182,0.0
9.272,8270.5,39.564772889807955,0.0
9.28,8284.0,50.67654938794158,0.0
9.288,8279.0,51.301429650169666,0.0
9.296,8234.5,33.7801897342606,0.0
9.304,8191.5,0.4203597200094009,0.0
9.312,8167.5,-33.060475476760985,0.0
9.32,8162.0,-53.87550222179516,0.0
9.328,8155.5,-60.46892255994567,0.0
9.336,8162.0,-55.20045807469455,0.0
9.344,8163.5,-42.08124926812775,0.0
9.352,8169.0,-26.51245094426463,0.0
9.36,8163.5,-13.28548878014044,0.0
9.368,8169.5,-3.3466978361411748,0.0
9.376,8168.0,3.9578393470080755,0.0
9.384,8166.5,7.064772960706023,0.0
9.392,8172.5,8.750459117413584,0.0
9.4,8177.5,10.668007310771827,0.0
9.408,8184.0,12.534105802668137,0.0
9.416,8195.5,15.414809826079136,0.0
9.424,8180.0,13.964183021284725,0.0
9.432,8172.0,6.188080377508186,0.0
9.44,8166.5,-2.106941060451163,0.0
9.448,8170.5,-6.9996171661498465,0.0
9.456,8201.5,-1.6813843163095044,0.0
9.464,8490.5,67.0949913080542,0.0
9.472,8142.5,85.54308519767119,0.0
9.48,8150.5,14.021635826992451,0.0
9.488,8155.5,-27.745966199981012,1.0
9.496,8162.0,-45.891181726539116,0.0
9.504,8167.0,-47.31512797026244,0.0
9.512,8178.5,-37.61275194725158,0.0
9.52,8182.0,-23.107733241816504,0.0
9.528,8192.5,-8.165872441260035,0.0
9.536,8208.0,7.22058348257724,0.0
9.544,8229.0,22.682362552861832,0.0
9.552,8257.5,38.50041011395069,0.0
9.56,8276.0,51.62019949426508,0.0
9.568,8278.0,55.741156661741115,0.0
9.576,8240.0,42.37243697286749,0.0
9.584,8193.5,10.77861694821695,0.0
9.592,8163.0,-25.271245154345706,0.0
9.6,8155.0,-50.62523685170845,0.0
9.608,8154.5,-59.680719289196304,0.0
9.616,8155.5,-55.88566477776703,0.0
9.624,8159.0,-44.24899566170143,0.0
9.632,8161.5,-29.432613750785777,0.0
9.64,8162.5,-15.492845378265429,0.0
9.648,8164.5,-4.287088642255185,0.0
9.656,8160.0,2.4791985975507487,0.0
9.664,8161.0,5.389841060676645,0.0
9.672,8168.0,7.9284332856484525,0.0
9.68,8165.5,9.147062182579702,0.0
9.688,8175.5,10.013210891473818,0.0
9.696,8191.5,14.319150279986388,0.0
9.704,8173.0,14.183971476693841,0.0
9.712,8162.0,5.926695142449034,0.0
9.72,8164.0,-1.6939088265505688,0.0
9.728,8169.5,-4.411648696123166,0.0
9.736,8203.5,2.7198250004432794,0.0
9.744,8492.5,72.51417546318157,0.0
9.752,8130.5,87.88247417067055,0.0
9.76,8149.5,13.572057552514025,0.0
9.768,8158.0,-26.81441178137561,0.0
9.776,8160.5,-44.38621276776735,0.0
9.784,8165.0,-46.618567365127774,0.0
9.792,8176.0,-37.70419034358724,0.0
9.8,8183.5,-22.936276923300056,0.0
9.808,8193.0,-7.252032950554849,0.0
9.816,8205.0,7.515564594800708,0.0
9.824,8231.0,22.873080458337654,0.0
9.832,8257.5,39.21345431814166,0.0
9.84,8276.0,52.12543904405561,0.0
9.848,8279.0,56.25120142647711,1.0
9.856,8233.0,41.377888957065124,0.0
9.864,8188.5,7.819235514990169,0.0
9.872,8160.0,-28.126745377957604,0.0
9.88,8156.0,-51.76056941469483,0.0
9.888,8146.0,-60.75027224979499,0.0
9.896,8156.5,-56.75415893669265,0.0
9.904,8158.0,-43.33465382879126,0.0
9.912,8159.0,-28.317583550816835,0.0
9.92,8163.0,-14.12172891196542,0.0
9.928,8163.5,-2.6659493840063533,0.0
9.936,8167.0,5.330372434099672,0.0
9.944,8171.0,10.783492778928576,0.0
9.952,8173.0,13.599359318704956,0.0
9.96,8191.5,17.391001653873445,0.0
9.968,8187.5,19.959053507415547,0.0
9.976,8170.0,14.059299319601223,0.0
9.984,8165.0,3.8418701471136956,0.0
9.992,8166.0,-3.6003767799461457,0.0
10.0,8161.5,-8.170902611581823,0.0
10.008,8293.5,16.41325632577923,0.0
10.016,8349.0,66.77024855577861,0.0
10.024,8117.5,50.47118786337978,0.0
10.032,8158.0,-5.841535016152193,0.0
10.04,8165.0,-28.554851676816952,0.0
10.048,8171.5,-34.90015601609957,0.0
10.056,8179.5,-30.3991209940732,0.0
10.064,8189.0,-19.55308631932826,0.0
10.072,8199.0,-6.190414539292078,0.0
10.08,8205.0,5.919600623058614,0.0
10.088,8222.5,16.98503167025615,0.0
10.096,8246.5,29.432462273999136,0.0
10.104,8274.5,42.95518638984572,0.0
10.112,8285.5,52.40772200906076,0.0
10.12,8276.5,50.460908389761016,0.0
10.128,8227.5,29.809648889606706,0.0
10.136,8185.0,-5.616491985599168,0.0
10.144,8164.0,-38.68902915958597,0.0
10.152,8156.0,-58.30708354012472,0.0
10.16,8156.0,-62.70353306213633,0.0
10.168,8161.0,-54.77548620835205,0.0
10.176,8167.0,-39.53493305180382,0.0
10.184,8166.5,-23.404078006828286,0.0
10.192,8167.0,-10.315982451353193,0.0
10.2,8167.0,-0.9095292007020817,0.0
10.208,8172.0,5.812831228179448,0.0
10.216,8177.0,10.95013852055331,0.0
10.224,8179.5,13.860419516779302,0.0
10.232,8189.0,15.931761591843497,0.0
10.24,8194.0,17.703668725150692,0.0
10.248,8176.5,13.513726235378726,0.0
10.256,8172.5,4.594493025841757,0.0
10.264,8172.5,-2.194109460913978,0.0
10.272,8171.0,-6.182676123954025,0.0
10.28,8295.5,17.524860193445193,0.0
10.288,8365.5,68.62499275417781,0.0
10.296,8125.0,53.6078774489863,0.0
10.304,8158.5,-5.6910773957768015,0.0
10.312,8165.0,-31.725514050998754,0.0
10.32,8168.0,-40.37141673631277,0.0
10.328,8176.5,-37.01434655120579,0.0
10.336,8180.0,-26.965559051634955,0.0
10.344,8189.0,-14.380665347624927,0.0
10.352,8197.5,-1.1824369248017774,0.0
10.36,8216.5,12.420517668767616,0.0
10.368,8241.5,27.571421774961436,0.0
10.376,8266.5,42.5665297210021,1.0
10.384,8279.0,52.642304412065414,0.0
10.392,8272.5,51.84571118840336,0.0
10.4,8229.0,33.29914427862241,0.0
10.408,8185.5,-0.49197984821853424,0.0
10.416,8166.0,-33.27235692762383,0.0
10.424,8155.5,-53.74316058008685,0.0
10.432,8154.5,-60.050922091600796,0.0
10.44,8157.0,-54.37044201562162,0.0
10.448,8165.5,-40.52050562667341,0.0
10.456,8169.0,-23.734679252004526,0.0
10.464,8168.0,-9.69835962017305,0.0
10.472,8163.5,-1.0505720711096274,0.0
10.48,8162.5,3.0993398213861383,0.0
10.488,8160.5,4.4707919002676135,0.0
10.496,8174.5,7.055651467397411,0.0
10.504,8170.5,9.5576213533584,0.0
10.512,8185.5,11.835543076185331,0.0
10.52,8183.5,14.044204912735495,0.0
10.528,8166.5,9.339420984816115,0.0
10.536,8162.0,0.7485853448067701,0.0
10.544,8157.5,-6.28422248271977,0.0
10.552,8154.5,-11.0229073158564,0.0
10.56,8322.5,21.555481153229493,0.0
10.568,8311.0,69.52730001574355,0.0
10.576,8115.0,44.96417421644355,0.0
10.584,8147.5,-9.78270220415402,0.0
10.592,8152.5,-33.01546062830539,0.0
10.6,8162.5,-38.68522976599343,0.0
10.608,8163.5,-33.92587536698693,0.0
10.616,8177.0,-23.005275920582335,0.0
10.624,8184.5,-8.768662729690732,0.0
10.632,8195.5,4.7598448609549,0.0
10.64,8213.5,17.963657188049638,0.0
10.648,8235.5,31.220900539260583,0.0
10.656,8260.5,43.92989410660607,1.0
10.664,8281.5,54.18351939625995,0.0
10.672,8270.0,53.973493225159245,0.0
10.68,8223.5,33.81681763685833,0.0
10.688,8187.0,-0.18780420228381445,0.0
10.696,8164.0,-32.42550720997315,0.0
10.704,8155.0,-53.11236837263914,0.0
10.712,8157.5,-58.622037362180436,0.0
10.72,8163.5,-51.25609670512108,0.0
10.728,8167.0,-37.188004452782934,0.0
10.736,8166.5,-22.61711499190551,0.0
10.744,8169.0,-10.162291744463573,0.0
10.752,8168.5,-0.8472047815680526,0.0
10.76,8170.5,5.096619772725035,0.0
10.768,8171.0,8.349832160538881,0.0
10.776,8174.0,9.72289637594804,0.0
10.784,8178.0,10.490924204880457,0.0
10.792,8187.5,12.112647786004345,0.0
10.8,8194.0,14.504125251454525,0.0
10.808,8179.0,11.982887488222786,0.0
10.816,8167.0,3.1589621925636493,0.0
10.824,8164.0,-5.602940999779321,0.0
10.832,8167.5,-9.833093700979589,0.0
10.84,8245.0,5.704380803397953,0.0
10.848,8429.5,67.55518211557364,0.0
10.856,8124.0,69.1710813095824,0.0
10.864,8150.5,2.639639063724644,0.0
10.872,8154.0,-30.97812190666309,0.0
10.88,8160.5,-44.11995314884712,0.0
10.888,8162.0,-43.56849821944934,0.0
10.896,8175.0,-33.67450814136487,0.0
10.904,8179.0,-19.24465179697654,0.0
10.912,8194.5,-3.809276103989987,0.0
10.92,8206.5,11.514983522379453,0.0
10.928,8230.5,26.18674765786386,0.0
10.936,8252.0,40.18907224590066,0.0
10.944,8269.5,50.34461834767194,0.0
10.952,8267.5,51.884415963678975,0.0
10.96,8228.0,36.45027565047303,0.0
10.968,8190.0,5.962944602287735,1.0
10.976,8163.5,-26.14866867070191,0.0
10.984,8156.0,-48.12120503177948,0.0
10.992,8155.5,-55.45439072607792,0.0
11.0,8157.0,-51.17938364347492,0.0
11.008,8160.0,-39.972399138482615,0.0
11.016,8161.0,-26.467116158384897,0.0
11.024,8164.0,-13.650183558097297,0.0
11.032,8163.0,-3.592140152722777,0.0
11.04,8165.5,3.207232218848958,0.0
11.048,8166.0,7.3550180419952085,0.0
11.056,8166.5,8.89720501414672,0.0
11.064,8173.5,9.99258673122472,0.0
11.072,8173.5,10.555505347289227,0.0
11.08,8192.5,13.169790948246828,0.0
11.088,8185.0,15.06863886518181,0.0
11.096,8169.0,9.105961507541906,0.0
11.104,8162.0,-0.49984625710362707,0.0
11.112,8166.0,-6.717825013377933,0.0
11.12,8151.5,-11.52178448834161,0.0
11.128,8402.5,35.701145270479856,0.0
11.136,8244.5,77.21596971755412,0.0
11.144,8127.5,33.87818934590814,0.0
11.152,8148.5,-16.500915037117238,0.0
11.16,8158.5,-37.4599752731981,0.0
11.168,8165.0,-40.80479093356121,0.0
11.176,8170.5,-34.14481156549982,0.0
11.184,8174.5,-23.08849645536702,0.0
11.192,8187.5,-9.5762073265239,0.0
11.2,8203.0,5.689377743659634,0.0
11.208,8217.5,19.9838674959733,0.0
11.216,8242.5,33.477697538040275,0.0
11.224,8265.0,46.08660143341626,0.0
11.232,8275.5,53.29814085279304,0.0
11.24,8265.5,49.58455653222268,0.0
11.248,8218.0,28.123447449783725,0.0
11.256,8184.5,-5.380830436806036,0.0
11.264,8161.5,-35.92240431002938,0.0
11.272,8154.0,-54.769555386465754,0.0
11.28,8158.0,-58.32707127920071,0.0
11.288,8162.0,-49.953501250964564,0.0
11.296,8162.5,-36.50849161719111,0.0
11.304,8166.0,-22.204813531904847,0.0
11.312,8163.5,-10.174829243687554,0.0
11.32,8165.5,-1.619842568770082,0.0
11.328,8163.5,3.685149700212378,0.0
11.336,8163.5,5.855199541561888,0.0
11.344,8163.5,6.2508460780063615,0.0
11.352,8167.5,6.354332037485392,0.0
11.36,8170.5,6.882247493353589,0.0
11.368,8188.5,10.441343179530577,0.0
11.376,8185.5,14.02766799519486,0.0
11.384,8163.5,8.914333927998314,0.0
11.392,8162.0,-0.26227102412735803,0.0
11.4,8165.0,-5.343085444842018,0.0
11.408,8151.5,-9.682954551775083,0.0
11.416,8432.0,43.76682430379719,0.0
11.424,8203.5,79.36501110032555,0.0
11.432,8117.0,24.030287964530316,0.0
11.44,8151.5,-22.961494232991072,1.0
11.448,8158.5,-38.792638994393656,0.0
11.456,8161.0,-40.33287211682591,0.0
11.464,8167.5,-33.290116546666695,0.0
11.472,8178.0,-20.604753892630015,0.0
11.48,8184.0,-6.607763833417266,0.0
11.488,8201.5,7.472917374913095,0.0
11.496,8216.5,21.30700333745267,0.0
11.504,8238.0,33.71504585320349,0.0
11.512,8265.0,45.850132813733126,0.0
11.52,8273.5,53.32806117362179,0.0
11.528,8262.0,49.05242967444883,0.0
11.536,8214.5,27.03315229330815,0.0
11.544,8170.0,-8.883232857249823,0.0
11.552,8159.0,-40.11601661803434,0.0
11.56,8147.5,-57.10174036296462,0.0
11.568,8150.5,-60.22632855178108,0.0
11.576,8154.5,-51.513076797119766,0.0
11.584,8159.5,-36.71137617978343,0.0
11.592,8156.0,-22.0853456497789,0.0
11.6,8158.0,-10.393587459002674,0.0
11.608,8157.0,-1.6990095765136175,0.0
11.616,8157.5,3.5983889431656735,0.0
11.624,8158.0,6.39000428144368,0.0
11.632,8164.0,8.400116274891388,0.0
11.64,8168.5,10.460495071287369,0.0
11.648,8179.0,13.15757753627122,0.0
11.656,8182.5,15.617995140258927,0.0
11.664,8167.0,12.2535997535781,0.0
11.672,8159.5,3.7071925518700937,0.0
11.68,8162.5,-2.82854643556675,0.0
11.688,8156.0,-6.9799835566645925,0.0
11.696,8314.0,22.574686150700018,0.0
11.704,8305.0,67.07150303241042,0.0
11.712,8109.5,41.43849707305799,0.0
11.72,8152.5,-11.159261372918309,0.0
11.728,8159.5,-30.35857204800027,0.0
11.736,8164.0,-34.760835390767625,0.0
11.744,8171.5,-29.642563838718615,0.0
11.752,8173.5,-20.18060608684982,0.0
11.76,8184.5,-8.869291071496036,0.0
11.768,8197.0,3.9659605666674906,0.0
11.776,8213.0,16.777994283821272,0.0
11.784,8239.0,30.391902550820078,0.0
11.792,8261.5,43.74396427791726,0.0
11.8,8274.0,52.15877910642962,0.0
11.808,8261.0,49.12524974397411,0.0
11.816,8212.5,27.318757075937356,0.0
11.824,8172.5,-7.8000357172115855,0.0
11.832,8156.0,-38.9296509689525,0.0
11.84,8144.5,-57.157882597004345,0.0
11.848,8144.0,-61.72382895919736,0.0
11.856,8148.0,-54.35100819962963,0.0
11.864,8153.0,-39.911772364892386,0.0
11.872,8155.0,-23.891230538656828,0.0
11.88,8159.0,-9.568711019164084,0.0
11.888,8159.0,1.1695362442687838,0.0
11.896,8157.5,7.036351237113195,0.0
11.904,8160.5,9.745633287376677,0.0
11.912,8166.5,11.709052605405986,0.0
11.92,8168.5,12.729391565143487,0.0
11.928,8187.0,15.59105922966478,0.0
11.936,8171.0,15.4304082216197,0.0
11.944,8159.0,7.275544381115878,0.0
11.952,8158.0,-1.3061977708096038,0.0
11.96,8165.0,-4.95758598606858,0.0
11.968,8183.5,-1.1557113850203677,0.0
11.976,8515.5,72.87536939088568,0.0
11.984,8120.0,92.63535998897623,0.0
11.992,8145.5,14.685466868059166,0.0
12.0,8158.0,-25.87703020869958,1.0
12.008,8164.0,-42.162795640547756,0.0
12.016,8172.5,-42.439431029386014,0.0
12.024,8176.0,-33.71710417399322,0.0
12.032,8188.5,-20.178010290872635,0.0
12.04,8197.0,-4.821470647972774,0.0
12.048,8212.0,9.792422811421147,0.0
12.056,8228.5,23.38588439349337,0.0
12.064,8260.0,37.68589862067256,0.0
12.072,8277.5,50.440016794988196,0.0
12.08,8275.0,53.39999170789429,0.0
12.088,8247.0,40.823271802193176,0.0
12.096,8197.5,11.362816639123366,0.0
12.104,8176.5,-22.18599321214083,0.0
12.112,8159.0,-46.52862734244468,0.0
12.12,8159.0,-57.445796356620804,0.0
12.128,8159.5,-55.09058091389602,0.0
12.136,8165.5,-44.017372699254565,0.0
12.144,8168.5,-28.956434938680786,0.0
12.152,8171.5,-14.433478907575363,0.0
12.16,8173.5,-2.634836764279953,0.0
12.168,8169.5,4.333731453103383,0.0
12.176,8170.0,7.082833482059641,0.0
12.184,8165.0,6.715453022555721,0.0
12.192,8179.0,7.318750299290514,0.0
12.2,8174.0,8.404637800821547,0.0
12.208,8199.0,11.85860407052678,0.0
12.216,8190.5,15.474333279382336,0.0
12.224,8173.5,10.056906976936943,0.0
12.232,8162.5,-0.3921188916876872,0.0
12.24,8172.0,-6.818656948228863,0.0
12.248,8157.0,-10.709166616547463,0.0
12.256,8455.0,46.430761720896044,0.0
12.264,8201.5,82.27515629902587,0.0
12.272,8139.5,26.542677265281327,0.0
12.28,8159.0,-19.12438715660437,0.0
12.288,8166.5,-37.71620868574587,0.0
12.296,8170.5,-40.64369938917093,0.0
12.304,8179.5,-33.55703728484764,0.0
12.312,8185.0,-21.31599210514196,0.0
12.32,8199.0,-6.861036086748754,0.0
12.328,8203.5,6.50738037643373,0.0
12.336,8225.5,18.840816002789552,0.0
12.344,8248.5,32.47183649975432,0.0
12.352,8275.0,45.722976658641755,0.0
12.36,8278.0,52.654410468308015,1.0
12.368,8267.5,47.238362682076286,0.0
12.376,8221.0,25.228280605792634,0.0
12.384,8185.0,-8.468168774199967,0.0
12.392,8166.0,-38.34886438209696,0.0
12.4,8161.5,-55.007187384263034,0.0
12.408,8163.0,-57.132055734478854,0.0
12.416,8165.5,-48.90960207057378,0.0
12.424,8164.5,-36.32513231581788,0.0
12.432,8168.0,-22.86462676711085,0.0
12.44,8168.5,-10.620355379526927,0.0
12.448,8169.5,-1.4624909977690095,0.0
12.456,8164.5,3.3579825004744634,0.0
12.464,8167.0,5.188940736625909,0.0
12.472,8171.5,6.915167525880179,0.0
12.48,8172.0,7.909138304778935,0.0
12.488,8183.0,9.6473117419157,0.0
12.496,8198.0,14.52443974704397,0.0
12.504,8181.0,14.79808705577193,0.0
12.512,8168.0,6.587332227550405,0.0
12.52,8171.5,-1.208069791545313,0.0
12.528,8167.0,-5.83940087861879,0.0
12.536,8238.5,5.9951148782213295,0.0
12.544,8456.5,71.23018644264562,0.0
12.552,8133.5,77.55917663953437,0.0
12.56,8156.0,8.150846659651506,0.0
12.568,8161.0,-28.514617157477232,0.0
12.576,8168.0,-43.42374958806454,0.0
12.584,8176.0,-42.59292057524681,0.0
12.592,8173.5,-34.520325629570834,0.0
12.6,8189.0,-21.85660674614178,0.0
12.608,8198.0,-6.048214513979929,0.0
12.616,8213.5,9.22319349600275,0.0
12.624,8233.0,24.00686286746486,0.0
12.632,8259.5,38.50801470415536,0.0
12.64,8269.0,48.60053211115701,0.0
12.648,8273.0,49.95887707211432,0.0
12.656,8239.5,37.160970273463136,0.0
12.664,8195.5,8.124953686180334,0.0
12.672,8173.5,-23.762591940051607,0.0
12.68,8160.0,-46.27082369704135,0.0
12.688,8163.5,-54.609960065205314,0.0
12.696,8164.0,-50.44499373521671,0.0
12.704,8165.5,-39.92518138910077,0.0
12.712,8163.0,-27.854953780531105,0.0
12.72,8171.5,-15.26769634771199,0.0
12.728,8165.5,-4.998098014413017,0.0
12.736,8170.0,1.5266449268790439,0.0
12.744,8166.0,5.256060167188934,0.0
12.752,8167.0,6.051846957986982,0.0
12.76,8174.5,7.341499529046359,0.0
12.768,8178.5,9.340599429114945,0.0
12.776,8199.5,14.214239296848064,0.0
12.784,8191.0,17.495215728917174,0.0
12.792,8173.0,11.369126729074878,0.0
12.8,8168.5,1.4257054399897697,0.0
12.808,8171.0,-5.079572939222544,0.0
12.816,8155.5,-10.812571349804102,0.0
12.824,8461.0,46.68349533119135,0.0
12.832,8209.5,84.6410499709657,0.0
12.84,8146.5,30.003893731795415,0.0
12.848,8163.5,-16.255212750874534,0.0
12.856,8162.5,-37.879476752154005,0.0
12.864,8171.0,-43.3927988655189,0.0
12.872,8177.5,-37.00999561589765,0.0
12.88,8184.0,-24.968153399047196,0.0
12.888,8195.0,-10.485896572741694,0.0
12.896,8204.0,3.754688415297778,0.0
12.904,8221.5,17.021263662026968,0.0
12.912,8244.0,30.45850288249926,1.0
12.92,8265.0,42.67448130883804,0.0
12.928,8271.5,49.0473084057021,0.0
12.936,8260.0,44.35853284020823,0.0
12.944,8211.0,22.500121667254916,0.0
12.952,8181.5,-9.875805396522537,0.0
12.96,8160.0,-37.94492865947905,0.0
12.968,8156.0,-54.00173383539982,0.0
12.976,8155.5,-56.22975539713775,0.0
12.984,8158.0,-48.613707402486625,0.0
12.992,8159.0,-36.02412443647245,0.0
13.0,8159.5,-22.81053211480389,0.0
13.008,8160.0,-11.333388663324513,0.0
13.016,8158.5,-3.0318502769498537,0.0
13.024,8157.0,1.7244276542758143,0.0
13.032,8151.5,2.8457332248769944,0.0
13.04,8161.0,3.8946280415232195,0.0
13.048,8168.0,7.295434726606118,0.0
13.056,8168.5,9.732848359831905,0.0
13.064,8184.5,13.069679672401662,0.0
13.072,8167.0,12.755107267169933,0.0
13.08,8155.0,4.608370532208937,0.0
13.088,8154.0,-3.5641902254908473,0.0
13.096,8154.5,-7.959206288452833,0.0
13.104,8190.0,-1.9968722480557517,0.0
13.112,8462.0,64.65449514909005,0.0
13.12,8112.0,78.33415503874198,0.0
13.128,8129.5,6.617876746477123,0.0
13.136,8137.0,-31.69083962525565,0.0
13.144,8144.5,-46.47733361809992,0.0
13.152,8150.5,-45.417468289986346,0.0
13.16,8157.0,-35.351081101907766,0.0
13.168,8167.0,-20.667231552832618,0.0
13.176,8176.0,-4.96811522710982,0.0
13.184,8188.5,9.462008918245374,0.0
13.192,8208.5,23.201185101494275,0.0
13.2,8228.0,35.87882028979175,0.0
13.208,8246.5,45.700131512624694,0.0
13.216,8247.0,48.46147508256149,1.0
13.224,8219.5,37.23107522518603,0.0
13.232,8176.0,10.439406278569322,0.0
13.24,8144.0,-22.412592015440396,0.0
13.248,8133.5,-47.12598118351616,0.0
13.256,8130.0,-57.45679533759676,0.0
13.264,8134.5,-54.650992609784,0.0
13.272,8140.5,-42.56075129595092,0.0
13.28,8143.0,-27.221333247277244,0.0
13.288,8137.5,-14.63545374823525,0.0
13.296,8136.0,-6.403383594291427,0.0
13.304,8143.0,0.5595321920602601,0.0
13.312,8145.0,6.431264843005465,0.0
13.32,8151.5,10.665299197731429,0.0
13.328,8153.0,13.18672148335122,0.0
13.336,8170.5,16.56033950198116,0.0
13.344,8159.0,17.270553644249503,0.0
13.352,8136.0,8.02377489380524,0.0
13.36,8134.0,-3.7687744047721026,0.0
13.368,8139.5,-9.45642504931061,0.0
13.376,8149.0,-8.321874243199773,0.0
13.384,8498.0,66.85263710703589,0.0
13.392,8095.5,90.24497620811053,0.0
13.4,8117.5,12.660499744420804,0.0
13.408,8134.5,-27.17458078179334,0.0
13.416,8143.0,-41.403323512283805,0.0
13.424,8147.5,-40.88503524225098,0.0
13.432,8161.0,-30.702451648308397,0.0
13.44,8164.0,-16.65467083149997,0.0
13.448,8178.0,-2.348677721518925,0.0
13.456,8196.5,13.10772707374872,0.0
13.464,8220.0,28.841967867775338,0.0
13.472,8244.0,43.47867832403472,0.0
13.48,8263.5,54.430009781557146,0.0
13.488,8264.0,56.740393691194186,0.0
13.496,8238.0,44.29456648956807,0.0
13.504,8187.0,14.487382220113204,0.0
13.512,8159.0,-21.476760682402073,0.0
13.52,8150.0,-47.04889558376067,0.0
13.528,8141.0,-58.71646093277786,0.0
13.536,8150.0,-56.714531309525455,0.0
13.544,8153.5,-44.378240752061174,0.0
13.552,8158.5,-28.617756732108774,0.0
13.56,8158.0,-14.038889046624263,0.0
13.568,8161.5,-2.6756069721557196,0.0
13.576,8155.0,3.8373704387017824,0.0
13.584,8159.5,6.698742240783076,0.0
13.592,8168.5,10.133405543209847,0.0
13.6,8170.0,12.773474523311506,0.0
13.608,8179.0,14.543356111795447,0.0
13.616,8165.0,12.363612595252334,0.0
13.624,8154.0,4.092525662594198,0.0
13.632,8156.5,-3.1560137166748063,0.0
13.64,8162.0,-5.329892429859228,0.0
13.648,8206.0,4.305444689486421,0.0
13.656,8455.0,69.21115246290128,0.0
13.664,8108.0,77.08157260981852,0.0
13.672,8142.0,6.103491865717615,0.0
13.68,8154.0,-27.400351563267577,1.0
13.688,8155.0,-40.40434190054043,0.0
13.696,8164.5,-39.823946548828644,0.0
13.704,8168.0,-30.787010621125773,0.0
13.712,8180.0,-17.60824463134759,0.0
13.72,8193.0,-2.0372058194734564,0.0
13.728,8203.0,12.179264270685962,0.0
13.736,8226.0,25.482268225595135,0.0
13.744,8250.0,39.088368933063975,0.0
13.752,8261.0,48.359265202228016,0.0
13.76,8259.5,48.451080390773086,0.0
13.768,8222.5,33.29404232814363,0.0
13.776,8182.0,3.4491113202948327,0.0
13.784,8159.5,-27.59500959393995,0.0
13.792,8148.0,-48.71695037811128,0.0
13.8,8148.5,-56.06967569705307,0.0
13.808,8152.5,-50.997886967101294,0.0
13.816,8159.0,-38.12139920206937,0.0
13.824,8156.5,-23.909408184914355,0.0
13.832,8163.0,-11.062308335202715,0.0
13.84,8163.5,-0.35727237645460264,0.0
13.848,8162.5,5.925684538395899,0.0
13.856,8166.5,9.355913652981371,0.0
13.864,8169.5,11.3961843243153,0.0
13.872,8171.5,11.896505099144406,0.0
13.88,8185.5,13.657556576259594,0.0
13.888,8194.5,17.32731169191493,0.0
13.896,8175.5,14.827565599419358,0.0
13.904,8167.0,5.48291325151672,0.0
13.912,8165.5,-2.9177813507792507,0.0
13.92,8167.0,-7.443568196459182,0.0
13.928,8284.0,15.218069402332958,0.0
13.936,8379.5,69.72681073462877,0.0
13.944,8127.0,59.316553554445136,0.0
13.952,8153.0,-2.107281743698195,0.0
13.96,8164.5,-30.45246697880748,0.0
13.968,8169.5,-39.22784575718333,0.0
13.976,8177.0,-35.91642555430258,0.0
13.984,8182.0,-25.958942749221933,0.0
13.992,8192.0,-13.069909343270865,0.0
14.0,8209.0,2.0503185469963228,0.0
14.008,8218.5,16.09551574543957,0.0
14.016,8235.5,27.375523887659483,0.0
14.024,8264.0,39.191737064806375,1.0
14.032,8280.0,49.329282801325235,0.0
14.04,8268.5,48.7650628170054,0.0
14.048,8235.5,31.94663824698273,0.0
14.056,8194.5,2.038501245425323,0.0
14.064,8175.0,-28.318382391089926,0.0
14.072,8164.0,-48.209167442788385,0.0
14.08,8164.0,-54.91077517782628,0.0
14.088,8171.0,-49.118867519200194,0.0
14.096,8170.5,-36.9185874313946,0.0
14.104,8177.0,-22.88026333294374,0.0
14.112,8179.0,-9.372546610336258,0.0
14.12,8174.5,-0.4738685754477956,0.0
14.128,8168.0,2.6133299460493618,0.0
14.136,8174.5,4.042882395917786,0.0
14.144,8176.5,6.011925673291444,0.0
14.152,8179.5,7.286439849198814,0.0
14.16,8184.0,8.46773132749081,0.0
14.168,8198.5,11.764252804103307,0.0
14.176,8177.5,10.602255228643571,0.0
14.184,8171.5,2.7915024859951245,0.0
14.192,8168.5,-4.089695954196486,0.0
14.2,8168.0,-8.254232073161802,0.0
14.208,8232.5,3.6095598978433827,0.0
14.216,8450.5,67.79351788981512,0.0
14.224,8133.5,75.24772571585322,0.0
14.232,8155.5,7.978945363642424,0.0
14.24,8162.5,-27.088678828986303,0.0
14.248,8168.0,-41.166890209315625,0.0
14.256,8178.5,-39.982521553526794,0.0
14.264,8183.0,-30.155753318455027,0.0
14.272,8189.5,-17.52494157168053,0.0
14.28,8206.0,-2.6991933714725747,0.0
14.288,8216.0,11.89193109131952,0.0
14.296,8238.0,25.255767301769083,0.0
14.304,8259.0,38.11498102122437,0.0
14.312,8275.0,47.50034830238769,0.0
14.32,8269.0,47.89223381107968,0.0
14.328,8243.0,34.325339936852515,0.0
14.336,8199.5,6.898867284541666,1.0
14.344,8175.0,-24.25950919007869,0.0
14.352,8164.5,-46.15902258031133,0.0
14.36,8164.5,-54.25726469099641,0.0
14.368,8164.5,-50.820509973234266,0.0
14.376,8171.5,-39.65292395847905,0.0
14.384,8172.0,-25.504324503709086,0.0
14.392,8172.5,-13.065808652905844,0.0
14.4,8172.0,-3.7287600711986215,0.0
14.408,8172.0,2.2563286939180216,0.0
14.416,8168.5,4.738761375026115,0.0
14.424,8178.0,6.714220757604608,0.0
14.432,8178.5,8.907557304751663,0.0
14.44,8177.5,8.75205168314551,0.0
14.448,8207.5,13.257895479840727,0.0
14.456,8192.5,16.977102993432936,0.0
14.464,8177.0,10.371531841762817,0.0
14.472,8171.0,0.500093582861382,0.0
14.48,8174.0,-6.026581292297578,0.0
14.488,8164.5,-10.300700553043498,0.0
14.496,8493.0,53.905263102122035,0.0
14.504,8190.0,88.91356102191708,0.0
14.512,8143.0,24.631776852249686,0.0
14.52,8161.0,-23.043556346703326,0.0
14.528,8164.0,-43.4546773565487,0.0
14.536,8172.5,-46.588079189216614,0.0
14.544,8179.0,-38.313352796654726,0.0
14.552,8184.0,-25.261477255802447,0.0
14.56,8190.0,-11.465372385851424,0.0
14.568,8205.0,2.722224385173604,0.0
14.576,8216.5,16.113996221343996,0.0
14.584,8246.5,30.069280187776485,0.0
14.592,8266.5,43.97859553547801,0.0
14.6,8273.0,50.950839361865064,0.0
14.608,8256.5,45.30645597928242,0.0
14.616,8216.0,23.454236467101282,0.0
14.624,8179.5,-8.756232687776219,0.0
14.632,8163.5,-37.20369609012482,0.0
14.64,8160.5,-52.26867524943077,0.0
14.648,8159.0,-54.172884677808725,0.0
14.656,8162.5,-46.67718060059133,0.0
14.664,8161.0,-34.75882038630607,0.0
14.672,8169.0,-21.112519000916564,0.0
14.68,8168.0,-8.411106007230956,0.0
14.688,8162.5,-0.9522437093235112,0.0
14.696,8164.5,2.888233658038871,0.0
14.704,8161.5,4.517294503640187,0.0
14.712,8167.0,5.306595296298383,0.0
14.72,8168.0,6.296799358618955,0.0
14.728,8171.0,6.7449385989643815,0.0
14.736,8191.0,10.686274060512005,0.0
14.744,8179.0,13.031414666476167,0.0
14.752,8164.5,7.028638831311355,0.0
14.76,8165.5,-0.34507863864700994,0.0
14.768,8165.0,-4.551414587170939,0.0
14.776,8168.0,-5.83823449790043,0.0
14.784,8525.0,67.83418433776001,0.0
14.792,8131.0,93.56033785717705,0.0
14.8,8139.5,15.831923312689469,0.0
14.808,8156.0,-27.42931874417468,1.0
14.816,8160.0,-44.667170595131665,0.0
14.824,8169.0,-45.433626755636624,0.0
14.832,8172.5,-36.44487327093384,0.0
14.84,8181.0,-23.151856423429308,0.0
14.848,8192.5,-7.6942769826055155,0.0
14.856,8203.0,7.10847135967515,0.0
14.864,8224.0,21.22054012817057,0.0
14.872,8250.0,35.95124871532698,0.0
14.88,8269.5,48.5080193395811,0.0
14.888,8275.0,53.68720509824834,0.0
14.896,8252.5,45.13743901609928,0.0
14.904,8207.5,19.447447276662615,0.0
14.912,8175.0,-14.52734792331671,0.0
14.92,8157.0,-42.7346600025644,0.0
14.928,8156.0,-56.81905465159866,0.0
14.936,8161.5,-55.61474937084745,0.0
14.944,8164.0,-44.836266167074655,0.0
14.952,8168.5,-30.23407602513771,0.0
14.96,8170.5,-15.6865666979445,0.0
14.968,8170.5,-4.296323348915621,0.0
14.976,8170.5,3.0912211209663383,0.0
14.984,8164.5,5.765732186463083,0.0
14.992,8171.5,6.677581390571959,0.0
15.0,8179.5,9.268959713655704,0.0
15.008,8193.5,13.890831017889695,0.0
15.016,8189.5,16.561192388250902,0.0
15.024,8174.5,11.747851792990332,0.0
15.032,8167.5,2.6255189683672597,0.0
15.04,8169.0,-4.291127824527621,0.0
15.048,8162.0,-8.85469024030408,0.0
15.056,8360.5,28.912509880515472,0.0
15.064,8257.0,66.27307031158239,0.0
15.072,8117.0,28.573013729200966,0.0
15.08,8156.5,-18.58697656557456,0.0
15.088,8167.5,-33.342120412559325,0.0
15.096,8174.0,-33.437964725747634,0.0
15.104,8176.0,-26.688499751504878,0.0
15.112,8186.5,-16.096825409870462,0.0
15.12,8198.5,-2.795689388348819,0.0
15.128,8209.5,10.193358995539938,0.0
15.136,8227.5,22.254351159976977,0.0
15.144,8249.0,34.08306228766605,0.0
15.152,8272.5,45.10468509999532,0.0
15.16,8287.0,52.54788333132046,0.0
15.168,8276.0,49.697952019023205,0.0
15.176,8229.5,28.730413807598552,0.0
15.184,8187.0,-6.2083969381315,0.0
15.192,8168.5,-38.392236038870806,0.0
15.2,8163.0,-56.5082090627875,0.0
15.208,8160.5,-60.28906075055397,0.0
15.216,8168.0,-52.36301285406421,0.0
15.224,8170.5,-37.69370213793604,0.0
15.232,8177.0,-21.464778384883175,0.0
15.24,8179.0,-6.876148863730805,0.0
15.248,8174.0,2.1811454415271783,0.0
15.256,8170.0,5.368219549069636,0.0
15.264,8175.0,6.643465299090622,0.0
15.272,8174.5,7.309769487335188,0.0
15.28,8179.5,7.514927060205991,0.0
15.288,8179.0,7.416258975372102,0.0
15.296,8199.5,10.319530920399984,0.0
15.304,8197.5,14.251523718082808,0.0
15.312,8178.5,10.125881252919953,0.0
15.32,8169.0,0.32820648950382747,0.0
15.328,8173.0,-6.639536724565005,0.0
15.336,8159.5,-11.694474268163503,0.0
15.344,8442.0,42.04598607334856,0.0
15.352,8207.0,77.15762709969454,0.0
15.36,8135.0,23.504233661225953,0.0
15.368,8157.0,-22.004855234888737,1.0
15.376,8170.0,-38.43213074393361,0.0
15.384,8177.0,-38.23441325860608,0.0
15.392,8178.0,-30.686288520510516,0.0
15.4,8187.5,-19.424777794636157,0.0
15.408,8192.0,-6.959501783396945,0.0
15.416,8204.5,4.940698529140718,0.0
15.424,8223.5,17.66486512634333,0.0
15.432,8247.0,31.194499247729254,0.0
15.44,8269.0,43.762135778465336,0.0
15.448,8277.5,50.79093411573217,0.0
15.456,8272.0,47.860151216302256,0.0
15.464,8228.5,28.859986810214423,0.0
15.472,8188.5,-3.811312573409168,0.0
15.48,8168.5,-34.81327465212894,0.0
15.488,8162.0,-53.283652404817076,0.0
15.496,8163.5,-57.15007684231841,0.0
15.504,8172.0,-48.72903941884215,0.0
15.512,8174.5,-34.113645154477354,0.0
15.52,8180.5,-18.56153681005526,0.0
15.528,8182.0,-5.017641321143174,0.0
15.536,8180.0,3.650779380249787,0.0
15.544,8182.5,8.325918258522734,0.0
15.552,8177.0,9.21557772806159,0.0
15.56,8180.0,7.833778451516309,0.0
15.568,8187.0,7.871899601371297,0.0
15.576,8189.5,8.64182932208746,0.0
15.584,8206.0,11.668676822499265,0.0
15.592,8196.5,13.119746077092486,0.0
15.6,8179.5,6.5748258342268855,0.0
15.608,8175.0,-2.685118132141497,0.0
15.616,8177.5,-8.162939773954804,0.0
15.624,8168.0,-11.595022211523428,0.0
15.632,8516.0,57.289021147457106,0.0
15.64,8181.5,92.0993001404347,0.0
15.648,8150.0,23.94859906194756,0.0
15.656,8162.0,-23.970369570850835,0.0
15.664,8165.5,-45.50871488387156,0.0
15.672,8175.0,-48.69088774072816,0.0
15.68,8179.5,-40.33049467891715,0.0
15.688,8189.5,-26.30923101957137,0.0
15.696,8196.5,-10.55517483095582,0.0
15.704,8206.5,3.835151132033161,0.0
15.712,8225.5,17.688835907638577,0.0
15.72,8248.0,31.678530139924533,0.0
15.728,8269.5,44.13840942883917,0.0
15.736,8275.0,50.33137989915849,1.0
15.744,8257.0,43.809300844076006,0.0
15.752,8216.0,21.256398299673492,0.0
15.76,8184.5,-10.115881727659144,0.0
15.768,8168.5,-36.8399984972898,0.0
15.776,8164.5,-51.14523497138475,0.0
15.784,8169.0,-51.74895651338716,0.0
15.792,8170.5,-43.03443886744549,0.0
15.8,8175.5,-30.028203252346884,0.0
15.808,8171.0,-17.681556489404784,0.0
15.816,8171.0,-8.61839099029089,0.0
15.824,8173.0,-1.5431984059898696,0.0
15.832,8173.0,3.2836275662471053,0.0
15.84,8169.5,4.925314906420681,0.0
15.848,8172.5,5.0473198051331565,0.0
15.856,8174.5,5.375744164240132,0.0
15.864,8176.5,5.572150818232558,0.0
15.872,8195.0,9.031668452993017,0.0
15.88,8197.5,13.998631246614423,0.0
15.888,8181.5,12.055665996733524,0.0
15.896,8176.5,4.788500977002059,0.0
15.904,8175.0,-1.5632370620171514,0.0
15.912,8171.0,-6.206293810239458,0.0
15.92,8321.0,21.8166778286934,0.0
15.928,8345.0,70.63009461414435,0.0
15.936,8132.0,50.177057010642784,0.0
15.944,8158.5,-7.628373547475576,0.0
15.952,8161.5,-34.63098409353529,0.0
15.96,8168.0,-43.40895966867606,0.0
15.968,8175.5,-39.15871775002779,0.0
15.976,8183.5,-27.54154508990655,0.0
15.984,8189.5,-13.635333469100487,0.0
15.992,8198.5,-0.27943297964861813,0.0
16.0,8216.0,13.075561733219729,0.0
16.008,8239.0,27.265457477737527,0.0
16.016,8261.0,40.71711034040095,0.0
16.024,8276.0,50.0583316352147,0.0
16.032,8271.5,50.13843922616752,0.0
16.04,8234.0,34.00360090843424,0.0
16.048,8194.0,3.472822985692119,1.0
16.056,8169.0,-28.389103280277595,0.0
16.064,8156.0,-50.691502122520205,0.0
16.072,8159.5,-58.13653180343249,0.0
16.08,8167.0,-51.478016581220345,0.0
16.088,8165.5,-38.50970177719796,0.0
16.096,8171.5,-24.082382734711928,0.0
16.104,8168.5,-11.286014086660316,0.0
16.112,8167.0,-2.9265235239658978,0.0
16.12,8165.5,1.8480584498217922,0.0
16.128,8170.0,5.004453356143131,0.0
16.136,8166.0,6.2145563135413795,0.0
16.144,8166.5,5.272956232045544,0.0
16.152,8175.5,5.857510923055088,0.0
16.16,8185.0,9.09471305827492,0.0
16.168,8189.0,12.388384343419602,0.0
16.176,8173.5,10.108571339643731,0.0
16.184,8167.5,2.83524723392793,0.0
16.192,8166.5,-3.3261473679128812,0.0
16.2,8162.5,-7.487206898201748,0.0
16.208,8266.0,11.515030314190426,0.0
16.216,8387.5,66.9747930290921,0.0
16.224,8117.5,59.280763700802254,0.0
16.232,8151.0,-2.5742810024512437,0.0
16.24,8153.5,-31.41013140546147,0.0
16.248,8160.0,-41.86275170662907,0.0
16.256,8166.0,-39.143766532251675,0.0
16.264,8174.0,-28.740894603803326,0.0
16.272,8175.0,-16.392487012517904,0.0
16.28,8191.0,-3.131250588160583,0.0
16.288,8205.0,11.315182048524548,0.0
16.296,8230.0,26.11099548418383,0.0
16.304,8256.5,41.42397249330611,0.0
16.312,8272.5,52.88246370759907,0.0
16.32,8271.5,54.70590319101393,0.0
16.328,8232.5,39.31818868002165,0.0
16.336,8187.5,7.095548950165494,0.0
16.344,8162.0,-27.439844149937016,0.0
16.352,8149.5,-51.46724575912003,0.0
16.36,8152.0,-59.916977752934145,0.0
16.368,8155.5,-54.60420932233251,0.0
16.376,8162.0,-41.140595935587726,0.0
16.384,8172.0,-23.56987362812879,0.0
16.392,8170.0,-7.970699779831875,0.0
16.4,8174.5,2.973830146549062,0.0
16.408,8173.5,9.71059223516636,0.0
16.416,8174.0,12.120311414440948,0.0
16.424,8178.0,12.627186801566268,0.0
16.432,8179.5,12.136176039766497,0.0
16.44,8187.5,11.946663378929316,0.0
16.448,8195.0,13.189993500043556,0.0
16.456,8178.5,10.086830762889122,0.0
16.464,8176.5,2.9427775831793497,0.0
16.472,8169.5,-3.567070924916152,0.0
16.48,8170.5,-8.101979490226995,0.0
16.488,8251.0,7.094955963178336,0.0
16.496,8423.0,66.59267760333182,0.0
16.504,8121.5,65.22633939699381,0.0
16.512,8155.5,-0.12126421585912794,0.0
16.52,8163.0,-30.270859965482487,0.0
16.528,8174.0,-39.7322962656026,0.0
16.536,8175.5,-36.750128698703065,0.0
16.544,8183.0,-27.576019007503874,0.0
16.552,8193.5,-14.292200848862421,0.0
16.56,8198.0,-1.204793978768521,0.0
16.568,8219.0,11.927408875889114,0.0
16.576,8236.5,25.75101775951657,0.0
16.584,8265.0,39.41995693773947,1.0
16.592,8281.5,50.72075136251624,0.0
16.6,8280.0,52.77867033181565,0.0
16.608,8241.5,37.8218178517061,0.0
16.616,8195.0,5.8765558722379865,0.0
16.624,8173.0,-27.90138109600548,0.0
16.632,8163.5,-50.082894590835394,0.0
16.64,8159.0,-58.468058671415974,0.0
16.648,8167.0,-53.847530179159094,0.0
16.656,8171.5,-40.39727577951999,0.0
16.664,8172.5,-25.194459131732856,0.0
16.672,8175.0,-11.668708158090567,0.0
16.68,8175.0,-1.389735382052777,0.0
16.688,8173.0,4.491330810797081,0.0
16.696,8176.5,7.594896133956354,0.0
16.704,8171.0,7.870262000882121,0.0
16.712,8180.5,7.6570916020643836,0.0
16.72,8179.0,8.00452410689968,0.0
16.728,8195.5,10.060927146204222,0.0
16.736,8197.5,13.53129045378114,0.0
16.744,8175.5,9.446137757634006,0.0
16.752,8170.0,-0.020233461618772708,0.0
16.76,8173.0,-6.126314223564577,0.0
16.768,8165.0,-9.830122893122507,0.0
16.776,8351.0,25.835360151425675,0.0
16.784,8298.5,70.28508252401821,0.0
16.792,8132.5,41.27679682708708,0.0
16.8,8158.0,-10.840970933688368,0.0
16.808,8165.0,-33.37993692162968,0.0
16.816,8166.5,-39.9120948061277,0.0
16.824,8173.0,-36.08965094179962,0.0
16.832,8181.5,-25.292934511656767,0.0
16.84,8188.0,-12.008554433429254,0.0
16.848,8196.0,0.630806591295368,0.0
16.856,8214.0,13.321887570918989,0.0
16.864,8237.0,27.183950335779173,0.0
16.872,8263.0,41.271284056727836,0.0
16.88,8275.0,51.10872751087868,0.0
16.888,8267.5,50.09724270992092,0.0
16.896,8226.0,31.89297855923428,0.0
16.904,8185.5,-0.46101283800044257,0.0
16.912,8165.5,-31.885414893890584,0.0
16.92,8153.5,-52.173175584553746,0.0
16.928,8152.0,-59.019315695421255,0.0
16.936,8156.5,-53.507184305275814,0.0
16.944,8161.0,-40.29629075851699,0.0
16.952,8162.0,-25.250342245670936,0.0
16.96,8166.0,-11.502439052281943,0.0
16.968,8162.0,-1.6280462394699953,0.0
16.976,8160.0,3.2326794717980647,0.0
16.984,8164.0,6.0257939278812955,0.0
16.992,8164.5,7.683409437073806,0.0
17.0,8171.0,8.928930724998736,0.0
17.008,8176.5,10.763408562620953,0.0
17.016,8184.0,12.872366663688808,0.0
17.024,8192.0,15.334661059651353,0.0
17.032,8177.0,13.035836517097778,0.0
17.04,8167.5,4.694558592996145,0.0
17.048,8170.0,-2.380315684772995,0.0
17.056,8169.0,-5.897049478752706,0.0
17.064,8221.0,3.3365642991273035,0.0
17.072,8468.5,69.47954261196355,0.0
17.08,8136.0,80.69690211749958,0.0
17.088,8156.0,11.2522195776653,0.0
17.096,8160.5,-26.51785029772782,1.0
17.104,8168.0,-42.38297835483809,0.0
17.112,8171.5,-43.09252008036333,0.0
17.12,8182.0,-34.11859566135058,0.0
17.128,8190.0,-19.85908448466148,0.0
17.136,8197.5,-5.248498692330486,0.0
17.144,8209.5,8.171778084353946,0.0
17.152,8235.0,22.530850543728548,0.0
17.16,8262.0,38.33263271490114,0.0
17.168,8277.0,50.44673568298458,0.0
17.176,8279.0,53.43578964392873,0.0
17.184,8246.5,40.870839649654954,0.0
17.192,8203.0,11.71658458210868,0.0
17.2,8181.0,-20.68327031181002,0.0
17.208,8164.0,-44.676395315695345,0.0
17.216,8166.0,-55.156933385981574,0.0
17.224,8167.5,-52.27761129284818,0.0
17.232,8171.0,-41.627377903006845,0.0
17.24,8172.0,-28.098291887201867,0.0
17.248,8174.0,-15.224277541113452,0.0
17.256,8173.0,-5.098125682078262,0.0
17.264,8169.5,0.7440461530109133,0.0
17.272,8173.0,4.086290765750846,0.0
17.28,8172.5,6.056261280093622,0.0
17.288,8170.5,5.792345838858637,0.0
17.296,8178.5,5.983883628842477,0.0
17.304,8180.0,7.130789204187295,0.0
17.312,8191.5,9.383866175135609,0.0
17.32,8194.0,12.15383884718267,0.0
17.328,8179.5,9.497720800521392,0.0
17.336,8171.5,1.8901618404076999,0.0
17.344,8172.5,-4.325612602357751,0.0
17.352,8172.0,-7.2436470205657315,0.0
17.36,8273.0,12.661087465857463,0.0
17.368,8401.5,69.40018349846878,0.0
17.376,8137.5,64.75094267788063,0.0
17.384,8160.0,2.845733056911513,0.0
17.392,8165.0,-28.578079908668997,0.0
17.4,8169.0,-40.990589437778226,0.0
17.408,8175.0,-40.07366167698251,0.0
17.416,8180.0,-31.208442925021927,0.0
17.424,8188.0,-18.5780881390001,0.0
17.432,8199.0,-4.410144031437312,0.0
17.44,8210.5,9.234153193428256,0.0
17.448,8229.0,22.03238618803448,0.0
17.456,8252.5,34.841504897724235,1.0
17.464,8268.0,45.102145340005336,0.0
17.472,8266.5,47.19246512662585,0.0
17.48,8230.5,33.61246114293772,0.0
17.488,8184.5,3.7325557293540896,0.0
17.496,8162.5,-28.39672663031638,0.0
17.504,8156.5,-48.81307539275963,0.0
17.512,8155.0,-55.01888818141015,0.0
17.52,8161.0,-49.42812906215727,0.0
17.528,8159.0,-37.81067224940193,0.0
17.536,8163.5,-24.69683117191562,0.0
17.544,8161.0,-12.788394415559196,0.0
17.552,8161.0,-4.317645070002754,0.0
17.56,8159.5,1.0400968474418733,0.0
17.568,8163.0,4.459567274416941,0.0
17.576,8161.0,6.112164646860947,0.0
17.584,8162.0,5.958530878923511,0.0
17.592,8168.5,6.496544691501413,0.0
17.6,8170.5,7.566329322827869,0.0
17.608,8190.5,11.546471490456497,0.0
17.616,8186.5,15.418552829126611,0.0
17.624,8171.5,11.489145086244662,0.0
17.632,8167.5,3.5416941565467823,0.0
17.64,8170.5,-1.8996786838247317,0.0
17.648,8157.5,-6.872692142700998,0.0
17.656,8404.5,39.03465003295628,0.0
17.664,8234.5,75.99722629450002,0.0
17.672,8125.5,29.334826441907808,0.0
17.68,8160.0,-17.92915725502121,0.0
17.688,8163.0,-35.50144651653136,0.0
17.696,8173.0,-37.85532036796667,0.0
17.704,8180.0,-30.034970078008655,0.0
17.712,8182.5,-18.915513997556445,0.0
17.72,8192.0,-7.020060920747255,0.0
17.728,8201.0,4.85877976425968,0.0
17.736,8218.0,16.459079630984434,0.0
17.744,8243.0,29.4047217221746,0.0
17.752,8258.0,40.77468319383388,0.0
17.76,8274.5,47.752412374093865,0.0
17.768,8262.0,45.45640384484136,0.0
17.776,8220.0,26.072425895213655,0.0
17.784,8182.5,-5.586029750492116,0.0
17.792,8160.0,-35.71992964051174,0.0
17.8,8151.0,-54.56098136947617,0.0
17.808,8153.0,-58.86156528609604,0.0
17.816,8155.0,-51.663612159034074,0.0
17.824,8158.5,-38.450286599282435,0.0
17.832,8158.5,-24.091377466360655,0.0
17.84,8158.0,-12.049155503608063,0.0
17.848,8161.5,-2.4877086185331336,0.0
17.856,8163.0,4.565585417963348,0.0
17.864,8163.5,8.453296892561184,0.0
17.872,8166.5,10.185916347241346,0.0
17.88,8174.0,11.811438144075055,0.0
17.888,8186.5,15.068032102271445,0.0
17.896,8178.0,15.526688175729305,0.0
17.904,8165.5,9.153590114857707,0.0
17.912,8165.0,1.3408474068914984,0.0
17.92,8170.0,-2.5635303346962246,0.0
17.928,8185.5,-0.29574453885811636,0.0
17.936,8516.0,71.77834381292246,0.0
17.944,8126.0,91.36449764121471,0.0
17.952,8146.0,13.504475473734828,0.0
17.96,8157.5,-28.153775192095736,1.0
17.968,8165.0,-44.640235664932106,0.0
17.976,8172.5,-44.55780220790416,0.0
17.984,8177.0,-35.301952554229274,0.0
17.992,8183.5,-22.228556568114755,0.0
18.0,8191.0,-8.266648644661018,0.0
18.008,8207.5,6.146941976552625,0.0
18.016,8227.0,21.093996423592444,0.0
18.024,8257.5,36.95060215665217,0.0
18.032,8274.0,50.32816395574423,0.0
18.04,8272.5,53.67380061121503,0.0
18.048,8248.5,42.30515188412687,0.0
18.056,8203.5,15.071034519263094,0.0
18.064,8174.0,-18.54053572615976,0.0
18.072,8158.5,-44.800935991983806,0.0
18.08,8157.5,-56.909906314262116,0.0
18.088,8163.0,-54.52356415892814,0.0
18.096,8166.5,-43.00716202983426,0.0
18.104,8168.0,-28.65448327758145,0.0
18.112,8167.5,-15.61767401376278,0.0
18.12,8164.5,-6.254955669418905,0.0
18.128,8168.0,0.33261604587141846,0.0
18.136,8169.0,5.097420288792819,0.0
18.144,8167.5,7.040338167609434,0.0
18.152,8173.0,7.939181528603513,0.0
18.16,8181.5,10.127293921023238,0.0
18.168,8184.5,12.23538216637371,0.0
18.176,8200.0,15.40663897242166,0.0
18.184,8187.0,15.457038760083833,0.0
18.192,8174.5,7.933704569009706,0.0
18.2,8176.5,0.13641521830732017,0.0
18.208,8178.0,-3.7805181213004744,0.0
18.216,8200.5,-0.6205950872513313,0.0
18.224,8511.5,69.47659263017658,0.0
18.232,8138.5,87.73183126964159,0.0
18.24,8157.0,12.802125930297052,0.0
18.248,8167.0,-27.629558186248687,0.0
18.256,8170.0,-44.69591165542511,0.0
18.264,8172.0,-46.990993066094916,0.0
18.272,8176.0,-39.99810627720399,0.0
18.28,8190.0,-26.120924693177585,0.0
18.288,8197.5,-9.561274158770857,0.0
18.296,8207.0,5.154791898833992,0.0
18.304,8228.0,19.307496949240658,0.0
18.312,8248.5,33.22862315935208,0.0
18.32,8269.0,44.80003656186864,0.0
18.328,8272.5,49.7543568159324,1.0
18.336,8246.0,40.44206692013563,0.0
18.344,8204.0,14.808692861545524,0.0
18.352,8180.5,-15.97771892097876,0.0
18.36,8161.5,-40.44512634645298,0.0
18.368,8158.5,-53.277770348468266,0.0
18.376,8169.5,-51.1550294134604,0.0
18.384,8170.0,-39.7944781785618,0.0
18.392,8170.0,-26.94040389022757,0.0
18.4,8168.0,-15.662643975881565,0.0
18.408,8172.0,-6.209752006135886,0.0
18.416,8170.5,0.8328964822433136,0.0
18.424,8170.0,4.4630286013778,0.0
18.432,8168.0,5.422482876043659,0.0
18.44,8167.0,4.554887671290999,0.0
18.448,8171.5,4.066271448112502,0.0
18.456,8179.5,5.714570175356357,0.0
18.464,8195.5,10.726194818116028,0.0
18.472,8187.5,13.69825022331338,0.0
18.48,8170.5,8.271581861942195,0.0
18.488,8163.5,-1.0950300874251298,0.0
18.496,8168.5,-6.877011114669358,0.0
18.504,8157.5,-10.479634050214827,0.0
18.512,8465.0,49.55381130809701,0.0
18.52,8194.5,85.103679719615,0.0
18.528,8146.0,28.053127974483004,0.0
18.536,8160.5,-16.885887625467376,0.0
18.544,8165.5,-36.91878141481652,0.0
18.552,8171.0,-41.02372008815951,0.0
18.56,8179.0,-34.47363273642395,0.0
18.568,8185.0,-22.513100703483587,0.0
18.576,8191.0,-9.574800086338655,0.0
18.584,8204.5,3.5124083513796904,0.0
18.592,8220.5,16.74651359804261,0.0
18.6,8240.0,29.2868517573595,0.0
18.608,8263.5,41.047890102734755,0.0
18.616,8271.5,48.21548010920105,0.0
18.624,8260.5,44.53144265501123,0.0
18.632,8223.5,25.794777079564483,0.0
18.64,8189.0,-3.804357663135761,0.0
18.648,8168.0,-32.071147375124156,0.0
18.656,8167.0,-48.420333851799114,0.0
18.664,8167.0,-50.952422465143854,0.0
18.672,8171.0,-43.907703538268606,0.0
18.68,8173.0,-31.85873731329343,0.0
18.688,8173.5,-19.392085870618303,0.0
18.696,8169.5,-9.79431253307257,0.0
18.704,8170.0,-3.3483247022863907,0.0
18.712,8172.5,1.5843698936057535,0.0
18.72,8170.0,4.261348168637369,0.0
18.728,8173.0,5.30058843830443,0.0
18.736,8173.0,5.724464120800576,0.0
18.744,8179.0,6.333052117163788,0.0
18.752,8186.0,8.388715317832975,0.0
18.76,8195.5,11.703566488546585,0.0
18.768,8175.5,9.744406528506488,0.0
18.776,8168.5,1.5922732543535858,0.0
18.784,8167.0,-5.206849350634002,0.0
18.792,8170.0,-8.131968193279818,0.0
18.8,8228.5,3.935524403557565,0.0
18.808,8435.0,64.61526611799127,0.0
18.816,8124.5,69.45744257605884,0.0
18.824,8149.0,3.3604938671662694,0.0
18.832,8153.0,-30.416049675008253,0.0
18.84,8160.0,-43.53270062880051,0.0
18.848,8165.0,-42.23818523481668,0.0
18.856,8172.5,-32.515043222368604,0.0
18.864,8180.0,-18.770616358369125,0.0
18.872,8186.0,-5.038276843644098,0.0
18.88,8205.0,8.954388952384306,0.0
18.888,8228.0,24.452671998390315,0.0
18.896,8247.0,38.49165196054855,1.0
18.904,8264.5,48.41547288010656,0.0
18.912,8263.0,50.21286024102233,0.0
18.92,8231.0,36.8188922504105,0.0
18.928,8191.5,8.708034068673442,0.0
18.936,8164.5,-22.822926682244315,0.0
18.944,8152.0,-46.07994237343655,0.0
18.952,8151.5,-55.50375066046399,0.0
18.96,8153.0,-52.4576507839281,0.0
18.968,8156.0,-41.78363958814384,0.0
18.976,8156.5,-28.421101125507448,0.0
18.984,8155.0,-16.413844334196483,0.0
18.992,8157.5,-6.619939097270162,0.0
19.0,8155.5,0.27797163117224954,0.0
19.008,8154.5,3.70233841085701,0.0
19.016,8154.5,4.961884251116089,0.0
19.024,8161.5,6.38460313472865,0.0
19.032,8164.0,8.198873372145727,0.0
19.04,8184.0,12.625552367914224,0.0
19.048,8181.0,16.80241427696228,0.0
19.056,8157.5,11.311187348827161,0.0
19.064,8157.0,1.4455554997966829,0.0
19.072,8155.5,-5.016727836177552,0.0
19.08,8150.5,-9.405871750529968,0.0
19.088,8475.0,54.69855031772477,0.0
19.096,8152.0,84.62330522178718,0.0
19.104,8123.5,17.679124276110315,0.0
19.112,8149.5,-25.102669947006916,0.0
19.12,8156.0,-39.95811466808527,0.0
19.128,8163.0,-39.9274172292171,0.0
19.136,8171.5,-30.689132303727092,0.0
19.144,8179.0,-17.30397794467308,0.0
19.152,8184.0,-4.210772116317457,0.0
19.16,8201.5,8.767699526426213,0.0
19.168,8222.0,22.877290845538255,0.0
19.176,8249.5,37.55965213335048,0.0
19.184,8268.0,49.94612771371112,0.0
19.192,8272.0,54.29581499922756,0.0
19.2,8256.0,46.18471656437168,0.0
19.208,8214.0,22.536230341380133,1.0
19.216,8174.0,-11.61887154212718,0.0
19.224,8154.0,-42.31463387711983,0.0
19.232,8152.0,-58.547277296226184,0.0
19.24,8155.0,-59.06647672958957,0.0
19.248,8160.5,-48.68179835027104,0.0
19.256,8163.5,-33.42302442623509,0.0
19.264,8161.0,-19.229535260285274,0.0
19.272,8161.0,-8.430856706948362,0.0
19.28,8156.0,-1.7878227445594348,0.0
19.288,8156.5,1.492557910327605,0.0
19.296,8157.0,3.410581049319717,0.0
19.304,8166.0,5.968670258743487,0.0
19.312,8167.5,8.721757792824974,0.0
19.32,8193.0,14.543730049430906,0.0
19.328,8178.5,18.029142769181135,0.0
19.336,8164.5,11.534405762742608,0.0
19.344,8162.5,2.675863755891214,0.0
19.352,8168.5,-2.151552615438277,0.0
19.36,8162.5,-4.680277926669987,0.0
19.368,8509.0,64.0982541445776,0.0
19.376,8146.0,91.68474911197404,0.0
19.384,8141.0,18.916163250348063,0.0
19.392,8160.5,-24.024610134689055,0.0
19.4,8165.5,-40.77192805683171,0.0
19.408,8172.0,-42.145299243172985,0.0
19.416,8177.0,-34.21832439306081,0.0
19.424,8188.0,-21.073609473296074,0.0
19.432,8193.0,-6.8360256134176325,0.0
19.44,8206.5,6.400045430611499,0.0
19.448,8221.5,19.080087087576885,0.0
19.456,8246.5,31.858309377444584,0.0
19.464,8265.5,43.57446950241933,0.0
19.472,8274.0,49.51525604672497,1.0
19.48,8255.5,43.478521903422916,0.0
19.488,8211.5,20.54774864639944,0.0
19.496,8176.0,-12.370669615558427,0.0
19.504,8158.0,-40.89312247585258,0.0
19.512,8152.0,-56.46459381034401,0.0
19.52,8163.5,-55.98918285287937,0.0
19.528,8164.0,-44.76779471755026,0.0
19.536,8168.5,-30.322654057813452,0.0
19.544,8172.5,-15.445992411599036,0.0
19.552,8172.0,-3.5911115887131473,0.0
19.56,8170.0,3.453548229661692,0.0
19.568,8169.0,6.483247284041681,0.0
19.576,8166.5,6.57701661189958,0.0
19.584,8173.5,6.554671997162814,0.0
19.592,8179.0,8.101452089941404,0.0
19.6,8182.5,9.626646943393098,0.0
19.608,8201.0,13.563749495418051,0.0
19.616,8199.0,17.206684532088957,0.0
19.624,8180.5,12.564206935193624,0.0
19.632,8175.5,3.1127018942854647,0.0
19.64,8174.0,-4.27678031096616,0.0
19.648,8166.0,-9.939355359701494,0.0
19.656,8368.0,27.853090597484652,0.0
19.664,8286.0,70.4967224501986,0.0
19.672,8138.5,38.14092161913504,0.0
19.68,8167.0,-11.088657655055158,0.0
19.688,8168.5,-32.39275356372718,0.0
19.696,8179.5,-37.527076671200575,0.0
19.704,8180.5,-32.42234922775992,0.0
19.712,8192.0,-21.934050690395225,0.0
19.72,8200.0,-8.421961169941824,0.0
19.728,8209.0,4.319049031266331,0.0
19.736,8227.0,16.715364902617694,0.0
19.744,8246.0,29.071409552894465,0.0
19.752,8271.0,40.960421426312905,0.0
19.76,8282.5,49.238460171567795,0.0
19.768,8276.0,47.69045101304232,0.0
19.776,8241.5,31.168191865951712,0.0
19.784,8199.0,0.9403257940912226,0.0
19.792,8182.0,-29.234847902490174,0.0
19.8,8168.0,-48.98137341842562,0.0
19.808,8175.5,-54.56123705187042,0.0
19.816,8178.5,-47.44387300147787,0.0
19.824,8178.5,-35.42872201341834,0.0
19.832,8179.5,-22.747268263804244,0.0
19.84,8179.5,-11.594422233098612,0.0
19.848,8182.0,-2.7300441514014437,0.0
19.856,8177.5,2.517639701047301,0.0
19.864,8177.0,4.217903262981281,0.0
19.872,8172.5,3.562448288381802,0.0
19.88,8178.0,2.839004911510301,0.0
19.888,8182.5,4.023743279400605,0.0
19.896,8193.0,7.178860986216478,0.0
19.904,8206.5,12.859612118710402,0.0
19.912,8179.5,11.511468859857587,0.0
19.92,8174.5,2.4312782270594653,0.0
19.928,8171.0,-5.043899026868985,0.0
19.936,8173.0,-9.00644313971793,0.0
19.944,8265.0,9.21987537610039,0.0
19.952,8414.5,67.93969723339387,0.0
19.96,8135.0,65.8069358903424,0.0
19.968,8155.0,1.5524522109190002,0.0
19.976,8156.5,-32.29044586416171,0.0
19.984,8169.0,-44.549255719763096,0.0
19.992,8168.5,-42.59329276387734,0.0
20.0,8179.5,-32.833734909476334,0.0
20.008,8186.5,-18.406551882246504,0.0
20.016,8195.0,-3.9170263213836733,0.0
20.024,8211.5,10.353443240209572,0.0
20.032,8231.0,24.57810088564952,0.0
20.04,8255.5,38.2534460344084,1.0
20.048,8265.5,47.58972710626995,0.0
20.056,8268.0,48.44978429080629,0.0
20.064,8239.0,36.19888967373868,0.0
20.072,8198.0,9.164494145901244,0.0
20.08,8172.5,-21.79905310167851,0.0
20.088,8167.0,-43.13917569595924,0.0
20.096,8165.0,-50.751536971575206,0.0
20.104,8164.5,-48.06969489175003,0.0
20.112,8171.0,-37.9699198263429,0.0
20.12,8174.0,-24.299383649747142,0.0
20.128,8168.5,-13.04132977451809,0.0
20.136,8169.0,-5.42761986745586,0.0
20.144,8167.5,-0.3062939680207819,0.0
20.152,8170.5,3.075338743219163,0.0
20.16,8169.0,4.915424336988963,0.0
20.168,8171.5,5.462712399317752,0.0
20.176,8177.0,6.592572572812742,0.0
20.184,8182.0,8.406416854598774,0.0
20.192,8197.5,12.39277625063528,0.0
20.2,8186.0,13.688614765355169,0.0
20.208,8168.5,6.4548920503248155,0.0
20.216,8169.5,-2.172721063745712,0.0
20.224,8171.5,-6.332764604102977,0.0
20.232,8166.0,-8.547938518079945,0.0
20.24,8526.5,63.96477228241815,0.0
20.248,8161.5,96.23150171158022,0.0
20.256,8145.5,22.885546717335046,0.0
20.264,8157.5,-24.77805245653849,0.0
20.272,8164.0,-45.43001596072031,0.0
20.28,8170.0,-48.20206617493932,0.0
20.288,8171.5,-41.001193735517745,0.0
20.296,8180.5,-28.38118606430976,0.0
20.304,8183.0,-14.265352049573494,0.0
20.312,8199.0,0.02508991632271318,0.0
20.32,8214.0,14.805955361568977,0.0
20.328,8240.0,29.678911019963834,0.0
20.336,8258.5,43.06646593331834,0.0
20.344,8264.0,49.35767905223997,1.0
20.352,8246.0,43.04132507902136,0.0
20.36,8199.5,19.60286766598574,0.0
20.368,8169.0,-12.96178699861207,0.0
20.376,8151.0,-40.163900156632735,0.0
20.384,8154.5,-53.12422564800886,0.0
20.392,8148.5,-53.245433179416295,0.0
20.4,8154.5,-45.24447896269294,0.0
20.408,8158.5,-31.610122533616504,0.0
20.416,8157.5,-18.14141646087728,0.0
20.424,8157.5,-7.629893851106772,0.0
20.432,8153.0,-1.1759684512758213,0.0
20.44,8158.0,2.9213135001136834,0.0
20.448,8157.0,5.718736980326412,0.0
20.456,8158.5,6.608250999671554,0.0
20.464,8163.5,7.460374630355545,0.0
20.472,8173.0,9.795600240800013,0.0
20.48,8184.0,13.879687096520456,0.0
20.488,8167.5,13.067030403984745,0.0
20.496,8156.0,4.884887449787584,0.0
20.504,8157.0,-2.839783655411793,0.0
20.512,8159.0,-6.364694217762008,0.0
20.52,8208.5,3.0371347071995842,0.0
20.528,8424.0,62.27661380278619,0.0
20.536,8085.0,62.6377225438323,0.0
20.544,8120.5,-8.650636597411449,0.0
20.552,8135.5,-39.18172442463947,0.0
20.56,8143.0,-46.700578982179195,0.0
20.568,8152.0,-40.695894568295216,0.0
20.576,8162.0,-27.093040474142754,0.0
20.584,8168.0,-11.671897071906642,0.0
20.592,8179.0,2.690853090985229,0.0
20.6,8188.5,14.96516166703509,0.0
20.608,8220.0,28.33160617020235,0.0
20.616,8250.0,44.50559420119362,0.0
20.624,8263.0,56.10822610175569,0.0
20.632,8265.0,57.52784649524983,0.0
20.64,8228.0,42.494978248065536,0.0
20.648,8188.0,11.43066098806571,1.0
20.656,8160.0,-22.566204206542807,0.0
20.664,8146.0,-47.83122593872599,0.0
20.672,8147.0,-58.177050428271514,0.0
20.68,8152.0,-54.249421493348336,0.0
20.688,8159.0,-41.25016569480795,0.0
20.696,8159.0,-25.87830946152394,0.0
20.704,8164.0,-11.842457737442828,0.0
20.712,8161.5,-1.2354697314692658,0.0
20.72,8163.0,5.020496458400203,0.0
20.728,8166.5,8.980602148618573,0.0
20.736,8162.0,9.756736012865531,0.0
20.744,8172.0,9.860158491387892,0.0
20.752,8180.0,12.103820800690073,0.0
20.76,8191.0,15.477352552720276,0.0
20.768,8170.0,13.082896092773353,0.0
20.776,8161.0,3.554272289593655,0.0
20.784,8164.0,-3.845614696369921,0.0
20.792,8166.0,-6.617350959335226,0.0
20.8,8263.5,13.074649315261013,0.0
20.808,8386.0,67.68437599702384,0.0
20.816,8120.5,60.50371014027587,0.0
20.824,8153.5,-0.41594207027628727,0.0
20.832,8158.0,-28.71938131675165,0.0
20.84,8167.0,-38.34573030196816,0.0
20.848,8175.5,-34.64980747003756,0.0
20.856,8177.5,-25.06556634469416,0.0
20.864,8186.0,-13.452067570034387,0.0
20.872,8195.0,-0.9691068907472982,0.0
20.88,8212.0,11.872044950837562,0.0
20.888,8232.5,25.327619745385164,0.0
20.896,8256.0,38.43449465797562,0.0
20.904,8267.5,47.509284673162256,0.0
20.912,8268.5,48.22689250023427,0.0
20.92,8234.5,34.5975912364006,0.0
20.928,8192.0,5.662828676137451,0.0
20.936,8171.5,-25.17864579939578,0.0
20.944,8159.0,-46.342790262236804,0.0
20.952,8161.5,-53.876124639765294,0.0
20.96,8166.5,-48.630813568211806,0.0
20.968,8170.5,-36.31703247983228,0.0
20.976,8174.0,-21.996335671402903,0.0
20.984,8174.0,-9.477142182040097,0.0
20.992,8172.5,-0.942916410051339,0.0
21.0,8175.5,4.553619135875124,0.0
21.008,8175.0,7.624630847381013,0.0
21.016,8173.0,7.774086016364436,0.0
21.024,8173.0,6.275228707022052,0.0
21.032,8183.0,6.480416466826227,0.0
21.04,8182.0,7.457963960619509,0.0
21.048,8203.5,11.093535468720802,0.0
21.056,8196.0,14.421907085918065,0.0
21.064,8175.5,8.483346149965428,0.0
21.072,8173.0,-1.0138033654213814,0.0
21.08,8173.5,-6.885299023818561,0.0
21.088,8160.0,-11.969709989902412,0.0
21.096,8498.0,53.13374455095891,0.0
21.104,8184.0,88.48333718345384,0.0
21.112,8151.5,25.1836740413155,0.0
21.12,8166.5,-19.645049049794125,0.0
21.128,8170.0,-39.39869541593134,0.0
21.136,8174.0,-43.575405862290836,0.0
21.144,8183.5,-36.68089853668448,0.0
21.152,8190.5,-23.671277489537715,0.0
21.16,8197.0,-9.630502851196752,0.0
21.168,8208.0,3.708550453155567,0.0
21.176,8223.0,16.34680599591661,0.0
21.184,8247.0,29.310412898134473,0.0
21.192,8273.5,42.85045571546743,1.0
21.2,8281.5,51.40975828326009,0.0
21.208,8270.0,47.96233665655063,0.0
21.216,8227.0,27.51748590634452,0.0
21.224,8192.0,-4.681005082630236,0.0
21.232,8168.5,-34.96504216998733,0.0
21.24,8168.5,-52.37492804636349,0.0
21.248,8167.5,-54.934749378184506,0.0
21.256,8171.0,-47.609115006445336,0.0
21.264,8180.5,-33.4027324123108,0.0
21.272,8177.0,-18.711047719067665,0.0
21.28,8178.5,-7.594195571266255,0.0
21.288,8175.5,-0.1747890882768388,0.0
21.296,8173.5,3.2180316415253856,0.0
21.304,8175.5,4.736648646923186,0.0
21.312,8174.0,5.018774808700073,0.0
21.32,8177.5,4.833319904295649,0.0
21.328,8185.0,6.238162899427834,0.0
21.336,8190.0,8.676965906943451,0.0
21.344,8209.5,13.809109730516411,0.0
21.352,8189.5,14.648476684187017,0.0
21.36,8178.5,6.5906693952929345,0.0
21.368,8171.5,-2.851342661765784,0.0
21.376,8176.5,-8.411637471537688,0.0
21.384,8181.5,-8.381674885117263,0.0
21.392,8533.5,65.8422000597377,0.0
21.4,8160.0,95.36315491853406,0.0
21.408,8154.5,20.933606641993492,0.0
21.416,8162.5,-25.746935299573806,0.0
21.424,8167.5,-46.794280835704285,0.0
21.432,8171.0,-50.41052397088197,0.0
21.44,8173.5,-43.68052880029427,0.0
21.448,8184.0,-30.42202628755922,0.0
21.456,8193.0,-13.984765414920048,0.0
21.464,8201.0,1.3295730854740668,0.0
21.472,8221.5,16.00744214660199,0.0
21.48,8247.0,31.658830456403848,0.0
21.488,8266.0,45.20656999998823,0.0
21.496,8272.0,51.47235183228213,1.0
21.504,8253.5,44.82034848414287,0.0
21.512,8205.0,20.402915576511077,0.0
21.52,8180.0,-12.146947403179183,0.0
21.528,8163.5,-38.033746313632946,0.0
21.536,8157.5,-52.17356018763758,0.0
21.544,8160.0,-53.340748133271745,0.0
21.552,8157.5,-45.943934137066435,0.0
21.56,8160.5,-34.501677408836485,0.0
21.568,8162.0,-21.584530399360347,0.0
21.576,8164.0,-9.957828487179313,0.0
21.584,8162.0,-1.5720918084971345,0.0
21.592,8159.5,2.7062130035042173,0.0
21.6,8158.0,4.008898284864699,0.0
21.608,8157.5,3.7629062651492404,0.0
21.616,8158.5,3.1490763972269633,0.0
21.624,8167.0,4.249479104296142,0.0
21.632,8172.5,7.116195800517744,0.0
21.64,8185.5,11.51223329897175,0.0
21.648,8174.0,12.673103412251521,0.0
21.656,8165.0,7.250081121361063,0.0
21.664,8159.5,-0.018645147555389485,0.0
21.672,8159.0,-5.540336001121432,0.0
21.68,8168.5,-6.127167117185081,0.0
21.688,8515.0,67.18582623592943,0.0
21.696,8135.5,93.61491815583281,0.0
21.704,8137.5,17.928351799416987,0.0
21.712,8150.0,-26.58834656408885,0.0
21.72,8156.5,-45.002625750390735,0.0
21.728,8160.5,-46.92471219723802,0.0
21.736,8168.5,-38.495480817923635,0.0
21.744,8178.0,-24.098813579053513,0.0
21.752,8184.0,-8.76432094343113,0.0
21.76,8197.5,5.6171132991185,0.0
21.768,8218.0,20.216877149546008,0.0
21.776,8238.5,34.162370012608335,0.0
21.784,8265.0,46.832431714902214,0.0
21.792,8269.0,53.45631102565471,0.0
21.8,8244.5,45.08088771019197,0.0
21.808,8201.5,19.502575841029284,1.0
21.816,8170.5,-13.69947732380092,0.0
21.824,8154.5,-40.86025310698733,0.0
21.832,8148.0,-55.32496301078095,0.0
21.84,8155.0,-55.389300770124464,0.0
21.848,8155.0,-45.59957246202384,0.0
21.856,8161.0,-31.670704915646866,0.0
21.864,8159.0,-17.814339625168714,0.0
21.872,8159.5,-7.225295114208166,0.0
21.88,8163.5,1.0518420847026846,0.0
21.888,8156.0,5.072402817965667,0.0
21.896,8162.0,6.374668431700684,0.0
21.904,8164.5,7.9149081978341655,0.0
21.912,8163.5,7.932261186547294,0.0
21.92,8173.5,8.578606710063696,0.0
21.928,8177.5,10.520447892720313,0.0
21.936,8162.5,7.826516421172528,0.0
21.944,8155.5,0.552119385993592,0.0
21.952,8157.5,-4.855158965380042,0.0
21.96,8154.5,-7.521215885356696,0.0
21.968,8244.0,9.714408854085377,0.0
21.976,8378.0,64.0959440954091,0.0
21.984,8110.0,59.16308224792465,0.0
21.992,8147.0,0.08248387171465765,0.0
22.0,8152.5,-26.18740510345674,0.0
22.008,8168.0,-33.462737108530064,0.0
22.016,8173.5,-28.401693229777948,0.0
22.024,8176.0,-19.468161696898505,0.0
22.032,8181.0,-9.701026588776585,0.0
22.04,8195.5,1.5298972225712077,0.0
22.048,8209.5,13.762470064812078,0.0
22.056,8231.5,26.265070245142397,0.0
22.064,8258.5,39.68773310252686,0.0
22.072,8277.0,50.904432502050895,0.0
22.08,8275.0,53.1912208196768,0.0
22.088,8241.0,39.12437706856667,0.0
22.096,8197.5,9.040237614414991,0.0
22.104,8173.5,-23.912385230845985,0.0
22.112,8158.5,-47.74284435336858,0.0
22.12,8164.0,-56.538617687080205,0.0
22.128,8162.5,-52.351298445372095,0.0
22.136,8167.5,-41.22279709259237,0.0
22.144,8164.0,-28.085105891196463,0.0
22.152,8165.5,-16.46606506723174,0.0
22.16,8169.5,-5.974479124515483,0.0
22.168,8166.5,1.3403298847460974,0.0
22.176,8168.0,5.156634806101238,0.0
22.184,8170.0,7.346837427280207,0.0
22.192,8173.0,8.549756496012606,0.0
22.2,8177.5,9.497173030773638,0.0
22.208,8195.0,13.1122082110453,0.0
22.216,8190.5,15.918079238436803,0.0
22.224,8169.5,9.954427017470607,0.0
22.232,8166.5,0.015104509816865175,0.0
22.24,8170.0,-5.763134045060951,0.0
22.248,8157.0,-10.247473485038881,0.0
22.256,8478.5,51.68093779577134,0.0
22.264,8177.0,84.55587443369927,0.0
22.272,8137.5,21.511808060303565,0.0
22.28,8156.0,-23.324110184711344,1.0
22.288,8160.5,-41.60486894990686,0.0
22.296,8166.0,-44.06528208826421,0.0
22.304,8173.5,-36.18363875824616,0.0
22.312,8177.0,-23.789272090937857,0.0
22.32,8186.0,-10.29876932850675,0.0
22.328,8194.0,2.714020769285753,0.0
22.336,8214.0,15.7187088771434,0.0
22.344,8238.0,30.01575445269259,0.0
22.352,8262.5,43.82885094937524,0.0
22.36,8275.5,53.01420321995829,0.0
22.368,8260.0,49.89807438924936,0.0
22.376,8219.0,28.94706731512474,0.0
22.384,8183.5,-3.4610538685105894,0.0
22.392,8161.0,-33.95187449896389,0.0
22.4,8160.0,-51.637659999646985,0.0
22.408,8158.0,-54.88102810123996,0.0
22.416,8165.0,-47.457034881180334,0.0
22.424,8168.0,-33.82844264126811,0.0
22.432,8168.5,-19.924671576148512,0.0
22.44,8166.0,-9.089790547356188,0.0
22.448,8164.5,-2.1211435284535582,0.0
22.456,8165.0,2.1173924014817658,0.0
22.464,8162.5,3.894432233546013,0.0
22.472,8164.0,4.150627941872699,0.0
22.48,8172.5,5.715865716607368,0.0
22.488,8175.5,8.12441152588849,0.0
22.496,8196.5,13.220284646385835,0.0
22.504,8187.5,16.68123430274136,0.0
22.512,8172.5,11.295742423803858,0.0
22.52,8169.0,2.6186382751429846,0.0
22.528,8167.5,-3.9315074063331394,0.0
22.536,8163.0,-8.434994781348678,0.0
22.544,8504.5,59.02987276978456,0.0
22.552,8175.5,92.53261905131694,0.0
22.56,8139.5,23.747249845623173,0.0
22.568,8162.0,-23.290728607674737,0.0
22.576,8165.0,-42.36809113007757,0.0
22.584,8168.0,-46.00110422318153,0.0
22.592,8175.5,-39.030193148926855,0.0
22.6,8187.0,-25.108454196988987,0.0
22.608,8193.5,-9.391007871596685,0.0
22.616,8205.5,5.107616862836721,0.0
22.624,8221.0,18.525977292579455,0.0
22.632,8248.5,32.437752145716786,1.0
22.64,8268.0,45.349345497628065,0.0
22.648,8275.0,51.523716306679034,0.0
22.656,8261.0,45.933519703147795,0.0
22.664,8223.5,25.141930434349888,0.0
22.672,8190.0,-5.471353123428116,0.0
22.68,8170.0,-33.67657093601224,0.0
22.688,8164.5,-50.460995616535456,0.0
22.696,8168.0,-53.145395799974494,0.0
22.704,8171.0,-45.34752098154172,0.0
22.712,8173.0,-32.83914710900763,0.0
22.72,8174.0,-19.85001063152572,0.0
22.728,8176.5,-8.443707936806504,0.0
22.736,8171.0,-1.0307760121975207,0.0
22.744,8170.0,2.1815421592857547,0.0
22.752,8170.5,3.648403876801922,0.0
22.76,8174.0,4.779965683917226,0.0
22.768,8179.0,6.461027259831326,0.0
22.776,8187.0,9.131547025187047,0.0
22.784,8200.0,13.616755009126564,0.0
22.792,8181.0,12.97903388634154,0.0
22.8,8170.5,4.60723761398458,0.0
22.808,8173.5,-2.5745966856716223,0.0
22.816,8175.0,-5.512228694433816,0.0
22.824,8198.0,-1.408450292564794,0.0
22.832,8513.5,70.38788420340506,0.0
22.84,8154.5,93.28939813713441,0.0
22.848,8158.5,20.162749199119162,0.0
22.856,8160.0,-25.01748666156982,0.0
22.864,8169.0,-45.79889873917227,0.0
22.872,8176.0,-47.876524757941525,0.0
22.88,8183.0,-38.98637155754318,0.0
22.888,8185.5,-25.877097677620895,0.0
22.896,8196.5,-11.442960141414005,0.0
22.904,8214.0,4.650826318026702,0.0
22.912,8231.5,20.614073782713376,0.0
22.92,8256.5,35.61216014597153,0.0
22.928,8271.0,47.15266242994812,0.0
22.936,8277.0,51.01696316366201,1.0
22.944,8253.5,41.99226602873432,0.0
22.952,8208.0,16.19179496005131,0.0
22.96,8180.0,-16.537538916707717,0.0
22.968,8168.0,-41.558359885687196,0.0
22.976,8167.0,-52.71080498170227,0.0
22.984,8162.5,-52.43841695347783,0.0
22.992,8166.0,-44.53134498141617,0.0
23.0,8171.5,-31.26493071037703,0.0
23.008,8171.5,-17.55540811742594,0.0
23.016,8170.5,-6.9903127964125815,0.0
23.024,8169.0,-0.19307097204068668,0.0
23.032,8169.5,3.651777650925169,0.0
23.04,8169.5,5.47411260454237,0.0
23.048,8173.5,6.539101704627228,0.0
23.056,8176.5,7.607635270253013,0.0
23.064,8193.5,11.17217344190476,0.0
23.072,8193.0,14.957365676845939,0.0
23.08,8175.0,11.148643689309665,0.0
23.088,8168.5,2.20053561358327,0.0
23.096,8169.0,-4.650792869326551,0.0
23.104,8162.5,-9.223347090324523,0.0
23.112,8302.5,16.744980212189375,0.0
23.12,8348.5,67.56382283827566,0.0
23.128,8131.0,52.336938189909006,0.0
23.136,8148.0,-5.565429147458417,0.0
23.144,8154.5,-34.16393961170661,0.0
23.152,8153.0,-44.87589093300562,0.0
23.16,8164.5,-42.36419828492876,0.0
23.168,8171.5,-30.676309639459078,0.0
23.176,8178.5,-16.25300939468275,0.0
23.184,8189.5,-1.5815305046037338,0.0
23.192,8206.5,13.055359696037385,0.0
23.2,8226.5,27.29137630093055,0.0
23.208,8244.0,39.2341191826049,0.0
23.216,8259.5,47.090609269016795,0.0
23.224,8258.5,47.55979430839375,0.0
23.232,8223.0,33.1696632923738,0.0
23.24,8179.5,3.4906859410434663,0.0
23.248,8157.0,-28.074495930448848,0.0
23.256,8150.5,-48.41039139600116,0.0
23.264,8148.0,-54.93612712093409,0.0
23.272,8151.5,-50.262170337460475,0.0
23.28,8157.0,-38.03895429122417,0.0
23.288,8158.0,-23.715054652450362,0.0
23.296,8156.0,-11.852742639475082,0.0
23.304,8156.5,-3.346826420006437,0.0
23.312,8155.0,1.9866759744736555,0.0
23.32,8156.0,4.7375465581997105,0.0
23.328,8157.5,6.156890969358528,0.0
23.336,8167.5,8.412291049994337,0.0
23.344,8169.5,10.922338213611283,0.0
23.352,8190.0,15.34758912016946,0.0
23.36,8187.0,19.213063970636995,0.0
23.368,8165.0,13.47865153826342,0.0
23.376,8159.5,2.425534143169898,0.0
23.384,8161.5,-5.194053752992886,0.0
23.392,8147.5,-11.364395507908512,0.0
23.4,8389.5,33.29003898944552,0.0
23.408,8220.5,69.56539525893504,0.0
23.416,8114.0,24.18676902397283,0.0
23.424,8145.0,-21.741787626709765,1.0
23.432,8149.0,-38.45701982878245,0.0
23.44,8156.0,-40.26453339664772,0.0
23.448,8161.0,-32.777305524991334,0.0
23.456,8166.5,-21.234786246394833,0.0
23.464,8175.0,-8.328903594675921,0.0
23.472,8190.5,5.469594007044634,0.0
23.48,8204.0,18.725471633532152,0.0
23.488,8227.0,31.182953369927645,0.0
23.496,8250.0,43.22042165123776,0.0
23.504,8262.5,51.03931373712635,0.0
23.512,8253.0,48.53813369573709,0.0
23.52,8212.0,29.382794328771297,0.0
23.528,8178.0,-1.7229820550987824,0.0
23.536,8162.0,-30.072703725810015,0.0
23.544,8145.5,-48.91908232711444,0.0
23.552,8155.0,-54.07819503607311,0.0
23.56,8156.0,-46.78523445375731,0.0
23.568,8163.5,-33.64243881061134,0.0
23.576,8168.0,-18.31761042160133,0.0
23.584,8162.5,-6.68166704984651,0.0
23.592,8163.5,0.29347655946185114,0.0
23.6,8160.0,3.8633184195741705,0.0
23.608,8165.5,5.79739398602419,0.0
23.616,8172.0,8.513859621449456,0.0
23.624,8180.0,11.791933260512451,0.0
23.632,8187.5,15.109447115027706,0.0
23.64,8163.5,11.409685211805481,0.0
23.648,8159.5,1.771386089253383,0.0
23.656,8156.0,-5.729507344007516,0.0
23.664,8153.5,-10.522667358832223,0.0
23.672,8312.5,20.211105289005673,0.0
23.68,8307.5,66.78509258443682,0.0
23.688,8117.0,44.26265240658745,0.0
23.696,8150.0,-7.945201969190975,0.0
23.704,8153.0,-30.26142490282291,0.0
23.712,8162.5,-36.317452846335755,0.0
23.72,8173.5,-30.204656366463723,0.0
23.728,8177.0,-19.047814228503967,0.0
23.736,8183.5,-7.518794470905959,0.0
23.744,8197.0,4.525403282663547,0.0
23.752,8213.5,17.09124215393922,0.0
23.76,8234.0,29.490554998938933,0.0
23.768,8261.0,42.056661099443545,1.0
23.776,8272.0,50.87538061690907,0.0
23.784,8265.0,49.19465189054358,0.0
23.792,8220.5,30.22068934685899,0.0
23.8,8182.5,-2.4371120398052426,0.0
23.808,8163.5,-33.02653397370682,0.0
23.816,8152.0,-52.341030438656844,0.0
23.824,8155.0,-57.56463079230821,0.0
23.832,8156.5,-51.00702822985909,0.0
23.84,8160.0,-38.374101224120295,0.0
23.848,8163.0,-23.757086968422072,0.0
23.856,8164.0,-10.693550737497162,0.0
23.864,8162.5,-1.4486788464007532,0.0
23.872,8161.0,3.6254574885465445,0.0
23.88,8160.0,5.565879142810672,0.0
23.888,8165.5,6.788942044765463,0.0
23.896,8169.0,8.321683100268501,0.0
23.904,8171.5,9.192283196663084,0.0
23.912,8188.5,12.297362098783424,0.0
23.92,8172.0,12.371425808869162,0.0
23.928,8160.0,4.716999293953222,0.0
23.936,8157.5,-3.487330650162221,0.0
23.944,8159.5,-7.912787776425603,0.0
23.952,8170.5,-6.674413083908803,0.0
23.96,8518.5,68.41387539622337,0.0
23.968,8123.0,92.7443252271944,0.0
23.976,8141.5,16.05076797535753,0.0
23.984,8151.5,-25.916587733635424,0.0
23.992,8158.5,-43.33363809328989,0.0
24.0,8165.5,-44.203950399704354,0.0
24.008,8175.5,-34.543697009133666,0.0
24.016,8178.0,-21.039646573953405,0.0
24.024,8188.5,-7.207603931980202,0.0
24.032,8205.0,7.581523369915885,0.0
24.04,8221.5,21.920267645625472,0.0
24.048,8249.5,36.16819274243994,0.0
24.056,8263.5,47.691501846168876,0.0
24.064,8267.0,50.85103767285341,0.0
24.072,8246.0,41.43469999668764,0.0
24.08,8202.5,16.406500658599725,1.0
24.088,8170.5,-16.307266556626246,0.0
24.096,8157.5,-42.375297556941405,0.0
24.104,8158.0,-53.92105313324441,0.0
24.112,8157.0,-52.67627624824513,0.0
24.12,8161.5,-43.23871912336426,0.0
24.128,8164.0,-29.671757442260514,0.0
24.136,8166.5,-16.128185891052226,0.0
24.144,8172.0,-4.038910059531872,0.0
24.152,8172.5,4.948819120830876,0.0
24.16,8170.0,9.105246300356157,0.0
24.168,8171.0,9.876436432936089,0.0
24.176,8175.0,9.856636787987554,0.0
24.184,8180.5,10.291402661864595,0.0
24.192,8190.5,12.154887141753534,0.0
24.2,8197.0,14.785088031413807,0.0
24.208,8175.5,11.034478275970741,0.0
24.216,8170.5,1.7294448541103975,0.0
24.224,8169.0,-5.363696182583453,0.0
24.232,8169.5,-8.94966927071141,0.0
24.24,8292.0,15.415469044349038,0.0
24.248,8370.5,68.5522702966698,0.0
24.256,8129.5,56.38506967536796,0.0
24.264,8158.5,-2.671009567244937,0.0
24.272,8162.0,-30.551944104103313,0.0
24.28,8165.5,-40.97854170937967,0.0
24.288,8174.5,-38.37822342788422,0.0
24.296,8183.0,-27.446543389889484,0.0
24.304,8190.5,-13.55153270617734,0.0
24.312,8199.0,-0.010660792955604848,0.0
24.32,8215.0,13.004375030437814,0.0
24.328,8240.0,27.106162804718906,0.0
24.336,8262.0,40.93846136029947,0.0
24.344,8271.5,49.347581929392845,0.0
24.352,8269.5,48.37130225963256,0.0
24.36,8234.5,32.90114120145381,0.0
24.368,8194.5,3.441350279406379,0.0
24.376,8172.0,-27.271672345471643,0.0
24.384,8159.5,-48.45112471483617,0.0
24.392,8160.5,-55.98031501081596,0.0
24.4,8164.5,-50.924285100014,0.0
24.408,8163.0,-39.7026825808573,0.0
24.416,8169.5,-26.025345920709697,0.0
24.424,8165.0,-13.582240288742923,0.0
24.432,8164.0,-5.287834719994407,0.0
24.44,8163.0,0.010559568961298282,0.0
24.448,8163.0,2.9381194369198056,0.0
24.456,8164.0,4.428320754106608,0.0
24.464,8165.0,5.046839309062534,0.0
24.472,8174.5,6.79262840844649,0.0
24.48,8199.5,13.843620998753295,0.0
24.488,8192.0,19.489974471442565,0.0
24.496,8163.5,12.519478752563145,0.0
24.504,8170.0,2.0044201891705598,0.0
24.512,8168.0,-3.598708160533306,0.0
24.52,8156.5,-9.12484352289357,0.0
24.528,8428.5,42.21080784732021,0.0
24.536,8224.0,79.96127637221161,0.0
24.544,8140.0,31.222980093056094,0.0
24.552,8157.0,-16.02269552624921,0.0
24.56,8157.0,-38.061366419940214,0.0
24.568,8165.0,-43.69004105356976,0.0
24.576,8172.5,-37.228241257914306,0.0
24.584,8175.0,-25.71949447148768,0.0
24.592,8182.0,-13.073003823260251,0.0
24.6,8198.0,1.0870505424363728,0.0
24.608,8212.5,15.527648797990423,0.0
24.616,8232.5,28.76199839996457,0.0
24.624,8257.0,41.319499168902894,1.0
24.632,8262.0,48.508334950654444,0.0
24.64,8258.0,45.609665259475605,0.0
24.648,8220.5,28.501948968660372,0.0
24.656,8183.5,-1.157169537910704,0.0
24.664,8163.5,-30.16722975120797,0.0
24.672,8155.5,-48.47044650742646,0.0
24.68,8160.0,-52.66129979733205,0.0
24.688,8161.0,-46.03203435483897,0.0
24.696,8161.5,-34.82604671869035,0.0
24.704,8162.5,-22.612353117600833,0.0
24.712,8161.0,-12.063045632665307,0.0
24.72,8164.5,-3.586700825335356,0.0
24.728,8165.5,2.889335409607611,0.0
24.736,8163.0,5.974743973819841,0.0
24.744,8163.5,6.485006154334542,0.0
24.752,8173.0,7.846579131089811,0.0
24.76,8169.5,8.687982077504785,0.0
24.768,8184.0,10.115694828878077,0.0
24.776,8189.0,13.410249133789875,0.0
24.784,8173.0,11.07818199482631,0.0
24.792,8162.5,2.6054463381076403,0.0
24.8,8161.5,-5.149791458742129,0.0
24.808,8160.5,-9.364058784546387,0.0
24.816,8268.5,11.423520506886689,0.0
24.824,8377.5,66.31859895653588,0.0
24.832,8124.0,59.20730634868346,0.0
24.84,8150.0,-0.4532643984682636,0.0
24.848,8159.0,-28.517178498474777,0.0
24.856,8163.0,-38.134679453047056,0.0
24.864,8168.0,-36.20207871676166,0.0
24.872,8174.5,-27.22101990427541,0.0
24.88,8185.5,-14.207344183462283,0.0
24.888,8194.5,-0.27106025631997,0.0
24.896,8208.0,12.60869956389297,0.0
24.904,8223.5,24.238864512378314,0.0
24.912,8246.0,35.20545824999317,0.0
24.92,8263.0,44.42340324940983,0.0
24.928,8260.5,46.102130394706364,0.0
24.936,8229.0,33.15907170163632,0.0
24.944,8189.0,5.869752528879644,0.0
24.952,8166.0,-24.029981538456695,0.0
24.96,8156.5,-44.70918292447823,0.0
24.968,8153.0,-52.81629939339632,0.0
24.976,8156.0,-49.705410716122515,0.0
24.984,8159.0,-39.10390437421006,0.0
24.992,8161.0,-25.884073414783188,0.0
25.0,8164.0,-13.12005200648241,0.0
25.008,8161.5,-3.480125629887425,0.0
25.016,8160.0,1.9313357626983816,0.0
25.024,8161.5,4.838851810843153,0.0
25.032,8163.0,6.4376274315090996,0.0
25.04,8165.5,7.224323690058327,0.0
25.048,8168.5,7.717936350553373,0.0
25.056,8186.5,11.130045125316656,0.0
25.064,8177.5,13.299221834036643,0.0
25.072,8157.0,6.538876039578554,0.0
25.08,8152.5,-3.5580727147007565,0.0
25.088,8157.5,-8.887795328836319,0.0
25.096,8149.5,-11.305192290459445,0.0
25.104,8473.5,53.53822420239544,0.0
25.112,8147.0,83.25873502861964,0.0
25.12,8123.5,16.707100656426746,0.0
25.128,8149.0,-24.77581820693581,1.0
25.136,8156.0,-38.91266476336182,0.0
25.144,8162.5,-38.61549210009457,0.0
25.152,8176.0,-28.499163791700994,0.0
25.16,8180.5,-14.518159450595022,0.0
25.168,8189.0,-1.3927814790549746,0.0
25.176,8199.0,10.360272776245438,0.0
25.184,8216.0,21.256392302778295,0.0
25.192,8241.0,33.0582540757016,0.0
25.2,8259.0,43.81076959651409,0.0
25.208,8264.5,48.32862912995597,0.0
25.216,8250.0,41.83458576946737,0.0
25.224,8212.0,20.925608960384125,0.0
25.232,8176.5,-9.628605353258763,0.0
25.24,8162.0,-36.4535483191396,0.0
25.248,8156.0,-50.97915406008656,0.0
25.256,8157.5,-52.759885571190125,0.0
25.264,8160.5,-44.89463213937074,0.0
25.272,8164.0,-32.10862272364375,0.0
25.28,8160.0,-19.7811020482236,0.0
25.288,8163.5,-9.593728499894041,0.0
25.296,8161.5,-1.8079588619821152,0.0
25.304,8162.0,2.7641891334728825,0.0
25.312,8160.5,4.844765396375806,0.0
25.32,8169.0,6.770796919176519,0.0
25.328,8168.5,8.517722649047982,0.0
25.336,8181.0,10.711074245018608,0.0
25.344,8184.5,13.653106668310329,0.0
25.352,8161.5,9.339181594376669,0.0
25.36,8160.0,0.36663305775982735,0.0
25.368,8160.5,-5.199604078046832,0.0
25.376,8154.5,-8.826800725700195,0.0
25.384,8334.0,25.812521349682584,0.0
25.392,8287.0,69.45453562446141,0.0
25.4,8121.5,41.320298349182394,0.0
25.408,8154.5,-8.65274736580136,0.0
25.416,8158.5,-29.335735083827558,0.0
25.424,8163.5,-35.281268801348006,0.0
25.432,8171.5,-30.792480132426135,0.0
25.44,8180.5,-19.996200454490236,0.0
25.448,8190.5,-6.697922776514815,0.0
25.456,8202.0,6.574608592810819,0.0
25.464,8215.5,18.534694105156404,0.0
25.472,8239.0,30.356921058781154,0.0
25.48,8255.0,40.815981599309225,0.0
25.488,8266.0,46.32939043552392,0.0
25.496,8264.0,44.40463631287048,0.0
25.504,8224.0,27.953438283363766,0.0
25.512,8183.0,-2.562211069535806,0.0
25.52,8164.5,-32.3765533934627,0.0
25.528,8153.0,-51.22906337071299,0.0
25.536,8162.0,-55.12222806394038,0.0
25.544,8164.0,-46.82014976977439,0.0
25.552,8164.5,-34.30107494724393,0.0
25.56,8169.5,-20.57321236872417,0.0
25.568,8168.0,-8.620382356065193,0.0
25.576,8168.0,-0.5509979128503346,0.0
25.584,8170.5,4.815512591702827,0.0
25.592,8172.0,8.07637280539484,0.0
25.6,8169.0,8.473915476928596,0.0
25.608,8177.5,8.547930483210166,0.0
25.616,8183.0,10.155947219595646,0.0
25.624,8187.5,11.610172435590812,0.0
25.632,8197.0,13.570171189517623,0.0
25.64,8175.5,10.22030320226645,0.0
25.648,8172.0,1.5821575891682187,0.0
25.656,8167.0,-5.502858257589423,0.0
25.664,8171.0,-9.062927508617804,0.0
25.672,8240.5,5.221810775842187,0.0
25.68,8442.5,68.3457670958519,0.0
25.688,8134.0,73.557108000266,0.0
25.696,8158.5,7.465526516342834,0.0
25.704,8165.0,-26.419462200335147,0.0
25.712,8175.0,-39.082522752662726,0.0
25.72,8178.5,-37.88800300016419,0.0
25.728,8187.0,-28.98568763141475,0.0
25.736,8194.5,-16.05748743322124,0.0
25.744,8204.5,-2.402002095214357,0.0
25.752,8215.5,10.328318601146975,0.0
25.76,8238.0,23.135191877868237,0.0
25.768,8259.0,36.08867331309216,1.0
25.776,8269.5,44.71334799831857,0.0
25.784,8265.0,44.2607000050275,0.0
25.792,8239.0,31.051385036181046,0.0
25.8,8202.0,5.660709523935793,0.0
25.808,8175.0,-23.288777249996656,0.0
25.816,8172.0,-43.007627211441104,0.0
25.824,8161.0,-51.009070185762084,0.0
25.832,8171.5,-48.109683657453616,0.0
25.84,8169.5,-37.36443833422004,0.0
25.848,8175.5,-24.52762478590944,0.0
25.856,8173.0,-12.502224102491027,0.0
25.864,8166.0,-5.435795050663273,0.0
25.872,8171.0,-0.8411915167964708,0.0
25.88,8170.0,2.820787298594496,0.0
25.888,8167.0,3.741607586124701,0.0
25.896,8167.5,3.2081552513377574,0.0
25.904,8177.5,4.551436871674241,0.0
25.912,8181.0,7.413860982956976,0.0
25.92,8203.5,13.294486480866226,0.0
25.928,8187.5,16.084632991882017,0.0
25.936,8171.5,8.758474444967987,0.0
25.944,8172.0,-0.06875452468625554,0.0
25.952,8168.5,-5.891641660181676,0.0
25.96,8169.5,-8.952797155739063,0.0
25.968,8523.0,63.01883246815464,0.0
25.976,8163.5,94.80253178626572,0.0
25.984,8150.0,23.021968882554802,0.0
25.992,8160.0,-23.634392788035257,0.0
26.0,8159.0,-45.80492782905981,0.0
26.008,8167.5,-50.43972180364949,0.0
26.016,8175.0,-42.264660941220654,0.0
26.024,8186.5,-27.14040629445708,0.0
26.032,8191.0,-10.812327896147508,0.0
26.04,8207.0,4.671514180354052,0.0
26.048,8227.0,20.475205842708192,0.0
26.056,8247.5,34.991383537738784,0.0
26.064,8259.0,44.808746708675926,0.0
26.072,8267.0,47.80505027709455,1.0
26.08,8252.5,41.001294022222055,0.0
26.088,8210.0,19.116136673259916,0.0
26.096,8180.5,-11.434600609102063,0.0
26.104,8167.5,-36.45142088436364,0.0
26.112,8161.5,-49.60157715472292,0.0
26.12,8163.0,-50.777727035530916,0.0
26.128,8164.0,-43.26404530322725,0.0
26.136,8166.0,-31.648223906988733,0.0
26.144,8162.0,-20.389003628481305,0.0
26.152,8163.0,-11.252008179519862,0.0
26.16,8162.0,-4.142466881481823,0.0
26.168,8162.5,0.5880005839583191,0.0
26.176,8164.0,3.705045063992202,0.0
26.184,8163.0,5.088881878776647,0.0
26.192,8168.0,5.952949427550266,0.0
26.2,8172.5,7.502277983557406,0.0
26.208,8181.0,9.93702515802488,0.0
26.216,8190.5,13.547775155130239,0.0
26.224,8166.0,10.564651761928644,0.0
26.232,8163.0,1.5804389302318214,0.0
26.24,8162.0,-4.789626220746186,0.0
26.248,8162.0,-8.035009204358403,0.0
26.256,8251.0,9.446652248583177,0.0
26.264,8378.0,62.482032076253745,0.0
26.272,8121.0,57.81494754547725,0.0
26.28,8146.0,-1.1083782545315444,0.0
26.288,8152.0,-29.454167212223865,0.0
26.296,8158.5,-39.19846035635851,0.0
26.304,8165.5,-36.26020886134938,0.0
26.312,8171.0,-26.471295807712977,0.0
26.32,8181.0,-13.502125091499693,0.0
26.328,8187.5,-0.4141337741330062,0.0
26.336,8202.5,11.78133800491878,0.0
26.344,8217.0,23.234404324208526,0.0
26.352,8243.0,34.7593023058771,0.0
26.36,8257.0,44.47722043427393,0.0
26.368,8258.5,46.64777236763848,0.0
26.376,8226.0,34.52575475274375,0.0
26.384,8189.0,7.923394286498706,1.0
26.392,8160.5,-22.39218192563567,0.0
26.4,8155.0,-43.87207266000905,0.0
26.408,8151.5,-51.76242798922567,0.0
26.416,8153.0,-48.98957771194932,0.0
26.424,8156.0,-39.002966691702795,0.0
26.432,8157.0,-26.366387980175887,0.0
26.44,8155.0,-15.099981354434703,0.0
26.448,8154.0,-6.76061411713772,0.0
26.456,8152.0,-1.4166396553093819,0.0
26.464,8150.5,1.2435044392971122,0.0
26.472,8157.0,3.649683442166406,0.0
26.48,8162.0,6.868818128319845,0.0
26.488,8164.0,9.161320940590485,0.0
26.496,8186.5,14.133509129714412,0.0
26.504,8170.0,16.157051164869017,0.0
