Time_Seconds,ECG_Raw,ECG_Filtered,R_Peak_Marker
0.0,8222.0,76.06950896749413,0.0
0.008,8180.0,177.0127300657366,0.0
0.016,8153.0,195.77640848871715,0.0
0.024,8143.0,169.63207210691849,0.0
0.032,8141.0,126.00052040187802,0.0
0.04,8146.0,81.70662899088802,0.0
0.048,8148.0,44.553711026543624,0.0
0.056,8150.0,16.64387140985059,0.0
0.064,8151.0,-1.772466615586609,0.0
0.072,8151.0,-12.190830878162387,0.0
0.08,8151.0,-16.503960472069366,0.0
0.088,8152.0,-16.34824216737843,0.0
0.096,8157.0,-12.55175919430826,0.0
0.104,8156.0,-7.586327277522969,0.0
0.112,8164.0,-2.0694964975743915,0.0
0.12,8167.0,3.754217294216005,0.0
0.128,8189.0,11.736688982608484,0.0
0.136,8179.0,17.12969888737757,0.0
0.144,8166.0,13.02313255398667,0.0
0.152,8170.0,6.781347962440577,0.0
0.16,8174.0,3.6962410450557854,0.0
0.168,8172.0,1.7199217779159426,0.0
0.176,8466.0,59.94621007458704,0.0
0.184,8187.0,88.35710032513794,0.0
0.192,8167.0,30.677328185482793,0.0
0.2,8190.0,-7.472536546006722,0.0
0.208,8199.0,-22.363752534464084,0.0
0.216,8209.0,-23.89806860451631,0.0
0.224,8218.0,-17.300515656539574,0.0
0.232,8233.0,-5.872551556947201,0.0
0.24,8248.0,7.905300432942568,0.0
0.248,8271.0,22.61839385337339,0.0
0.256,8296.0,37.6969171288672,0.0
0.264,8318.0,50.50117208640654,0.0
0.272,8333.0,57.97614408083746,0.0
0.28,8330.0,56.058572324260695,0.0
0.288,8300.0,39.68345509668029,0.0
0.296,8255.0,8.660195746591853,0.0
0.304,8235.0,-24.27945016316653,0.0
0.312,8227.0,-45.799274303743005,0.0
0.32,8227.0,-53.21675884239289,0.0
0.328,8234.0,-48.10505241695432,0.0
0.336,8236.0,-35.94999649236388,0.0
0.344,8236.0,-22.90247100577585,1.0
0.352,8241.0,-10.69239688851485,0.0
0.36,8237.0,-1.645984785095834,0.0
0.368,8243.0,4.362200789302733,0.0
0.376,8242.0,8.275574825632475,0.0
0.384,8238.0,8.313758833545307,0.0
0.392,8247.0,8.097380943991766,0.0
0.4,8248.0,8.784765131515314,0.0
0.408,8257.0,9.902417165131055,0.0
0.416,8262.0,11.922282950316458,0.0
0.424,8244.0,8.65335871021989,0.0
0.432,8237.0,0.3006503761246222,0.0
0.44,8234.0,-6.727717951121349,0.0
0.448,8236.0,-10.06858276536309,0.0
0.456,8290.0,0.9229974435236272,0.0
0.464,8458.0,52.638245545980226,0.0
0.472,8185.0,53.790392125636345,0.0
0.48,8214.0,-3.5328897754782247,0.0
0.488,8221.0,-29.543326723467317,0.0
0.496,8224.0,-38.40373096558028,0.0
0.504,8229.0,-36.18689392095462,0.0
0.512,8240.0,-26.120686709234405,0.0
0.52,8242.0,-13.551433223562299,0.0
0.528,8257.0,-0.5903261900557482,0.0
0.536,8271.0,13.089075464891039,0.0
0.544,8292.0,26.345121565254885,0.0
0.552,8309.0,37.95392530530057,0.0
0.56,8309.0,42.538203647613045,0.0
0.568,8288.0,34.509727219836805,0.0
0.576,8243.0,11.045763111259475,0.0
0.584,8205.0,-21.46242306279305,0.0
0.592,8188.0,-48.67029944220212,0.0
0.6,8180.0,-62.489521411621354,0.0
0.608,8180.0,-62.82244405704819,0.0
0.616,8183.0,-52.88180744579381,0.0
0.624,8178.0,-39.39402679292584,0.0
0.632,8179.0,-26.261979399886513,0.0
0.64,8173.0,-15.53558628308565,0.0
0.648,8172.0,-8.266742593076515,0.0
0.656,8169.0,-3.531827962051011,0.0
0.664,8167.0,-1.2176445698673888,0.0
0.672,8164.0,-0.6859351591699578,0.0
0.68,8171.0,0.5497160734876161,0.0
0.688,8171.0,2.6272405001891457,0.0
0.696,8182.0,5.7048734180473275,0.0
0.704,8179.0,8.294460898794114,0.0
0.712,8158.0,3.6651807068126345,0.0
0.72,8156.0,-4.32717158280775,0.0
0.728,8154.0,-9.214988560292113,0.0
0.736,8147.0,-12.54724184682209,0.0
0.744,8323.0,21.911218324818492,0.0
0.752,8235.0,56.94636807402162,0.0
0.76,8109.0,25.311979911599337,0.0
0.768,8141.0,-16.43841750325555,0.0
0.776,8145.0,-31.282445905971144,0.0
0.784,8147.0,-34.0925868448453,0.0
0.792,8152.0,-29.155555216623952,0.0
0.8,8161.0,-18.955265003065733,0.0
0.808,8170.0,-6.371573437163761,0.0
0.816,8183.0,6.531024883798182,0.0
0.824,8201.0,19.504745351740212,0.0
0.832,8223.0,32.39226560097154,1.0
0.84,8238.0,42.66200452279941,0.0
0.848,8238.0,45.3319601095468,0.0
0.856,8211.0,34.52198495862649,0.0
0.864,8169.0,8.798286199976928,0.0
0.872,8143.0,-21.641046928443757,0.0
0.88,8132.0,-43.92091070355923,0.0
0.888,8129.0,-53.29846846787518,0.0
0.896,8132.0,-50.763663743139205,0.0
0.904,8133.0,-40.751010499670656,0.0
0.912,8134.0,-28.24260803459015,0.0
0.92,8133.0,-16.5632466992256,0.0
0.928,8133.0,-7.349208780972731,0.0
0.936,8132.0,-0.990115973311049,0.0
0.944,8128.0,1.8992501763950713,0.0
0.952,8132.0,3.3200678094331124,0.0
0.96,8132.0,4.4741788442149755,0.0
0.968,8133.0,4.682680708189764,0.0
0.976,8143.0,6.343347766859324,0.0
0.984,8144.0,8.611046199899647,0.0
0.992,8163.0,12.73263955652942,0.0
1.0,8148.0,14.056927923857074,0.0
1.008,8137.0,7.397092255454481,0.0
1.016,8133.0,-0.7275224412319403,0.0
1.024,8135.0,-5.8307068378273925,0.0
1.032,8138.0,-6.943213576160815,0.0
1.04,8463.0,60.46219527552739,0.0
1.048,8124.0,88.29864893802528,0.0
1.056,8121.0,21.503082422515945,0.0
1.064,8130.0,-20.0340216560312,0.0
1.072,8137.0,-38.29278918712157,0.0
1.08,8146.0,-40.016542186160905,0.0
1.088,8152.0,-31.9044743739546,0.0
1.096,8161.0,-19.205403580212305,0.0
1.104,8173.0,-4.493110864980508,0.0
1.112,8186.0,9.996444041059704,0.0
1.12,8207.0,23.99619204184205,0.0
1.128,8226.0,36.8095469496011,0.0
1.136,8236.0,44.73130602464039,0.0
1.144,8228.0,43.0430289523531,1.0
1.152,8193.0,26.73381798382502,0.0
1.16,8154.0,-2.082845852025912,0.0
1.168,8132.0,-31.27153960371743,0.0
1.176,8124.0,-49.92157518031695,0.0
1.184,8124.0,-55.01688202301466,0.0
1.192,8126.0,-49.280427736148795,0.0
1.2,8131.0,-36.98629783297065,0.0
1.208,8133.0,-22.677904588032106,0.0
1.216,8128.0,-11.39060887114556,0.0
1.224,8129.0,-3.8055733360238264,0.0
1.232,8129.0,1.4614748357730605,0.0
1.24,8128.0,4.1505207814345795,0.0
1.248,8128.0,4.907249355214844,0.0
1.256,8132.0,5.42798375857592,0.0
1.264,8139.0,7.160307886689452,0.0
1.272,8144.0,9.550824219633341,0.0
1.28,8160.0,13.806871263653647,0.0
1.288,8149.0,15.252109937880277,0.0
1.296,8134.0,8.482600380955773,0.0
1.304,8129.0,-0.8929552386859996,0.0
1.312,8130.0,-7.1194641186402805,0.0
1.32,8124.0,-10.743920531940375,0.0
1.328,8421.0,48.19302696009822,0.0
1.336,8124.0,75.74160881121588,0.0
1.344,8110.0,17.01291643424497,0.0
1.352,8126.0,-19.88989271165474,0.0
1.36,8132.0,-34.20399256306632,0.0
1.368,8140.0,-34.62338707832805,0.0
1.376,8152.0,-25.536085659982973,0.0
1.384,8160.0,-12.204282095975032,0.0
1.392,8172.0,1.6164542576170788,0.0
1.4,8183.0,14.243860365937053,0.0
1.408,8218.0,28.949988080179537,0.0
1.416,8238.0,44.49455319904064,0.0
1.424,8249.0,53.27500948168131,0.0
1.432,8243.0,51.41214070577007,0.0
1.44,8210.0,34.54802366235822,0.0
1.448,8167.0,3.809861824415975,1.0
1.456,8145.0,-28.225810013288992,0.0
1.464,8130.0,-50.45141806262154,0.0
1.472,8134.0,-58.19388460896084,0.0
1.48,8135.0,-52.92838264212878,0.0
1.488,8134.0,-41.78980591242885,0.0
1.496,8137.0,-28.45804050782249,0.0
1.504,8140.0,-15.033276635824222,0.0
1.512,8131.0,-6.0404761769491415,0.0
1.52,8135.0,-0.8278454455910378,0.0
1.528,8136.0,3.4019110378917503,0.0
1.536,8133.0,4.979010532738357,0.0
1.544,8134.0,4.7482261590089365,0.0
1.552,8138.0,4.913357651098295,0.0
1.56,8142.0,5.9004997231006655,0.0
1.568,8162.0,10.492928295881484,0.0
1.576,8158.0,14.886844388907775,0.0
1.584,8135.0,9.712255540595834,0.0
1.592,8140.0,1.5021048108394552,0.0
1.6,8136.0,-3.3768007905546256,0.0
1.608,8131.0,-7.58892208073371,0.0
1.616,8348.0,34.382381247083686,0.0
1.624,8157.0,59.30318744451938,0.0
1.632,8100.0,14.383643518666304,0.0
1.64,8136.0,-18.65274814936697,0.0
1.648,8145.0,-26.168901837884277,0.0
1.656,8156.0,-22.560411849612137,0.0
1.664,8161.0,-13.737118903113469,0.0
1.672,8168.0,-3.9847187376271904,0.0
1.68,8178.0,5.860079049673914,0.0
1.688,8194.0,16.105640509543036,0.0
1.696,8215.0,27.282173961458966,0.0
1.704,8238.0,38.74489409156354,0.0
1.712,8251.0,47.00457428532013,0.0
1.72,8249.0,47.01019632347038,0.0
1.728,8223.0,34.16579746098614,0.0
1.736,8182.0,7.70154775076162,0.0
1.744,8150.0,-24.03097161682649,0.0
1.752,8137.0,-48.347689404072526,0.0
1.76,8144.0,-56.624280776446085,0.0
1.768,8141.0,-52.11693064325664,0.0
1.776,8149.0,-40.52824523756158,0.0
1.784,8150.0,-25.691448023025032,0.0
1.792,8151.0,-12.613262193123319,0.0
1.8,8150.0,-2.9665252252600567,0.0
1.808,8150.0,2.98399852906482,0.0
1.816,8151.0,6.255019893087365,0.0
1.824,8150.0,7.24116168841897,0.0
1.832,8151.0,6.726518737611286,0.0
1.84,8156.0,6.628145053849039,0.0
1.848,8164.0,8.22097271006669,0.0
1.856,8171.0,10.98108422565474,0.0
1.864,8177.0,13.60445835802716,0.0
1.872,8160.0,10.846011960794158,0.0
1.88,8156.0,3.279970564887435,0.0
1.888,8153.0,-3.121961866051379,0.0
1.896,8156.0,-6.43472788259669,0.0
1.904,8269.0,16.28058407460844,0.0
1.912,8291.0,54.82666468503203,0.0
1.92,8109.0,36.62225181165741,0.0
1.928,8154.0,-7.685386523355874,0.0
1.936,8155.0,-23.325817560089945,0.0
1.944,8163.0,-27.20036600394701,0.0
1.952,8173.0,-21.690456183702054,0.0
1.96,8181.0,-11.465960582105026,0.0
1.968,8195.0,0.8137823575673337,0.0
1.976,8210.0,13.877346981542132,0.0
1.984,8224.0,25.423871864991725,0.0
1.992,8247.0,35.95703907987627,1.0
2.0,8262.0,44.49825658677378,0.0
2.008,8264.0,46.27617161992475,0.0
2.016,8241.0,36.02129649208018,0.0
2.024,8204.0,12.23727706508862,0.0
2.032,8165.0,-19.21073110593079,0.0
2.04,8161.0,-43.681393148995994,0.0
2.048,8155.0,-53.573695788436,0.0
2.056,8157.0,-52.11878592100584,0.0
2.064,8162.0,-41.92642572562022,0.0
2.072,8161.0,-28.724936394605947,0.0
2.08,8162.0,-16.562557956824094,0.0
2.088,8160.0,-7.062968941981353,0.0
2.096,8163.0,-0.16979737617066348,0.0
2.104,8161.0,4.136857034489594,0.0
2.112,8156.0,4.626503227195144,0.0
2.12,8157.0,3.397443383085374,0.0
2.128,8167.0,4.402795966307167,0.0
2.136,8172.0,7.394356354333013,0.0
2.144,8172.0,9.063992655030233,0.0
2.152,8187.0,11.741716902118014,0.0
2.16,8172.0,11.545135731961409,0.0
2.168,8162.0,4.570978494857172,0.0
2.176,8161.0,-2.493849958106466,0.0
2.184,8164.0,-5.885279119771894,0.0
2.192,8218.0,4.646460031530523,0.0
2.2,8398.0,57.97684790410153,0.0
2.208,8115.0,59.68339199814909,0.0
2.216,8152.0,1.3859298859333649,0.0
2.224,8161.0,-23.903378509683762,0.0
2.232,8165.0,-32.579488762056144,0.0
2.24,8174.0,-30.115180298557334,0.0
2.248,8182.0,-20.618861525853617,0.0
2.256,8194.0,-7.790674991835203,0.0
2.264,8207.0,6.084572269110367,0.0
2.272,8221.0,18.883999905525798,0.0
2.28,8246.0,31.558255173828456,0.0
2.288,8268.0,43.87132360549981,0.0
2.296,8269.0,49.20076044303528,0.0
2.304,8254.0,42.03295303947948,1.0
2.312,8211.0,19.571783932886547,0.0
2.32,8176.0,-12.614492201905477,0.0
2.328,8160.0,-40.15623897240971,0.0
2.336,8160.0,-53.62503598469539,0.0
2.344,8164.0,-52.64306861900809,0.0
2.352,8161.0,-43.876723339888485,0.0
2.36,8165.0,-31.835791213719176,0.0
2.368,8164.0,-19.275219611221473,0.0
2.376,8169.0,-8.107364168093454,0.0
2.384,8166.0,0.13506088116901083,0.0
2.392,8165.0,4.171937345862716,0.0
2.4,8165.0,5.7225236626075,0.0
2.408,8168.0,6.384838194035183,0.0
2.416,8168.0,6.4214155554561785,0.0
2.424,8175.0,6.899590723595566,0.0
2.432,8178.0,8.179331579893642,0.0
2.44,8188.0,10.351995716408055,0.0
2.448,8195.0,13.540534977893458,0.0
2.456,8175.0,10.71741619663203,0.0
2.464,8173.0,2.9283234708527743,0.0
2.472,8170.0,-3.143605650137033,0.0
2.48,8163.0,-8.300935043085474,0.0
2.488,8349.0,26.477396138433505,0.0
2.496,8235.0,57.74061743343941,0.0
2.504,8130.0,22.733595302318918,0.0
2.512,8162.0,-16.330141430534923,0.0
2.52,8167.0,-29.397398241502742,0.0
2.528,8173.0,-30.421050744743525,0.0
2.536,8183.0,-23.14543359184063,0.0
2.544,8191.0,-11.65610983579677,0.0
2.552,8199.0,0.17467431469844996,0.0
2.56,8211.0,11.230914355198138,0.0
2.568,8229.0,22.19584203680438,0.0
2.576,8254.0,34.100265995054315,0.0
2.584,8268.0,43.9382520196516,0.0
2.592,8269.0,46.159375470090254,0.0
2.6,8242.0,35.162816622969785,0.0
2.608,8200.0,9.231614929636635,0.0
2.616,8171.0,-22.009035315366873,0.0
2.624,8164.0,-44.50270450487915,0.0
2.632,8159.0,-53.50989798272258,0.0
2.64,8164.0,-50.72400521949612,0.0
2.648,8166.0,-39.95596915139981,0.0
2.656,8166.0,-27.121372181804873,0.0
2.664,8168.0,-15.010490895392877,0.0
2.672,8169.0,-4.959465600063822,0.0
2.68,8165.0,1.1237052404501355,0.0
2.688,8164.0,3.5294113472343724,0.0
2.696,8162.0,3.804139080289133,0.0
2.704,8167.0,4.002762694981811,0.0
2.712,8166.0,4.330565599404508,0.0
2.72,8171.0,4.685066133286,0.0
2.728,8176.0,6.2274140817437456,0.0
2.736,8178.0,7.625512405948257,0.0
2.744,8191.0,10.360740126217934,0.0
2.752,8172.0,9.181733849046168,0.0
2.76,8165.0,1.7805908207772063,0.0
2.768,8167.0,-3.8878956716976063,0.0
2.776,8168.0,-6.037875890880059,0.0
2.784,8226.0,5.659791238625303,0.0
2.792,8406.0,60.34327732073484,0.0
2.8,8128.0,63.51276695504157,0.0
2.808,8155.0,4.478405858636506,0.0
2.816,8161.0,-24.371469956696956,0.0
2.824,8169.0,-34.878024898364174,0.0
2.832,8176.0,-32.73915154887072,0.0
2.84,8182.0,-23.85467284975971,0.0
2.848,8189.0,-12.327846106173638,0.0
2.856,8202.0,0.44416369393684363,0.0
2.864,8217.0,13.650591855512857,0.0
2.872,8239.0,26.95039134758099,0.0
2.88,8258.0,39.10620720096381,0.0
2.888,8263.0,45.26939383909166,0.0
2.896,8246.0,39.59930792261912,1.0
2.904,8206.0,18.59715898382069,0.0
2.912,8175.0,-11.148384612740756,0.0
2.92,8158.0,-36.85606292670468,0.0
2.928,8153.0,-50.966345465304585,0.0
2.936,8156.0,-51.99264539264618,0.0
2.944,8163.0,-42.67389049945973,0.0
2.952,8165.0,-28.854221300044856,0.0
2.96,8164.0,-16.102350365247048,0.0
2.968,8165.0,-6.119608538137072,0.0
2.976,8165.0,0.916274232171645,0.0
2.984,8162.0,4.325463241456873,0.0
2.992,8163.0,5.277259069668162,0.0
3.0,8163.0,5.244355612700474,0.0
3.008,8165.0,4.8383919986054025,0.0
3.016,8166.0,4.477650922589419,0.0
3.024,8178.0,6.241355229163446,0.0
3.032,8178.0,8.78975381762848,0.0
3.04,8198.0,13.050258599195786,0.0
3.048,8181.0,14.204243334046168,0.0
3.056,8167.0,6.399851501639887,0.0
3.064,8167.0,-2.0461575300405457,0.0
3.072,8169.0,-6.322290065363859,0.0
3.08,8166.0,-8.096954822537782,0.0
3.088,8486.0,56.84446659224227,0.0
3.096,8170.0,87.4496273542336,0.0
3.104,8151.0,23.85029711648008,0.0
3.112,8161.0,-19.21693591411099,0.0
3.12,8166.0,-38.70879985209308,0.0
3.128,8173.0,-41.91593520330616,0.0
3.136,8183.0,-33.984565219238675,0.0
3.144,8192.0,-20.25978920151897,0.0
3.152,8201.0,-5.393941275104453,0.0
3.16,8215.0,8.914400804178513,0.0
3.168,8235.0,22.971030364542003,0.0
3.176,8257.0,36.38205319220879,0.0
3.184,8265.0,44.926386013597494,0.0
3.192,8261.0,43.98532324817916,0.0
3.2,8227.0,28.996654772785632,0.0
3.208,8188.0,0.8221856480909082,0.0
3.216,8164.0,-28.83575392362127,0.0
3.224,8157.0,-48.33689538871249,0.0
3.232,8157.0,-53.971500187561105,0.0
3.24,8161.0,-48.30387639966557,0.0
3.248,8166.0,-35.789907800811534,0.0
3.256,8165.0,-22.145791637008642,0.0
3.264,8166.0,-10.719120422032347,0.0
3.272,8164.0,-2.5405615489951288,0.0
3.28,8163.0,2.0685013307163445,0.0
3.288,8165.0,4.684985126340507,0.0
3.296,8164.0,5.726371109592719,0.0
3.304,8166.0,5.6783604362838105,0.0
3.312,8167.0,5.401963009631572,0.0
3.32,8175.0,6.258208091702045,0.0
3.328,8178.0,8.063080873650051,0.0
3.336,8181.0,9.133826374387581,0.0
3.344,8194.0,11.65108079787592,0.0
3.352,8174.0,9.943233771715086,0.0
3.36,8166.0,1.705281171120987,0.0
3.368,8168.0,-4.650976115359526,0.0
3.376,8169.0,-7.092010845999539,0.0
3.384,8272.0,13.786883520423089,0.0
3.392,8369.0,64.90453781303336,0.0
3.4,8139.0,58.12313062581052,0.0
3.408,8162.0,3.01019430735073,0.0
3.416,8165.0,-24.72806492810173,0.0
3.424,8175.0,-34.72744847461604,0.0
3.432,8181.0,-32.10716313701664,0.0
3.44,8188.0,-23.033795084690382,0.0
3.448,8198.0,-10.702510950206943,0.0
3.456,8210.0,2.7074352790098146,0.0
3.464,8228.0,16.356600954897885,0.0
3.472,8249.0,29.916573411864192,1.0
3.48,8266.0,41.16364444267356,0.0
3.488,8270.0,45.86456664724187,0.0
3.496,8249.0,38.21796061113014,0.0
3.504,8208.0,15.234825367683925,0.0
3.512,8177.0,-15.376801624474638,0.0
3.52,8162.0,-40.547000653188206,0.0
3.528,8160.0,-52.758324981863325,0.0
3.536,8163.0,-51.776996435287856,0.0
3.544,8164.0,-42.529433245548034,0.0
3.552,8169.0,-29.386670599875742,0.0
3.56,8167.0,-16.545793837807423,0.0
3.568,8166.0,-7.056085319472913,0.0
3.576,8165.0,-0.7827031743318003,0.0
3.584,8165.0,2.841730899546974,0.0
3.592,8165.0,4.554375288932761,0.0
3.6,8164.0,4.672432481805799,0.0
3.608,8165.0,4.033855395874298,0.0
3.616,8167.0,3.657524341400631,0.0
3.624,8173.0,4.514845508964299,0.0
3.632,8176.0,6.176067382772544,0.0
3.64,8187.0,9.08235808618906,0.0
3.648,8190.0,12.284352467855797,0.0
3.656,8169.0,8.638138996822818,0.0
3.664,8166.0,0.26891074604759524,0.0
3.672,8167.0,-5.130008735728552,0.0
3.68,8159.0,-8.975256710440817,0.0
3.688,8348.0,27.089874031433283,0.0
3.696,8283.0,69.64489045068422,0.0
3.704,8144.0,42.57550140372018,0.0
3.712,8160.0,-5.017240592516828,0.0
3.72,8163.0,-28.521121191282646,0.0
3.728,8169.0,-36.25843138932896,0.0
3.736,8177.0,-32.47684617051732,0.0
3.744,8188.0,-21.434834025738382,0.0
3.752,8198.0,-7.364515093114051,0.0
3.76,8212.0,6.976415525474522,0.0
3.768,8230.0,20.937537688863586,0.0
3.776,8251.0,33.987476618418896,1.0
3.784,8265.0,43.7028152121527,0.0
3.792,8267.0,46.091400997464234,0.0
3.8,8246.0,36.634290601595694,0.0
3.808,8205.0,12.820529130837485,0.0
3.816,8174.0,-17.916293036198567,0.0
3.824,8164.0,-41.754011290603785,0.0
3.832,8161.0,-52.17710832933221,0.0
3.84,8162.0,-50.83924688935349,0.0
3.848,8167.0,-41.11440298549837,0.0
3.856,8166.0,-28.312514250637832,0.0
3.864,8165.0,-16.857588660278907,0.0
3.872,8166.0,-7.527355131764352,0.0
3.88,8163.0,-1.2768361665289376,0.0
3.888,8163.0,2.000391405947312,0.0
3.896,8165.0,4.0438570893657015,0.0
3.904,8167.0,5.456466156580518,0.0
3.912,8167.0,5.873217804121168,0.0
3.92,8167.0,5.2292348979535745,0.0
3.928,8177.0,6.09857897826214,0.0
3.936,8176.0,7.526798495347521,0.0
3.944,8197.0,11.316310154944176,0.0
3.952,8176.0,11.841734911800131,0.0
3.96,8162.0,3.2065946100658493,0.0
3.968,8162.0,-5.246582260522018,0.0
3.976,8165.0,-8.83743085439346,0.0
3.984,8164.0,-9.212592314440826,0.0
3.992,8504.0,61.22025498981202,0.0
4.0,8178.0,96.45262304210564,0.0
4.008,8152.0,30.7517411414276,0.0
4.016,8154.0,-17.669198817684673,0.0
4.024,8161.0,-41.78769636536117,0.0
4.032,8167.0,-47.05991732849634,0.0
4.04,8174.0,-40.38715046099196,0.0
4.048,8182.0,-27.253206053290114,0.0
4.056,8192.0,-11.676490425666998,0.0
4.064,8208.0,4.617668720192569,0.0
4.072,8227.0,20.704443344499623,0.0
4.08,8248.0,35.25113031331853,1.0
4.088,8257.0,44.63855429278419,0.0
4.096,8251.0,44.035432110320926,0.0
4.104,8214.0,28.21751992209738,0.0
4.112,8173.0,-1.3507406489145524,0.0
4.12,8149.0,-31.912126558073396,0.0
4.128,8143.0,-51.276849470147226,0.0
4.136,8145.0,-55.772142348329226,0.0
4.144,8149.0,-48.74913111481942,0.0
4.152,8147.0,-36.79618851485429,0.0
4.16,8149.0,-24.148501465232812,0.0
4.168,8146.0,-13.211783161082394,0.0
4.176,8145.0,-5.557967011356823,0.0
4.184,8147.0,0.015441468035305661,0.0
4.192,8146.0,3.5135057699067147,0.0
4.2,8147.0,5.04956628483842,0.0
4.208,8149.0,5.805318562724551,0.0
4.216,8149.0,5.780716045509735,0.0
4.224,8151.0,5.298343020970378,0.0
4.232,8158.0,6.048484487378346,0.0
4.24,8157.0,6.800900218326433,0.0
4.248,8182.0,11.118000677049622,0.0
4.256,8163.0,13.211311583316501,0.0
4.264,8153.0,6.521577522165217,0.0
4.272,8150.0,-1.0793790184213776,0.0
4.28,8152.0,-5.615226410270907,0.0
4.288,8152.0,-7.037782828445643,0.0
4.296,8485.0,61.22010509012557,0.0
4.304,8173.0,96.59633424402955,0.0
4.312,8140.0,32.388849017273515,0.0
4.32,8141.0,-17.03151008283271,0.0
4.328,8143.0,-43.063548547796245,0.0
4.336,8150.0,-50.091203501609016,0.0
4.344,8160.0,-43.17981534143587,0.0
4.352,8167.0,-29.072748087023456,0.0
4.36,8179.0,-12.440364338619247,0.0
4.368,8191.0,4.185325846462547,0.0
4.376,8210.0,19.716512366406732,0.0
4.384,8232.0,34.28870826784282,1.0
4.392,8243.0,44.450035202920844,0.0
4.4,8238.0,44.946082144653474,0.0
4.408,8205.0,30.661655591853105,0.0
4.416,8164.0,2.446939377904755,0.0
4.424,8144.0,-27.0725324506152,0.0
4.432,8138.0,-45.7376053866019,0.0
4.44,8139.0,-50.863242032046855,0.0
4.448,8141.0,-45.57016476622766,0.0
4.456,8143.0,-34.71366943547082,0.0
4.464,8142.0,-22.825853142345068,0.0
4.472,8140.0,-12.947651897055493,0.0
4.48,8138.0,-5.959886408160855,0.0
4.488,8136.0,-1.7409475884344374,0.0
4.496,8136.0,0.6094724292390765,0.0
4.504,8137.0,2.111404562924463,0.0
4.512,8138.0,3.088132545656663,0.0
4.52,8139.0,3.6061721684034183,0.0
4.528,8147.0,5.20450909987585,0.0
4.536,8151.0,7.812307806914532,0.0
4.544,8167.0,12.256134073159956,0.0
4.552,8167.0,16.294844199301906,0.0
4.56,8145.0,11.718221858726565,0.0
4.568,8144.0,2.5360752431404308,0.0
4.576,8146.0,-3.074429244678413,0.0
4.584,8135.0,-7.765060005563555,0.0
4.592,8349.0,32.11125077989027,0.0
4.6,8252.0,74.72878703895344,0.0
4.608,8127.0,43.24817855436709,0.0
4.616,8139.0,-5.012328897902535,0.0
4.624,8141.0,-29.93337367886761,0.0
4.632,8149.0,-38.09037746702802,0.0
4.64,8157.0,-33.87065204819896,0.0
4.648,8167.0,-22.56250791294292,0.0
4.656,8180.0,-7.7552286395280134,0.0
4.664,8193.0,7.48937754366375,0.0
4.672,8210.0,21.498559200868385,0.0
4.68,8234.0,34.90046460121448,0.0
4.688,8248.0,45.29843830380287,0.0
4.696,8250.0,47.848818072511904,1.0
4.704,8226.0,37.608044726589924,0.0
4.712,8187.0,12.978892835788656,0.0
4.72,8158.0,-17.446956391118874,0.0
4.728,8149.0,-40.55902026369745,0.0
4.736,8150.0,-49.71263712054861,0.0
4.744,8151.0,-47.18044682124082,0.0
4.752,8154.0,-37.71259772442022,0.0
4.76,8156.0,-25.374148301149944,0.0
4.768,8154.0,-14.230189267900869,0.0
4.776,8154.0,-5.890807257521601,0.0
4.784,8157.0,0.5471079002261376,0.0
4.792,8158.0,5.08873559272206,0.0
4.8,8154.0,6.39023186922941,0.0
4.808,8154.0,5.373896746009677,0.0
4.816,8158.0,4.775294949534782,0.0
4.824,8159.0,4.71879587604667,0.0
4.832,8167.0,5.808664682849212,0.0
4.84,8166.0,7.002654940205275,0.0
4.848,8187.0,10.733110151421897,0.0
4.856,8172.0,12.537833972186718,0.0
4.864,8159.0,5.983837963956148,0.0
4.872,8161.0,-1.0467140030923474,0.0
4.88,8156.0,-5.658779121005637,0.0
4.888,8167.0,-6.3026041744999475,0.0
4.896,8480.0,60.46565500902511,0.0
4.904,8155.0,88.33337652034197,0.0
4.912,8149.0,23.798345714993957,0.0
4.92,8159.0,-17.158471927100436,0.0
4.928,8164.0,-35.71432712101,0.0
4.936,8174.0,-38.20900338238903,0.0
4.944,8177.0,-31.235504183071725,0.0
4.952,8191.0,-18.90260311845509,0.0
4.96,8204.0,-3.226965755658057,0.0
4.968,8219.0,12.253249516200867,0.0
4.976,8244.0,27.722519021755033,0.0
4.984,8265.0,42.06579631683326,0.0
4.992,8284.0,52.34274859074117,0.0
5.0,8275.0,52.5277509534244,1.0
5.008,8249.0,37.52280514083873,0.0
5.016,8207.0,9.067548713291217,0.0
5.024,8183.0,-22.6194448439187,0.0
5.032,8178.0,-43.854429672845754,0.0
5.04,8175.0,-51.39832211413568,0.0
5.048,8178.0,-48.06717535589473,0.0
5.056,8173.0,-39.21819115989365,0.0
5.064,8178.0,-28.0389758041606,0.0
5.072,8174.0,-16.972265759365655,0.0
5.08,8172.0,-9.080040808477406,0.0
5.088,8175.0,-2.8316497967764462,0.0
5.096,8181.0,3.131657297635229,0.0
5.104,8178.0,6.796453544309543,0.0
5.112,8179.0,7.524783775141259,0.0
5.12,8192.0,9.674882574247704,0.0
5.128,8195.0,12.748434252728657,0.0
5.136,8215.0,17.332233498730147,0.0
5.144,8201.0,18.641118582824447,0.0
5.152,8190.0,11.481456849146753,0.0
5.16,8196.0,4.485016202386532,0.0
5.168,8197.0,1.0974571132856,0.0
5.176,8194.0,-1.4809288480557825,0.0
5.184,8497.0,58.508991528682145,0.0
5.192,8181.0,82.4603670991803,0.0
5.2,8171.0,17.52113743257314,0.0
5.208,8181.0,-23.540227178441683,0.0
5.216,8186.0,-41.190361854442244,0.0
5.224,8190.0,-43.54496993869225,0.0
5.232,8199.0,-35.67963913747053,0.0
5.24,8207.0,-22.145527018452867,0.0
5.248,8217.0,-7.106537296101806,0.0
5.256,8232.0,7.97245197581924,0.0
5.264,8248.0,22.014749103164604,0.0
5.272,8274.0,35.56227928023668,0.0
5.28,8282.0,45.12883302145201,0.0
5.288,8283.0,45.78312078831823,0.0
5.296,8243.0,31.261071835984012,0.0
5.304,8204.0,1.7934434273913666,1.0
5.312,8181.0,-28.572221732170647,0.0
5.32,8169.0,-49.34906883117924,0.0
5.328,8171.0,-56.19756887065955,0.0
5.336,8178.0,-49.888838317647014,0.0
5.344,8180.0,-36.75542130001213,0.0
5.352,8180.0,-23.007182768275698,0.0
5.36,8185.0,-10.366832572152362,0.0
5.368,8177.0,-1.9325185953985056,0.0
5.376,8180.0,2.3270092936293167,0.0
5.384,8180.0,5.106187462138223,0.0
5.392,8180.0,5.975630559239335,0.0
5.4,8187.0,7.013947417634199,0.0
5.408,8192.0,9.016218970077489,0.0
5.416,8202.0,11.897906211199142,0.0
5.424,8204.0,14.249878168230907,0.0
5.432,8190.0,11.028770886213579,0.0
5.44,8183.0,3.161404195504929,0.0
5.448,8183.0,-3.400755456921388,0.0
5.456,8180.0,-7.378913661896377,0.0
5.464,8349.0,25.30107737586286,0.0
5.472,8259.0,56.93179334832689,0.0
5.48,8154.0,27.167954025044992,0.0
5.488,8181.0,-10.48877828386253,0.0
5.496,8183.0,-25.24396119390053,0.0
5.504,8193.0,-27.69125966650904,0.0
5.512,8200.0,-21.46715211703895,0.0
5.52,8204.0,-12.284242458176095,0.0
5.528,8216.0,-1.7222354826997162,0.0
5.536,8231.0,10.301351513709506,0.0
5.544,8250.0,22.796502586311362,0.0
5.552,8274.0,35.514830906083716,0.0
5.56,8288.0,45.415393066692786,0.0
5.568,8290.0,47.65387274698173,0.0
5.576,8266.0,37.258198215348784,0.0
5.584,8222.0,11.568974757694377,0.0
5.592,8194.0,-20.08724212084917,0.0
5.6,8189.0,-42.50514079155346,0.0
5.608,8181.0,-51.974678770916626,0.0
5.616,8189.0,-49.694973137094394,0.0
5.624,8187.0,-39.58660953697063,0.0
5.632,8192.0,-26.99384023037169,0.0
5.64,8187.0,-15.4539124229359,0.0
5.648,8191.0,-6.490523433511271,0.0
5.656,8183.0,-1.0227532961830548,0.0
5.664,8193.0,2.7745400692056137,0.0
5.672,8194.0,6.846909148882105,0.0
5.68,8200.0,9.64733503472462,0.0
5.688,8200.0,11.066657369317682,0.0
5.696,8198.0,9.819604727331807,0.0
5.704,8221.0,11.88364917896638,0.0
5.712,8204.0,12.528425126829234,0.0
5.72,8193.0,5.289864350868356,0.0
5.728,8194.0,-1.8360226758991303,0.0
5.736,8198.0,-4.750393685178324,0.0
5.744,8235.0,2.622601654689788,0.0
5.752,8462.0,60.52077919217754,0.0
5.76,8160.0,70.26343963351019,0.0
5.768,8189.0,9.598341121810336,0.0
5.776,8190.0,-21.605095204304007,1.0
5.784,8196.0,-35.35306278735766,0.0
5.792,8205.0,-35.059134179117564,0.0
5.8,8210.0,-26.709715183511662,0.0
5.808,8222.0,-14.249260452068938,0.0
5.816,8231.0,-0.42949468062101914,0.0
5.824,8248.0,13.12042990825762,0.0
5.832,8272.0,27.520954727300477,0.0
5.84,8291.0,40.64983523000592,0.0
5.848,8297.0,47.3587592924755,0.0
5.856,8280.0,41.89894994885685,0.0
5.864,8237.0,20.05960288074357,0.0
5.872,8205.0,-11.219985363179376,0.0
5.88,8184.0,-38.84554375516359,0.0
5.888,8179.0,-54.60563193091207,0.0
5.896,8180.0,-56.46446705639164,0.0
5.904,8183.0,-48.185896105422444,0.0
5.912,8186.0,-34.75860733682066,0.0
5.92,8188.0,-20.526411629296035,0.0
5.928,8189.0,-8.384565792245894,0.0
5.936,8187.0,-0.13699986447659285,0.0
5.944,8188.0,4.557067000492907,0.0
5.952,8189.0,7.050826907908231,0.0
5.96,8190.0,7.8652454710640995,0.0
5.968,8190.0,7.35872804034625,0.0
5.976,8196.0,7.16930938321002,0.0
5.984,8200.0,8.013343819421607,0.0
5.992,8215.0,11.179302546923282,0.0
6.0,8204.0,12.173934395470269,0.0
6.008,8189.0,5.604624450097617,0.0
6.016,8190.0,-1.9903933822936324,0.0
6.024,8190.0,-5.9760064526110455,0.0
6.032,8212.0,-2.9324402012668997,0.0
6.04,8496.0,61.82816464552161,0.0
6.048,8158.0,79.72135552806458,0.0
6.056,8174.0,12.431795205755634,0.0
6.064,8183.0,-24.14042611928471,0.0
6.072,8187.0,-39.45329326150136,0.0
6.08,8193.0,-40.48470445732232,0.0
6.088,8201.0,-32.09650874214003,0.0
6.096,8209.0,-19.000720860612773,0.0
6.104,8217.0,-5.106346751452065,0.0
6.112,8240.0,10.218271183881825,0.0
6.12,8257.0,25.90404741612224,1.0
6.128,8276.0,38.60805994911925,0.0
6.136,8283.0,45.57957585166082,0.0
6.144,8276.0,42.7921171668238,0.0
6.152,8234.0,24.64508824726022,0.0
6.16,8196.0,-6.167586958481252,0.0
6.168,8177.0,-35.100220280634176,0.0
6.176,8169.0,-52.40544648609921,0.0
6.184,8169.0,-56.32885107549964,0.0
6.192,8173.0,-49.291824085285725,0.0
6.2,8175.0,-36.431110632727496,0.0
6.208,8177.0,-22.484716216349625,0.0
6.216,8174.0,-11.03219399872205,0.0
6.224,8176.0,-2.7908812357532042,0.0
6.232,8174.0,2.5061480830624987,0.0
6.24,8175.0,5.054540034583624,0.0
6.248,8176.0,6.203928551669151,0.0
6.256,8174.0,5.7387854051614795,0.0
6.264,8178.0,5.002234558737882,0.0
6.272,8185.0,6.055550866904241,0.0
6.28,8184.0,6.986192352910166,0.0
6.288,8201.0,9.74619616025575,0.0
6.296,8183.0,9.696518660628499,0.0
6.304,8173.0,2.476609707302714,0.0
6.312,8174.0,-4.007423227871186,0.0
6.32,8180.0,-5.8043911831980495,0.0
6.328,8203.0,-0.0623769494472981,0.0
6.336,8480.0,64.63314517398521,0.0
6.344,8152.0,82.6754805575074,0.0
6.352,8165.0,16.456349593904406,0.0
6.36,8171.0,-21.31879646786706,0.0
6.368,8175.0,-38.38376614932622,0.0
6.376,8183.0,-40.20491918407629,0.0
6.384,8191.0,-31.917592591728635,0.0
6.392,8199.0,-18.908584343387247,0.0
6.4,8211.0,-4.262297252568942,0.0
6.408,8224.0,10.153227967966131,0.0
6.416,8246.0,24.289725465172296,0.0
6.424,8268.0,37.956653965181886,0.0
6.432,8275.0,46.209300092068816,0.0
6.44,8262.0,42.858221136257725,1.0
6.448,8224.0,23.95924432700167,0.0
6.456,8186.0,-6.37694629019029,0.0
6.464,8166.0,-35.20034689065369,0.0
6.472,8162.0,-51.81289019577139,0.0
6.48,8163.0,-54.39497766619775,0.0
6.488,8165.0,-47.062196802689414,0.0
6.496,8162.0,-35.79471858053125,0.0
6.504,8166.0,-23.499947872453276,0.0
6.512,8166.0,-11.848767969221853,0.0
6.52,8165.0,-3.366167126158416,0.0
6.528,8164.0,1.7521780481934002,0.0
6.536,8165.0,4.513508072308014,0.0
6.544,8165.0,5.6665538217118865,0.0
6.552,8166.0,5.693647556917313,0.0
6.56,8167.0,5.255048221413972,0.0
6.568,8167.0,4.403234783592325,0.0
6.576,8176.0,5.070598772816311,0.0
6.584,8176.0,6.5352215298999,0.0
6.592,8196.0,10.496596777629748,0.0
6.6,8177.0,11.452240424938054,0.0
6.608,8166.0,4.1520869488547305,0.0
6.616,8165.0,-3.2463270639552775,0.0
6.624,8168.0,-6.720953764675414,0.0
6.632,8185.0,-3.6708498598907227,0.0
6.64,8497.0,65.90449192331585,0.0
6.648,8151.0,90.11310744835555,0.0
6.656,8154.0,20.692649287832865,0.0
6.664,8159.0,-21.865338504434476,0.0
6.672,8165.0,-41.47170985217599,0.0
6.68,8172.0,-44.12337410450027,0.0
6.688,8178.0,-36.346028932636955,0.0
6.696,8184.0,-23.78442293260946,0.0
6.704,8195.0,-9.276396584807571,0.0
6.712,8213.0,6.634761399993749,0.0
6.72,8231.0,22.393515534412472,0.0
6.728,8253.0,36.49012844537924,0.0
6.736,8264.0,46.0364351006242,0.0
6.744,8256.0,45.31534064036737,1.0
6.752,8216.0,28.21210647952512,0.0
6.76,8180.0,-1.7068689967188675,0.0
6.768,8158.0,-30.99156809146325,0.0
6.776,8151.0,-49.53652723126288,0.0
6.784,8149.0,-54.83237068074595,0.0
6.792,8152.0,-49.44678833419107,0.0
6.8,8156.0,-37.33494128776965,0.0
6.808,8158.0,-23.285792185154833,0.0
6.816,8158.0,-11.03814597023893,0.0
6.824,8158.0,-2.1213949726793544,0.0
6.832,8159.0,3.677886209101416,0.0
6.84,8160.0,6.95856222678276,0.0
6.848,8159.0,7.843748446341124,0.0
6.856,8159.0,6.973740445039084,0.0
6.864,8158.0,5.197616957247192,0.0
6.872,8161.0,3.76780202264149,0.0
6.88,8164.0,3.5767735135329985,0.0
6.888,8170.0,4.760225903881064,0.0
6.896,8183.0,8.620126923976613,0.0
6.904,8182.0,12.04756292632851,0.0
6.912,8160.0,7.54907122603845,0.0
6.92,8161.0,-0.54617496272067,0.0
6.928,8158.0,-5.6594852904167965,0.0
6.936,8154.0,-9.255549586909183,0.0
6.944,8352.0,29.65535439586506,0.0
6.952,8252.0,68.19257788161076,0.0
6.96,8134.0,36.107048905105785,0.0
6.968,8153.0,-8.568316443657295,0.0
6.976,8157.0,-28.99127699143787,0.0
6.984,8164.0,-34.4266533331629,0.0
6.992,8171.0,-29.5614274013476,0.0
7.0,8184.0,-18.11626299855834,0.0
7.008,8190.0,-4.7192566721648745,0.0
7.016,8204.0,8.005222284071579,0.0
7.024,8221.0,20.650097526833633,0.0
7.032,8247.0,33.78239281605238,0.0
7.04,8263.0,45.007635720359985,0.0
7.048,8263.0,48.09135023525937,1.0
7.056,8237.0,37.3120161431832,0.0
7.064,8192.0,10.774835147984959,0.0
7.072,8163.0,-21.671063130482707,0.0
7.08,8151.0,-45.95025871398775,0.0
7.088,8149.0,-56.202544901952706,0.0
7.096,8151.0,-53.744760859294274,0.0
7.104,8153.0,-43.32568801012462,0.0
7.112,8158.0,-29.16507403803621,0.0
7.12,8158.0,-15.347236685338657,0.0
7.128,8156.0,-5.257169871473252,0.0
7.136,8156.0,1.098526364529107,0.0
7.144,8155.0,4.486424252908591,0.0
7.152,8159.0,6.42272907958295,0.0
7.16,8159.0,7.411298320119158,0.0
7.168,8162.0,7.48519870773589,0.0
7.176,8162.0,7.0069612726156265,0.0
7.184,8163.0,5.866095230809151,0.0
7.192,8171.0,6.140727075938457,0.0
7.2,8172.0,7.210844608480102,0.0
7.208,8190.0,10.632176859086485,0.0
7.216,8184.0,13.495193494849673,0.0
7.224,8165.0,8.03482558180599,0.0
7.232,8164.0,-0.49861788304770016,0.0
7.24,8166.0,-5.265385099130299,0.0
7.248,8153.0,-9.533457908676155,0.0
7.256,8394.0,35.968383555424,0.0
7.264,8241.0,75.40333862254874,0.0
7.272,8150.0,37.44366875112564,0.0
7.28,8159.0,-7.4351871710871364,0.0
7.288,8161.0,-30.601897372715484,0.0
7.296,8168.0,-37.82433532426535,0.0
7.304,8175.0,-33.500845988054834,0.0
7.312,8183.0,-22.800305479738654,0.0
7.32,8195.0,-8.929211544538248,0.0
7.328,8208.0,5.735425014202747,0.0
7.336,8226.0,19.871834322141694,0.0
7.344,8250.0,33.79991346230099,0.0
7.352,8266.0,45.08452363874903,0.0
7.36,8266.0,48.19169074454726,1.0
7.368,8241.0,37.61531449479071,0.0
7.376,8195.0,11.152178822866745,0.0
7.384,8166.0,-21.511439752865726,0.0
7.392,8156.0,-45.5349939007956,0.0
7.4,8157.0,-54.6775490909572,0.0
7.408,8158.0,-51.38607768229235,0.0
7.416,8159.0,-41.24016935816849,0.0
7.424,8163.0,-27.965895328451097,0.0
7.432,8162.0,-15.262649251897301,0.0
7.44,8163.0,-5.435972685962042,0.0
7.448,8163.0,1.4039660817109052,0.0
7.456,8161.0,4.827635114323812,0.0
7.464,8161.0,5.711859221160921,0.0
7.472,8162.0,5.5731034468146845,0.0
7.48,8164.0,5.258997719012768,0.0
7.488,8165.0,4.888812453692026,0.0
7.496,8165.0,4.1329846494290905,0.0
7.504,8169.0,3.8765833728255075,0.0
7.512,8173.0,4.771618878483878,0.0
7.52,8176.0,6.007613427428396,0.0
7.528,8193.0,9.913769945723743,0.0
7.536,8173.0,10.107917457374015,0.0
7.544,8165.0,2.9698333002272648,0.0
7.552,8166.0,-3.131985455220274,0.0
7.56,8170.0,-5.244240922915196,0.0
7.568,8212.0,3.699501417732108,0.0
7.576,8442.0,63.99775202111505,0.0
7.584,8155.0,78.31007643304292,0.0
7.592,8160.0,17.288797124239636,0.0
7.6,8162.0,-19.990166801037276,0.0
7.608,8168.0,-37.37173277351462,0.0
7.616,8177.0,-38.92065406521192,0.0
7.624,8182.0,-31.07564146823188,0.0
7.632,8194.0,-18.251565891519704,0.0
7.64,8206.0,-2.9970561330237615,0.0
7.648,8222.0,12.199247955399414,0.0
7.656,8244.0,27.10019848054867,0.0
7.664,8263.0,40.1802198856351,0.0
7.672,8271.0,47.34004963622078,0.0
7.68,8257.0,43.171245899418864,1.0
7.688,8217.0,23.12830728101153,0.0
7.696,8179.0,-8.167042248662938,0.0
7.704,8159.0,-37.286288172046625,0.0
7.712,8155.0,-53.757540593800286,0.0
7.72,8157.0,-55.75693609046948,0.0
7.728,8161.0,-47.26016070844889,0.0
7.736,8159.0,-34.66138190932929,0.0
7.744,8157.0,-22.77261357298221,0.0
7.752,8158.0,-12.493319389427597,0.0
7.76,8158.0,-4.3157262474410345,0.0
7.768,8156.0,0.7662022462104687,0.0
7.776,8157.0,3.4511802506133336,0.0
7.784,8156.0,4.515832154058899,0.0
7.792,8157.0,4.46081207751763,0.0
7.8,8158.0,4.160563179535984,0.0
7.808,8159.0,3.7608076377523503,0.0
7.816,8164.0,4.180014986709466,0.0
7.824,8168.0,5.632901329805009,0.0
7.832,8170.0,6.863926534293114,0.0
7.84,8190.0,11.045918664601459,0.0
7.848,8167.0,11.231547793386198,0.0
7.856,8158.0,3.10086695977634,0.0
7.864,8157.0,-4.220740556076635,0.0
7.872,8159.0,-7.7065122585520385,0.0
7.88,8192.0,-1.449064824244033,0.0
7.888,8441.0,60.0841070564004,0.0
7.896,8140.0,76.74162076855941,0.0
7.904,8146.0,14.689168221686941,0.0
7.912,8146.0,-23.009796254618323,0.0
7.92,8149.0,-41.20344251478741,0.0
7.928,8155.0,-43.87749927137588,0.0
7.936,8164.0,-35.74207286789601,0.0
7.944,8170.0,-22.447362613115956,0.0
7.952,8181.0,-7.708493744038151,0.0
7.96,8195.0,7.284268252719812,0.0
7.968,8217.0,22.40141160856865,0.0
7.976,8232.0,35.50447735190528,0.0
7.984,8246.0,43.795434892850835,0.0
7.992,8231.0,41.85448782184676,1.0
8.0,8194.0,23.737337678224094,0.0
8.008,8155.0,-6.1028382706088,0.0
8.016,8136.0,-34.674454625129556,0.0
8.024,8131.0,-51.21782461709631,0.0
8.032,8134.0,-53.64492124543108,0.0
8.04,8138.0,-45.51699316288477,0.0
8.048,8136.0,-33.40063482392884,0.0
8.056,8135.0,-21.784012467443063,0.0
8.064,8137.0,-11.406946915643175,0.0
8.072,8135.0,-3.5405396619553358,0.0
8.08,8133.0,0.8312249255241113,0.0
8.088,8132.0,2.677753312315872,0.0
8.096,8133.0,3.3638081471438,0.0
8.104,8135.0,3.8724492986093537,0.0
8.112,8139.0,4.811954760825984,0.0
8.12,8139.0,5.455230899998696,0.0
8.128,8143.0,5.825789250296566,0.0
8.136,8151.0,7.613288324478617,0.0
8.144,8154.0,9.76345702415506,0.0
8.152,8171.0,13.64082440682705,0.0
8.16,8151.0,13.252880622645762,0.0
8.168,8144.0,5.498035919740687,0.0
8.176,8142.0,-1.7604410129638381,0.0
8.184,8145.0,-5.581887843454524,0.0
8.192,8205.0,5.875346814673094,0.0
8.2,8364.0,56.50224509824875,0.0
8.208,8113.0,59.08082616444199,0.0
8.216,8131.0,4.046352088575077,0.0
8.224,8137.0,-24.21120010445452,0.0
8.232,8149.0,-33.57455133653616,0.0
8.24,8157.0,-29.93570705386537,0.0
8.248,8163.0,-20.38488246924726,0.0
8.256,8172.0,-8.58143939616889,0.0
8.264,8185.0,4.194763015931358,0.0
8.272,8203.0,17.44793802691879,0.0
8.28,8226.0,31.016864324408743,0.0
8.288,8246.0,43.1239176736492,0.0
8.296,8250.0,48.64913391662549,0.0
8.304,8241.0,43.51945064189954,1.0
8.312,8203.0,24.28556326998728,0.0
8.32,8164.0,-6.502467529579235,0.0
8.328,8144.0,-35.778355991817534,0.0
8.336,8141.0,-52.36656604586642,0.0
8.344,8147.0,-53.62451413175313,0.0
8.352,8149.0,-44.60394666367006,0.0
8.36,8152.0,-31.485209017212355,0.0
8.368,8151.0,-18.544678230264708,0.0
8.376,8152.0,-8.08007754533287,0.0
8.384,8151.0,-0.6662948233697534,0.0
8.392,8151.0,3.614921391548023,0.0
8.4,8149.0,5.190159202852783,0.0
8.408,8157.0,6.560667796271218,0.0
8.416,8153.0,7.1937129396258115,0.0
8.424,8158.0,6.681743825631656,0.0
8.432,8163.0,7.408943146909451,0.0
8.44,8169.0,8.963033461631085,0.0
8.448,8178.0,11.587730608490347,0.0
8.456,8186.0,14.856249451470148,0.0
8.464,8169.0,12.698155915858024,0.0
8.472,8164.0,5.002054502954479,0.0
8.48,8164.0,-1.3292818105990136,0.0
8.488,8159.0,-5.893592977464095,0.0
8.496,8288.0,17.63392139665325,0.0
8.504,8283.0,54.207846198037714,0.0
8.512,8122.0,33.70511887152816,0.0
8.52,8157.0,-9.27215798874363,0.0
8.528,8168.0,-23.885242158985193,0.0
8.536,8175.0,-25.228696568635996,0.0
8.544,8183.0,-19.13373274116293,0.0
8.552,8193.0,-8.95086661631376,0.0
8.56,8204.0,2.7186379630850297,0.0
8.568,8217.0,14.111005911625853,0.0
8.576,8239.0,25.85956733037392,0.0
8.584,8262.0,38.08056863828733,0.0
8.592,8286.0,49.13672371786356,0.0
8.6,8286.0,53.128828088381624,0.0
8.608,8269.0,43.96168057578734,0.0
8.616,8225.0,19.41278469173585,0.0
8.624,8189.0,-14.39266510431662,1.0
8.632,8178.0,-41.80519321089923,0.0
8.64,8172.0,-55.15187041673198,0.0
8.648,8177.0,-54.88769959849242,0.0
8.656,8179.0,-44.97974051744359,0.0
8.664,8185.0,-30.666323677226956,0.0
8.672,8184.0,-16.530511794970153,0.0
8.68,8185.0,-5.664395246561071,0.0
8.688,8186.0,2.029198993792079,0.0
8.696,8188.0,6.88442989772193,0.0
8.704,8186.0,8.712044617300307,0.0
8.712,8191.0,9.084946625996508,0.0
8.72,8196.0,9.971103359762083,0.0
8.728,8201.0,11.026446271216855,0.0
8.736,8205.0,11.817542342849265,0.0
8.744,8215.0,13.353927888409771,0.0
8.752,8195.0,10.194922433569673,0.0
8.76,8193.0,2.286403104499641,0.0
8.768,8195.0,-2.7373278868601574,0.0
8.776,8191.0,-5.701944544004164,0.0
8.784,8262.0,7.097423376160577,0.0
8.792,8399.0,56.08546675949265,0.0
8.8,8157.0,55.102109539182266,0.0
8.808,8187.0,2.854648746255407,0.0
8.816,8195.0,-20.713780552778644,0.0
8.824,8203.0,-28.242843970170043,0.0
8.832,8207.0,-25.96196126170048,0.0
8.84,8215.0,-18.22530132801853,0.0
8.848,8226.0,-7.004966933035803,0.0
8.856,8237.0,5.18737413489248,0.0
8.864,8254.0,17.33186047469826,0.0
8.872,8277.0,30.058408022570575,0.0
8.88,8298.0,42.01689408080415,0.0
8.888,8304.0,48.2349881891048,0.0
8.896,8287.0,42.35205617650081,1.0
8.904,8239.0,19.172274685671255,0.0
8.912,8205.0,-14.195620608180661,0.0
8.92,8185.0,-42.80935974503973,0.0
8.928,8181.0,-58.14429344473547,0.0
8.936,8184.0,-58.60228758709923,0.0
8.944,8185.0,-49.17114276198254,0.0
8.952,8190.0,-34.912848681877676,0.0
8.96,8189.0,-20.370113818932168,0.0
8.968,8188.0,-9.089816351730633,0.0
8.976,8186.0,-1.6534460489185676,0.0
8.984,8188.0,2.9950930259806228,0.0
8.992,8186.0,5.290139916056887,0.0
9.0,8189.0,6.049680034240737,0.0
9.008,8190.0,6.398871204738043,0.0
9.016,8194.0,6.65674200525973,0.0
9.024,8199.0,7.638713129599864,0.0
9.032,8205.0,9.308639227176172,0.0
9.04,8213.0,11.745142727343591,0.0
9.048,8194.0,9.158075542291044,0.0
9.056,8188.0,1.13209531728603,0.0
9.064,8192.0,-4.1946968175032,0.0
9.072,8189.0,-6.5046865304452695,0.0
9.08,8338.0,22.943296965310083,0.0
9.088,8301.0,59.76200354786579,0.0
9.096,8155.0,35.0888499375144,0.0
9.104,8180.0,-9.543095992587268,0.0
9.112,8186.0,-28.15818368794976,0.0
9.12,8193.0,-32.24209213481686,0.0
9.128,8200.0,-26.90881558108913,0.0
9.136,8209.0,-16.406217371310504,0.0
9.144,8217.0,-4.234507887715154,0.0
9.152,8232.0,8.304741371175169,0.0
9.16,8245.0,20.181758974425748,0.0
9.168,8271.0,32.11374687689249,0.0
9.176,8286.0,42.67781556739419,0.0
9.184,8290.0,46.336643450318206,1.0
9.192,8263.0,36.776367189090024,0.0
9.2,8220.0,11.24564651357423,0.0
9.208,8189.0,-20.67641335131657,0.0
9.216,8174.0,-45.81811652897659,0.0
9.224,8172.0,-57.21342507407962,0.0
9.232,8174.0,-55.27836120305528,0.0
9.24,8176.0,-44.93591228771038,0.0
9.248,8176.0,-31.597988698545805,0.0
9.256,8179.0,-18.306432151249055,0.0
9.264,8176.0,-7.670356328057551,0.0
9.272,8174.0,-1.2387861861946021,0.0
9.28,8175.0,2.5483475761177488,0.0
9.288,8178.0,5.218895964991134,0.0
9.296,8176.0,6.211308474419184,0.0
9.304,8174.0,5.039308619474923,0.0
9.312,8177.0,3.786471993670375,0.0
9.32,8186.0,4.923082522443565,0.0
9.328,8187.0,6.891882938477238,0.0
9.336,8204.0,10.688752294538972,0.0
9.344,8187.0,11.313673559953486,0.0
9.352,8173.0,3.6346389604489104,0.0
9.36,8173.0,-4.317995150004435,0.0
9.368,8174.0,-8.162209995834246,0.0
9.376,8177.0,-8.38098164309713,0.0
9.384,8503.0,59.97526410194064,0.0
9.392,8167.0,89.2650689462107,0.0
9.4,8159.0,22.77388959465293,0.0
9.408,8167.0,-20.00167472998055,0.0
9.416,8170.0,-40.01927390617675,0.0
9.424,8177.0,-43.7472465244,0.0
9.432,8185.0,-36.25485207788074,0.0
9.44,8193.0,-23.058385657235476,0.0
9.448,8205.0,-7.672077251117571,0.0
9.456,8220.0,8.106659898909356,0.0
9.464,8242.0,23.76824420830326,0.0
9.472,8265.0,38.62047007291267,1.0
9.48,8275.0,48.29066004707647,0.0
9.488,8269.0,47.50536369213114,0.0
9.496,8231.0,30.84933058929164,0.0
9.504,8190.0,0.18209230515253694,0.0
9.512,8167.0,-31.057321956061514,0.0
9.52,8162.0,-50.544026536469346,0.0
9.528,8164.0,-55.01826295450542,0.0
9.536,8168.0,-48.09709597967708,0.0
9.544,8169.0,-35.69033765626091,0.0
9.552,8169.0,-22.737623954693163,0.0
9.56,8172.0,-11.017215778098716,0.0
9.568,8170.0,-2.2111449270748835,0.0
9.576,8170.0,2.9233848780586413,0.0
9.584,8170.0,5.516717686421089,0.0
9.592,8173.0,6.826913389133779,0.0
9.6,8173.0,7.179622789556333,0.0
9.608,8173.0,6.299698988116688,0.0
9.616,8175.0,5.232806426270145,0.0
9.624,8182.0,5.647200123270068,0.0
9.632,8181.0,6.261894623052058,0.0
9.64,8201.0,9.5577624615903,0.0
9.648,8182.0,10.262164488074859,0.0
9.656,8172.0,3.1981575149900436,0.0
9.664,8172.0,-3.5073712348043955,0.0
9.672,8174.0,-6.532649355739977,0.0
9.68,8193.0,-3.0410497884072356,0.0
9.688,8506.0,67.31280915001639,0.0
9.696,8170.0,94.01562998989016,0.0
9.704,8169.0,26.704377205802075,0.0
9.712,8170.0,-17.152085510106645,0.0
9.72,8177.0,-38.85386004661359,0.0
9.728,8186.0,-42.52873674763009,0.0
9.736,8191.0,-35.39398275231315,0.0
9.744,8200.0,-22.94814390450574,0.0
9.752,8212.0,-7.81816853412829,0.0
9.76,8229.0,8.239724492641699,0.0
9.768,8250.0,24.250527788591626,0.0
9.776,8272.0,38.827559654134575,1.0
9.784,8282.0,48.09930230174564,0.0
9.792,8272.0,46.290173650434554,0.0
9.8,8233.0,28.191380847695882,0.0
9.808,8196.0,-2.3132241176672323,0.0
9.816,8175.0,-31.852332933376147,0.0
9.824,8169.0,-50.00864580408597,0.0
9.832,8171.0,-53.98156162097166,0.0
9.84,8175.0,-46.92109062793929,0.0
9.848,8177.0,-34.40594360578348,0.0
9.856,8177.0,-21.379557480531957,0.0
9.864,8176.0,-10.638681758610346,0.0
9.872,8177.0,-2.673595836092545,0.0
9.88,8177.0,2.6465923580049093,0.0
9.888,8178.0,5.595989068977133,0.0
9.896,8178.0,6.696140250812732,0.0
9.904,8178.0,6.331553946313761,0.0
9.912,8178.0,5.1559998943098435,0.0
9.92,8182.0,4.496272020497599,0.0
9.928,8190.0,5.876032025227914,0.0
9.936,8191.0,7.639851423451091,0.0
9.944,8212.0,12.019297789765687,0.0
9.952,8197.0,14.01283268227553,0.0
9.96,8184.0,7.346872016045609,0.0
9.968,8183.0,-0.5694501888901868,0.0
9.976,8186.0,-4.75621307131064,0.0
9.984,8182.0,-6.715460520536681,0.0
9.992,8512.0,59.74605557055679,0.0
10.0,8223.0,98.36941317926403,0.0
10.008,8181.0,38.673666212595435,0.0
10.016,8188.0,-9.644213260924289,0.0
10.024,8191.0,-34.71414271612298,0.0
10.032,8200.0,-41.82577399085221,0.0
10.04,8210.0,-35.808584314421296,0.0
10.048,8218.0,-23.14360937463175,0.0
10.056,8230.0,-8.05870323258182,0.0
10.064,8245.0,7.600402177686192,0.0
10.072,8268.0,23.472291943848404,0.0
10.08,8292.0,38.902363614037085,1.0
10.088,8306.0,49.893056378327856,0.0
10.096,8305.0,51.484468417526614,0.0
10.104,8272.0,37.67374574012274,0.0
10.112,8229.0,8.267459935048237,0.0
10.12,8206.0,-23.860667925556527,0.0
10.128,8200.0,-45.168354784339044,0.0
10.136,8204.0,-51.330231584646754,0.0
10.144,8207.0,-45.76198061259424,0.0
10.152,8210.0,-34.3050648106198,0.0
10.16,8214.0,-20.898305178948704,0.0
10.168,8216.0,-8.575334951681043,0.0
10.176,8217.0,0.6254737953706808,0.0
10.184,8218.0,6.380589358378984,0.0
10.192,8215.0,8.408180906017378,0.0
10.2,8215.0,7.719613260621827,0.0
10.208,8219.0,6.959214298960433,0.0
10.216,8220.0,6.475920697516585,0.0
10.224,8220.0,5.412576466589599,0.0
10.232,8224.0,4.780309259120941,0.0
10.24,8227.0,5.111741937153056,0.0
10.248,8230.0,5.7585552083680795,0.0
10.256,8238.0,7.515323637397614,0.0
10.264,8215.0,4.350349455271271,0.0
10.272,8207.0,-4.514300938215229,0.0
10.28,8206.0,-10.911126678700384,0.0
10.288,8203.0,-13.857146579345681,0.0
10.296,8312.0,8.15737646792013,0.0
10.304,8393.0,58.75713116406814,0.0
10.312,8171.0,50.9670518236303,0.0
10.32,8181.0,-4.678969651859006,0.0
10.328,8181.0,-34.83553974409165,0.0
10.336,8183.0,-46.980004926380616,0.0
10.344,8187.0,-45.81369339400476,0.0
10.352,8191.0,-36.543635402962764,0.0
10.36,8200.0,-22.86498120491615,0.0
10.368,8210.0,-7.427130964294065,0.0
10.376,8223.0,7.527747896186611,0.0
10.384,8242.0,21.768369542639448,1.0
10.392,8257.0,33.836135968461576,0.0
10.4,8260.0,39.520450378472106,0.0
10.408,8239.0,33.21296295608113,0.0
10.416,8193.0,10.759092852470758,0.0
10.424,8154.0,-21.516864445949523,0.0
10.432,8134.0,-49.396350392079285,0.0
10.44,8130.0,-63.29838243381755,0.0
10.448,8129.0,-62.94474346825905,0.0
10.456,8131.0,-52.988135066436826,0.0
10.464,8128.0,-39.27048737633345,0.0
10.472,8125.0,-26.429828678782087,0.0
10.48,8121.0,-16.258916072824604,0.0
10.488,8123.0,-8.187413185734385,0.0
10.496,8119.0,-2.581232854734708,0.0
10.504,8120.0,0.5126958460532478,0.0
10.512,8119.0,2.264709437194142,0.0
10.52,8121.0,3.1617915288118184,0.0
10.528,8121.0,3.6215611315797105,0.0
10.536,8123.0,3.7529983507383804,0.0
10.544,8131.0,5.304739500081496,0.0
10.552,8130.0,6.848281305147566,0.0
10.56,8156.0,11.830369712129823,0.0
10.568,8140.0,15.026153137752772,0.0
10.576,8127.0,8.713268105928364,0.0
10.584,8128.0,1.207194122255487,0.0
10.592,8129.0,-3.0063088865865666,0.0
10.6,8123.0,-6.0638798290447085,0.0
10.608,8450.0,58.627798113601784,0.0
10.616,8161.0,95.76111491596771,0.0
10.624,8114.0,34.558104955100816,0.0
10.632,8120.0,-15.25300464956672,0.0
10.64,8123.0,-40.55996978915687,0.0
10.648,8133.0,-46.72118636723053,0.0
10.656,8143.0,-39.19541988262972,0.0
10.664,8156.0,-24.1032867354686,0.0
10.672,8169.0,-6.211659869763935,0.0
10.68,8189.0,12.053106919785932,0.0
10.688,8214.0,30.221003703784618,0.0
10.696,8242.0,47.21155072388865,1.0
10.704,8260.0,59.49974178881098,0.0
10.712,8260.0,61.423509404977494,0.0
10.72,8232.0,47.5282702847835,0.0
10.728,8190.0,17.803744302003906,0.0
10.736,8167.0,-15.754102722039534,0.0
10.744,8163.0,-38.72777245891143,0.0
10.752,8166.0,-46.6470762642482,0.0
10.76,8175.0,-41.80668222823806,0.0
10.768,8182.0,-29.336881496612932,0.0
10.776,8188.0,-14.858533673803095,0.0
10.784,8189.0,-2.6132277830697603,0.0
10.792,8191.0,5.637724583067211,0.0
10.8,8192.0,10.27548109126019,0.0
10.808,8190.0,11.25605760030976,0.0
10.816,8193.0,10.333718562716285,0.0
10.824,8196.0,9.447340014389056,0.0
10.832,8196.0,8.103711417499426,0.0
10.84,8196.0,6.080473377582621,0.0
10.848,8205.0,5.800769620251231,0.0
10.856,8206.0,6.7988963786365275,0.0
10.864,8212.0,7.788499726551436,0.0
10.872,8227.0,11.483238335470332,0.0
10.88,8206.0,10.701501238096853,0.0
10.888,8205.0,4.122091170311705,0.0
10.896,8204.0,-0.802520421964573,0.0
10.904,8205.0,-3.5932560304224808,0.0
10.912,8301.0,15.118267515778143,0.0
10.92,8406.0,64.95658957408864,0.0
10.928,8177.0,59.24940316994389,0.0
10.936,8196.0,3.9881005671177263,0.0
10.944,8198.0,-25.007668497483564,0.0
10.952,8207.0,-36.1169517310143,0.0
10.96,8212.0,-34.35099579250323,0.0
10.968,8222.0,-25.034083574162196,0.0
10.976,8231.0,-11.846898827451014,0.0
10.984,8241.0,1.6298258498384257,0.0
10.992,8257.0,14.664659201619543,0.0
11.0,8280.0,28.11783487548155,0.0
11.008,8298.0,40.18735893120447,0.0
11.016,8303.0,45.93129655450798,0.0
11.024,8286.0,39.91291519743527,1.0
11.032,8240.0,17.431433398947775,0.0
11.04,8199.0,-16.28106064253302,0.0
11.048,8182.0,-45.599620883194575,0.0
11.056,8179.0,-60.11114480119636,0.0
11.064,8174.0,-61.21408364492777,0.0
11.072,8174.0,-53.607086361017764,0.0
11.08,8170.0,-41.798056963345516,0.0
11.088,8168.0,-29.702942593901298,0.0
11.096,8163.0,-19.47670097084142,0.0
11.104,8159.0,-12.314728192780876,0.0
11.112,8157.0,-7.437896094295638,0.0
11.12,8152.0,-4.8561785604083525,0.0
11.128,8144.0,-5.2490117934664795,0.0
11.136,8147.0,-5.707024696920371,0.0
11.144,8145.0,-4.908339641883458,0.0
11.152,8148.0,-3.4875355675885658,0.0
11.16,8144.0,-2.3228236476147686,0.0
11.168,8157.0,0.5568599627774802,0.0
11.176,8157.0,4.831384275180881,0.0
11.184,8134.0,1.9279170644210808,0.0
11.192,8126.0,-6.414809193754081,0.0
11.2,8125.0,-12.214830376924965,0.0
11.208,8119.0,-15.223146650286935,0.0
11.216,8308.0,22.692799630274294,0.0
11.224,8186.0,55.36388670269412,0.0
11.232,8084.0,20.528310382281916,0.0
11.24,8106.0,-19.529792126970733,0.0
11.248,8111.0,-34.74301864922495,0.0
11.256,8113.0,-37.04253824838315,0.0
11.264,8118.0,-31.35627854921927,0.0
11.272,8126.0,-20.58354128058636,0.0
11.28,8134.0,-7.823041215664716,0.0
11.288,8149.0,5.608481832010966,0.0
11.296,8167.0,19.4434775758084,0.0
11.304,8191.0,33.25824516988587,0.0
11.312,8206.0,44.35366556718259,0.0
11.32,8209.0,47.86835450840181,0.0
11.328,8183.0,37.990609238763,0.0
11.336,8139.0,12.0880444880504,0.0
11.344,8104.0,-21.203144947542114,0.0
11.352,8087.0,-48.30049531471923,0.0
11.36,8084.0,-61.08891493191527,0.0
11.368,8091.0,-58.572961348358376,0.0
11.376,8090.0,-46.97887329632795,0.0
11.384,8089.0,-33.40819867944242,0.0
11.392,8092.0,-19.90884518249868,0.0
11.4,8090.0,-8.702633031985442,0.0
11.408,8090.0,-1.1644774004062128,0.0
11.416,8091.0,3.674424755780592,0.0
11.424,8093.0,6.5919598224882066,0.0
11.432,8094.0,7.9308688068881565,0.0
11.44,8095.0,7.9288856986252085,0.0
11.448,8109.0,9.7901125958806,0.0
11.456,8113.0,13.083957325048004,0.0
11.464,8130.0,17.338566611348597,0.0
11.472,8125.0,19.67761406715408,0.0
11.48,8111.0,14.195848657912165,0.0
11.488,8103.0,4.307065280681627,0.0
11.496,8105.0,-3.4199517866361475,0.0
11.504,8107.0,-6.6539885861234325,0.0
11.512,8369.0,46.37764820738835,0.0
11.52,8097.0,68.66606365057555,0.0
11.528,8081.0,12.598172653125403,0.0
11.536,8106.0,-20.631609906900394,1.0
11.544,8102.0,-32.865335633442555,0.0
11.552,8112.0,-33.89176310669518,0.0
11.56,8124.0,-24.86578116015312,0.0
11.568,8132.0,-11.671867904772625,0.0
11.576,8143.0,1.7822992476005766,0.0
11.584,8159.0,14.984976173818723,0.0
11.592,8177.0,27.467346305556475,0.0
11.6,8202.0,39.46996095796226,0.0
11.608,8224.0,50.186314254187664,0.0
11.616,8220.0,52.5925251503088,0.0
11.624,8188.0,38.687077045404294,0.0
11.632,8147.0,9.684040264862688,0.0
11.64,8118.0,-23.2375803831967,0.0
11.648,8107.0,-47.35631406164816,0.0
11.656,8111.0,-55.870422986360154,0.0
11.664,8117.0,-50.39202913536678,0.0
11.672,8122.0,-37.26478055844677,0.0
11.68,8121.0,-23.034363507992566,0.0
11.688,8122.0,-11.126236931352423,0.0
11.696,8126.0,-1.375417537151634,0.0
11.704,8125.0,5.212632983608046,0.0
11.712,8126.0,8.318498513039685,0.0
11.72,8127.0,9.302721353674315,0.0
11.728,8128.0,8.882988406008735,0.0
11.736,8142.0,10.35250550478031,0.0
11.744,8137.0,11.49072088301682,0.0
11.752,8157.0,13.48624302948042,0.0
11.76,8141.0,13.438921206521172,0.0
11.768,8133.0,6.470216294393595,0.0
11.776,8129.0,-1.083635354877515,0.0
11.784,8129.0,-6.2038821537146305,0.0
11.792,8159.0,-2.1623811784454574,0.0
11.8,8435.0,63.071650581646736,0.0
11.808,8101.0,80.23909491765653,0.0
11.816,8123.0,14.484842124611987,0.0
11.824,8135.0,-19.65195958600816,0.0
11.832,8143.0,-32.774922319122425,0.0
11.84,8150.0,-32.50224339900478,0.0
11.848,8162.0,-23.53154213487437,0.0
11.856,8174.0,-9.755404871620385,0.0
11.864,8190.0,5.591237601113107,0.0
11.872,8204.0,19.948543771668028,0.0
11.88,8226.0,32.76982594842002,0.0
11.888,8254.0,45.59905989409117,1.0
11.896,8262.0,53.627721666921616,0.0
11.904,8256.0,50.653865053905974,0.0
11.912,8215.0,31.613268579911846,0.0
11.92,8178.0,-0.37571774293405724,0.0
11.928,8155.0,-31.495037730618606,0.0
11.936,8152.0,-50.43575422905974,0.0
11.944,8158.0,-53.37770460952743,0.0
11.952,8159.0,-45.59477338329157,0.0
11.96,8159.0,-33.87495404120568,0.0
11.968,8166.0,-20.37792355877923,0.0
11.976,8169.0,-7.263259997921523,0.0
11.984,8171.0,2.6154304800002137,0.0
11.992,8168.0,7.856840786400198,0.0
12.0,8175.0,10.58261569659635,0.0
12.008,8176.0,12.224591627963491,0.0
12.016,8182.0,12.772366873490455,0.0
12.024,8188.0,13.611488565940817,0.0
12.032,8196.0,14.904292962263526,0.0
12.04,8206.0,17.08660345285284,0.0
12.048,8191.0,14.76518339303152,0.0
12.056,8181.0,6.046202706429767,0.0
12.064,8185.0,-1.252668739790579,0.0
12.072,8186.0,-4.357785791868082,0.0
12.08,8243.0,6.315992675095686,0.0
12.088,8405.0,56.41274914523251,0.0
12.096,8145.0,57.46556891398882,0.0
12.104,8177.0,2.7951583085020957,0.0
12.112,8181.0,-22.60578171124689,0.0
12.12,8189.0,-31.748942537185258,0.0
12.128,8197.0,-29.07386515103235,0.0
12.136,8200.0,-20.836578598245296,0.0
12.144,8216.0,-8.924273989752692,0.0
12.152,8225.0,4.581189198848733,0.0
12.16,8245.0,17.798459411697877,0.0
12.168,8271.0,32.314512612960925,0.0
12.176,8290.0,45.19355810295974,0.0
12.184,8299.0,51.678750604448624,0.0
12.192,8281.0,45.84026675931909,1.0
12.2,8237.0,22.770820417006462,0.0
12.208,8200.0,-10.873104035814777,0.0
12.216,8187.0,-39.33661579462705,0.0
12.224,8178.0,-54.700612595328494,0.0
12.232,8182.0,-56.515100569074775,0.0
12.24,8181.0,-48.40692697180748,0.0
12.248,8185.0,-35.659802501892955,0.0
12.256,8185.0,-21.897523839336145,0.0
12.264,8183.0,-10.847213494549578,0.0
12.272,8182.0,-3.2804150465374278,0.0
12.28,8183.0,1.691926722331118,0.0
12.288,8181.0,4.171744561019295,0.0
12.296,8184.0,5.210119850370347,0.0
12.304,8184.0,5.647200090707884,0.0
12.312,8191.0,6.479612204055911,0.0
12.32,8194.0,8.032521906522106,0.0
12.328,8212.0,12.023402322062793,0.0
12.336,8195.0,12.765013534829677,0.0
12.344,8192.0,7.182257974075128,0.0
12.352,8190.0,1.7702063332274065,0.0
12.36,8192.0,-1.6988562595568055,0.0
12.368,8238.0,6.313552069932939,0.0
12.376,8449.0,62.600179976264144,0.0
12.384,8160.0,70.46160844661517,0.0
12.392,8177.0,8.858208541830209,0.0
12.4,8187.0,-23.40082731891198,0.0
12.408,8196.0,-35.04921065043095,0.0
12.416,8203.0,-33.35535812337707,0.0
12.424,8208.0,-24.844940639223523,0.0
12.432,8217.0,-13.184895971704918,0.0
12.44,8227.0,-0.408463259525206,0.0
12.448,8245.0,12.929848915060347,0.0
12.456,8267.0,27.029820004940575,0.0
12.464,8291.0,40.66831782161762,0.0
12.472,8298.0,48.90163149016939,0.0
12.48,8283.0,44.72232848295994,0.0
12.488,8240.0,23.620814888317,0.0
12.496,8205.0,-8.375244103702926,1.0
12.504,8188.0,-36.65151764339771,0.0
12.512,8183.0,-52.311874643201236,0.0
12.52,8180.0,-55.276692891961375,0.0
12.528,8185.0,-48.240880768562874,0.0
12.536,8187.0,-35.33592037353105,0.0
12.544,8187.0,-21.93800380726202,0.0
12.552,8189.0,-10.279836067389397,0.0
12.56,8187.0,-1.8266704001177914,0.0
12.568,8188.0,3.245161809023557,0.0
12.576,8187.0,5.752630181660152,0.0
12.584,8188.0,6.363376206875273,0.0
12.592,8189.0,6.16840910501719,0.0
12.6,8192.0,5.9351055506379,0.0
12.608,8197.0,6.531704751276038,0.0
12.616,8197.0,6.915753119393912,0.0
12.624,8215.0,9.771783725763271,0.0
12.632,8194.0,9.366415291215162,0.0
12.64,8187.0,1.9861988725388073,0.0
12.648,8186.0,-4.313986737959567,0.0
12.656,8189.0,-6.977253163422347,0.0
12.664,8234.0,2.3119689650206965,0.0
12.672,8455.0,61.79909709707772,0.0
12.68,8159.0,72.28765221752133,0.0
12.688,8174.0,10.122373474490814,0.0
12.696,8180.0,-23.8864238760043,0.0
12.704,8187.0,-37.72179604392659,0.0
12.712,8190.0,-38.14193456361181,0.0
12.72,8197.0,-30.564628061413487,0.0
12.728,8203.0,-18.793552389222214,0.0
12.736,8214.0,-5.509719258011273,0.0
12.744,8231.0,8.902079309791134,0.0
12.752,8249.0,23.226061775192647,0.0
12.76,8274.0,36.96083172233034,0.0
12.768,8283.0,46.4260816968831,0.0
12.776,8269.0,43.96356883171734,1.0
12.784,8227.0,24.40100066450509,0.0
12.792,8188.0,-7.416116384310726,0.0
12.8,8170.0,-36.75348315859674,0.0
12.808,8168.0,-52.617308123766634,0.0
12.816,8168.0,-54.43034472517638,0.0
12.824,8168.0,-47.25028885489496,0.0
12.832,8173.0,-34.81881002089335,0.0
12.84,8172.0,-21.37070805379244,0.0
12.848,8174.0,-9.97317030718932,0.0
12.856,8175.0,-1.107732464328592,0.0
12.864,8173.0,4.098917352754597,0.0
12.872,8174.0,6.352376394458361,0.0
12.88,8173.0,6.721973115171977,0.0
12.888,8175.0,6.125722363903833,0.0
12.896,8173.0,4.844368837423417,0.0
12.904,8185.0,5.395123221180938,0.0
12.912,8181.0,6.537280688647115,0.0
12.92,8198.0,8.87753253284086,0.0
12.928,8184.0,9.528517370572672,0.0
12.936,8168.0,2.339848298419156,0.0
12.944,8166.0,-5.9436821973874885,0.0
12.952,8168.0,-9.941416099165053,0.0
12.96,8177.0,-8.551124246848076,0.0
12.968,8497.0,60.78251462614048,0.0
12.976,8152.0,87.46344708261813,0.0
12.984,8147.0,18.476727096020568,0.0
12.992,8153.0,-24.918894465496123,0.0
13.0,8156.0,-44.9662875657898,0.0
13.008,8164.0,-47.757553774571306,0.0
13.016,8169.0,-39.51178443568824,0.0
13.024,8174.0,-26.60178890296129,0.0
13.032,8182.0,-12.277782921271182,0.0
13.04,8194.0,2.140883899072378,0.0
13.048,8214.0,16.88110279464786,0.0
13.056,8236.0,31.61970413007839,1.0
13.064,8244.0,41.67119302238416,0.0
13.072,8234.0,40.88918060685319,0.0
13.08,8193.0,23.808075299926713,0.0
13.088,8151.0,-6.86021586900938,0.0
13.096,8128.0,-37.23685658596719,0.0
13.104,8119.0,-56.09363122201489,0.0
13.112,8119.0,-60.57974748032893,0.0
13.12,8119.0,-54.0482244703162,0.0
13.128,8119.0,-41.99114374366718,0.0
13.136,8118.0,-28.69855387071084,0.0
13.144,8116.0,-17.099201097541254,0.0
13.152,8114.0,-8.464125571061686,0.0
13.16,8112.0,-2.891298095051525,0.0
13.168,8108.0,-0.3829871403413563,0.0
13.176,8108.0,0.3412858969240915,0.0
13.184,8108.0,0.7178768067938108,0.0
13.192,8106.0,0.4231518040935498,0.0
13.2,8111.0,0.7975995881204199,0.0
13.208,8115.0,2.736829296978158,0.0
13.216,8122.0,5.716059991574639,0.0
13.224,8127.0,9.062959840324766,0.0
13.232,8105.0,6.195145193884855,0.0
13.24,8100.0,-1.9562550518614898,0.0
13.248,8099.0,-7.706193308131105,0.0
13.256,8097.0,-10.55124992108972,0.0
13.264,8247.0,19.602404314226987,0.0
13.272,8250.0,65.72129596513764,0.0
13.28,8072.0,47.279163995524414,0.0
13.288,8092.0,-3.075092007044077,0.0
13.296,8096.0,-27.48507596467357,0.0
13.304,8101.0,-35.915330880633974,0.0
13.312,8108.0,-33.004171761103635,0.0
13.32,8114.0,-23.62278433845063,0.0
13.328,8129.0,-10.202837035967605,0.0
13.336,8142.0,5.000991278549236,0.0
13.344,8162.0,19.976228173735535,0.0
13.352,8185.0,34.58886205029012,0.0
13.36,8204.0,46.567304499613556,0.0
13.368,8209.0,51.49440238167085,1.0
13.376,8188.0,43.33230754370538,0.0
13.384,8145.0,18.86031606204847,0.0
13.392,8115.0,-13.385786061802264,0.0
13.4,8102.0,-39.21156997609887,0.0
13.408,8100.0,-51.60447153007499,0.0
13.416,8106.0,-50.29256278506159,0.0
13.424,8109.0,-40.053048552303835,0.0
13.432,8112.0,-26.699096844554788,0.0
13.44,8113.0,-13.9364902990485,0.0
13.448,8116.0,-3.4585661029670973,0.0
13.456,8115.0,3.6710220855820808,0.0
13.464,8119.0,7.943780980367592,0.0
13.472,8121.0,10.492117531653548,0.0
13.48,8120.0,10.612771529981956,0.0
13.488,8125.0,9.892307971388163,0.0
13.496,8128.0,9.600842952952462,0.0
13.504,8138.0,10.628780622514796,0.0
13.512,8144.0,12.894065855552753,0.0
13.52,8165.0,17.79498148548214,0.0
13.528,8146.0,18.40404732220736,0.0
13.536,8134.0,9.64065149492967,0.0
13.544,8135.0,0.7490480229232617,0.0
13.552,8138.0,-3.8057928361604354,0.0
13.56,8140.0,-4.9010109740772805,0.0
13.568,8479.0,64.86091102374166,0.0
13.576,8158.0,99.96173182597386,0.0
13.584,8130.0,34.26393326007769,0.0
13.592,8133.0,-14.891973825476498,0.0
13.6,8139.0,-39.86618980977937,0.0
13.608,8146.0,-45.93580431987243,0.0
13.616,8156.0,-39.087840184798324,0.0
13.624,8169.0,-24.412868581727025,0.0
13.632,8182.0,-6.721014103431116,0.0
13.64,8199.0,10.889929266621493,0.0
13.648,8220.0,27.417401649876183,0.0
13.656,8246.0,42.637058601593935,0.0
13.664,8260.0,53.34569025439032,0.0
13.672,8256.0,53.63392929567863,1.0
13.68,8223.0,38.11372614259244,0.0
13.688,8182.0,8.038351828739678,0.0
13.696,8158.0,-24.246437555409102,0.0
13.704,8155.0,-45.17968490303633,0.0
13.712,8159.0,-50.50549854111796,0.0
13.72,8164.0,-44.159238808770624,0.0
13.728,8171.0,-31.259399538159414,0.0
13.736,8174.0,-16.848153677769233,0.0
13.744,8176.0,-4.749483548562239,0.0
13.752,8176.0,3.5343294349352163,0.0
13.76,8177.0,8.101817541282799,0.0
13.768,8182.0,10.800496254380732,0.0
13.776,8184.0,12.189113450847117,0.0
13.784,8185.0,11.775228371456251,0.0
13.792,8189.0,10.76669792964708,0.0
13.8,8196.0,10.785205265776767,0.0
13.808,8200.0,11.40829511999641,0.0
13.816,8206.0,12.090165477875644,0.0
13.824,8227.0,16.176532947126134,0.0
13.832,8204.0,15.732048949015962,0.0
13.84,8197.0,6.954992802833203,0.0
13.848,8201.0,0.09689479296753234,0.0
13.856,8201.0,-3.156460160910683,0.0
13.864,8265.0,8.473320455648263,0.0
13.872,8465.0,68.00191575901226,0.0
13.88,8192.0,77.98317562085936,0.0
13.888,8201.0,18.12748873642977,0.0
13.896,8204.0,-17.56779717704876,0.0
13.904,8209.0,-34.38003841156933,0.0
13.912,8218.0,-36.250138993779274,0.0
13.92,8225.0,-28.591351257290626,0.0
13.928,8235.0,-16.254056475291463,0.0
13.936,8250.0,-1.3859732570278993,0.0
13.944,8266.0,13.950442105093543,0.0
13.952,8288.0,28.668752503255973,0.0
13.96,8309.0,41.81155118271772,0.0
13.968,8315.0,48.76117822986362,0.0
13.976,8302.0,44.04830026743957,1.0
13.984,8258.0,22.937722781580987,0.0
13.992,8223.0,-9.164432578821788,0.0
14.0,8208.0,-36.97519939927497,0.0
14.008,8204.0,-51.6982800450935,0.0
14.016,8206.0,-52.97601784111953,0.0
14.024,8210.0,-44.474075315755954,0.0
14.032,8210.0,-31.886042458994098,0.0
14.04,8210.0,-19.607200177352297,0.0
14.048,8207.0,-9.985732587872462,0.0
14.056,8208.0,-3.190259239375564,0.0
14.064,8206.0,1.1079526284288477,0.0
14.072,8207.0,3.2776285205561635,0.0
14.08,8208.0,4.4724457437193905,0.0
14.088,8206.0,4.296682290285844,0.0
14.096,8207.0,3.3370074984127314,0.0
14.104,8214.0,3.897934277987815,0.0
14.112,8213.0,4.864497550785018,0.0
14.12,8237.0,9.397525189087446,0.0
14.128,8216.0,11.266476992038406,0.0
14.136,8205.0,4.126014734002638,0.0
14.144,8203.0,-3.3783061245073895,0.0
14.152,8204.0,-7.5084588486863595,0.0
14.16,8205.0,-8.404051724849296,0.0
14.168,8537.0,60.372624055126835,0.0
14.176,8230.0,97.00135492031723,0.0
14.184,8195.0,34.08609369846636,0.0
14.192,8192.0,-16.0531735283505,0.0
14.2,8197.0,-42.86300126798619,0.0
14.208,8200.0,-50.58534567564993,0.0
14.216,8207.0,-45.43998369714268,0.0
14.224,8218.0,-31.83037239023679,0.0
14.232,8228.0,-14.665493226573062,0.0
14.24,8240.0,2.2038680242806095,0.0
14.248,8258.0,17.97527278043026,0.0
14.256,8280.0,32.74922500034086,0.0
14.264,8291.0,43.2632741241498,0.0
14.272,8290.0,44.965050671443805,1.0
14.28,8254.0,31.595115591350122,0.0
14.288,8213.0,3.1668020998361044,0.0
14.296,8186.0,-28.018236262125583,0.0
14.304,8180.0,-48.95504840982426,0.0
14.312,8183.0,-54.52778389196601,0.0
14.32,8179.0,-49.760735638002416,0.0
14.328,8182.0,-39.6014971116997,0.0
14.336,8181.0,-27.180684149876924,0.0
14.344,8182.0,-15.714123297650303,0.0
14.352,8182.0,-6.346070715984524,0.0
14.36,8181.0,-0.04798146145344617,0.0
14.368,8177.0,2.662468575045523,0.0
14.376,8181.0,3.861762595831806,0.0
14.384,8186.0,5.82424172953597,0.0
14.392,8189.0,7.736231455795178,0.0
14.4,8194.0,9.328481619110562,0.0
14.408,8198.0,10.694535237485297,0.0
14.416,8222.0,15.601422401073478,0.0
14.424,8204.0,17.3637925389703,0.0
14.432,8194.0,10.053076350725405,0.0
14.44,8193.0,1.9580567461705414,0.0
14.448,8198.0,-2.3089857198958725,0.0
14.456,8195.0,-4.073836461894416,0.0
14.464,8517.0,60.67203836364342,0.0
14.472,8201.0,90.98984978455519,0.0
14.48,8184.0,27.09244376145898,0.0
14.488,8194.0,-16.234016848540932,0.0
14.496,8194.0,-37.35293741026544,0.0
14.504,8203.0,-42.34077858935939,0.0
14.512,8210.0,-35.602404648575884,0.0
14.52,8219.0,-22.950783443371392,0.0
14.528,8233.0,-7.290106892234007,0.0
14.536,8248.0,9.001581560051363,0.0
14.544,8268.0,24.42224208833727,0.0
14.552,8289.0,38.21562893072678,1.0
14.56,8299.0,46.912400299838055,0.0
14.568,8300.0,47.19049200267659,0.0
14.576,8268.0,33.866993824712154,0.0
14.584,8225.0,5.530301132933118,0.0
14.592,8195.0,-26.980391311524727,0.0
14.6,8191.0,-49.062843467122775,0.0
14.608,8190.0,-55.70536720679161,0.0
14.616,8192.0,-50.983852785976296,0.0
14.624,8192.0,-40.053201423968176,0.0
14.632,8191.0,-27.7205949503425,0.0
14.64,8190.0,-16.63294406824639,0.0
14.648,8194.0,-6.941072495546678,0.0
14.656,8191.0,0.047333717902802164,0.0
14.664,8191.0,3.5601868082096644,0.0
14.672,8193.0,5.506517640436414,0.0
14.68,8190.0,5.61842059127639,0.0
14.688,8197.0,5.649984230613654,0.0
14.696,8201.0,7.059355683393733,0.0
14.704,8218.0,11.112891300874026,0.0
14.712,8204.0,12.438202563378582,0.0
14.72,8189.0,5.411487231824367,0.0
14.728,8186.0,-3.24196080709703,0.0
14.736,8190.0,-7.663775362186698,0.0
14.744,8191.0,-8.095406274694597,0.0
14.752,8506.0,57.43574753926305,0.0
14.76,8168.0,82.78390764305095,0.0
14.768,8172.0,16.98727488693703,0.0
14.776,8174.0,-23.274411688545342,0.0
14.784,8185.0,-40.90052050709619,0.0
14.792,8195.0,-40.833253216648245,0.0
14.8,8201.0,-31.3338551013685,0.0
14.808,8210.0,-17.900832070554543,0.0
14.816,8219.0,-3.5651721245505996,0.0
14.824,8235.0,10.56095631673702,0.0
14.832,8253.0,24.260187781211926,0.0
14.84,8277.0,37.26439448327642,0.0
14.848,8288.0,46.45586768574594,0.0
14.856,8279.0,45.25703355153064,1.0
14.864,8243.0,28.49300745090568,0.0
14.872,8202.0,-1.4722496649126242,0.0
14.88,8174.0,-33.06719977232888,0.0
14.888,8169.0,-53.480950587063035,0.0
14.896,8167.0,-58.875371564980924,0.0
14.904,8170.0,-52.93512115073008,0.0
14.912,8177.0,-39.353469421172804,0.0
14.92,8175.0,-24.333348385708632,0.0
14.928,8172.0,-12.78275485574818,0.0
14.936,8174.0,-4.218037191724989,0.0
14.944,8171.0,1.2823261164292035,0.0
14.952,8172.0,3.9322144852180827,0.0
14.96,8173.0,5.311785616770294,0.0
14.968,8180.0,6.956738906995952,0.0
14.976,8183.0,8.917846081994412,0.0
14.984,8199.0,12.607306566334955,0.0
14.992,8195.0,15.32944082048516,0.0
15.0,8173.0,9.3033609298609,0.0
15.008,8168.0,-1.1870743678894087,0.0
15.016,8171.0,-7.619727671271221,0.0
15.024,8167.0,-10.473048400109292,0.0
15.032,8390.0,34.16922070238911,0.0
15.04,8197.0,61.519152607426804,0.0
15.048,8139.0,17.087320672711257,0.0
15.056,8165.0,-18.317857364439078,0.0
15.064,8168.0,-30.554493991142863,0.0
15.072,8175.0,-31.115790537678322,0.0
15.08,8180.0,-24.27860937847049,0.0
15.088,8192.0,-13.081073945930711,0.0
15.096,8200.0,-0.3896082530920921,0.0
15.104,8215.0,11.874091803300644,0.0
15.112,8234.0,24.272799352028414,0.0
15.12,8250.0,35.07586052126658,0.0
15.128,8273.0,44.11459076257324,0.0
15.136,8272.0,47.26640639569314,1.0
15.144,8244.0,36.03951594303999,0.0
15.152,8201.0,9.430576904300324,0.0
15.16,8168.0,-23.262555194761035,0.0
15.168,8157.0,-48.05957794300002,0.0
15.176,8153.0,-58.50260939439045,0.0
15.184,8160.0,-55.196012387357996,0.0
15.192,8166.0,-42.21621867024737,0.0
15.2,8160.0,-28.139513016081764,0.0
15.208,8165.0,-15.752591006183138,0.0
15.216,8160.0,-6.038707018812147,0.0
15.224,8164.0,0.41730639446495843,0.0
15.232,8167.0,5.602219278726579,0.0
15.24,8165.0,8.023506466636263,0.0
15.248,8173.0,9.464798378056685,0.0
15.256,8169.0,9.699404183962088,0.0
15.264,8183.0,10.41061375287245,0.0
15.272,8186.0,12.725964006207278,0.0
15.28,8166.0,8.69273796193761,0.0
15.288,8161.0,-0.11794755848973182,0.0
15.296,8165.0,-5.514991032212038,0.0
15.304,8159.0,-8.279257557077926,0.0
15.312,8332.0,25.459430605068974,0.0
15.32,8247.0,59.53095751156434,0.0
15.328,8132.0,29.795041662937138,0.0
15.336,8154.0,-11.307986608257806,0.0
15.344,8159.0,-28.38570326594686,0.0
15.352,8170.0,-30.913015889198277,0.0
15.36,8177.0,-24.043471480938024,0.0
15.368,8184.0,-13.475348629872997,0.0
15.376,8193.0,-1.913543101373989,0.0
15.384,8210.0,10.526026779809172,0.0
15.392,8223.0,22.415922725186874,0.0
15.4,8250.0,34.22110208675235,0.0
15.408,8267.0,45.00357896419973,0.0
15.416,8269.0,48.438959905776755,0.0
15.424,8242.0,38.019199853929194,0.0
15.432,8198.0,11.587452955556273,0.0
15.44,8167.0,-21.123595047507024,0.0
15.448,8153.0,-46.459805661616656,0.0
15.456,8153.0,-57.25995546440208,0.0
15.464,8157.0,-54.14865784075573,0.0
15.472,8160.0,-42.66896011449535,0.0
15.48,8163.0,-28.184962863589135,0.0
15.488,8166.0,-14.120172771389662,0.0
15.496,8162.0,-3.865795063177984,0.0
15.504,8163.0,2.1718246965665458,0.0
15.512,8165.0,6.026091282685911,0.0
15.52,8164.0,7.5961724446165135,0.0
15.528,8165.0,7.3730464515335825,0.0
15.536,8170.0,7.3490541832725285,0.0
15.544,8174.0,8.059369255540332,0.0
15.552,8185.0,10.32206527507924,0.0
15.56,8195.0,14.385590349148515,0.0
15.568,8176.0,12.769019663278414,0.0
15.576,8171.0,4.973828541810008,0.0
15.584,8173.0,-1.0032282245549595,0.0
15.592,8172.0,-4.181647677685305,0.0
15.6,8284.0,17.250018940904738,0.0
15.608,8333.0,60.20179747766906,0.0
15.616,8139.0,46.85248588260788,0.0
15.624,8168.0,-1.8553008783776477,0.0
15.632,8171.0,-23.842093779378956,0.0
15.64,8177.0,-31.391596598451997,0.0
15.648,8184.0,-28.441112829480062,0.0
15.656,8193.0,-19.115379995049125,0.0
15.664,8205.0,-6.41172242576863,0.0
15.672,8217.0,6.9765123009856325,0.0
15.68,8235.0,19.965595363648617,0.0
15.688,8256.0,32.588029900335414,0.0
15.696,8277.0,43.69282151180414,0.0
15.704,8281.0,48.743350102786735,0.0
15.712,8260.0,40.867043155738884,0.0
15.72,8218.0,17.142130165815615,0.0
15.728,8183.0,-15.218857004430902,0.0
15.736,8169.0,-42.06047350006406,0.0
15.744,8164.0,-55.43941266395586,0.0
15.752,8165.0,-55.7636291887502,0.0
15.76,8167.0,-46.88804344466325,0.0
15.768,8171.0,-33.3044508941889,0.0
15.776,8170.0,-19.60888631714579,0.0
15.784,8169.0,-8.945015034779772,0.0
15.792,8169.0,-1.4865501016461167,0.0
15.8,8168.0,2.9454514813412516,0.0
15.808,8166.0,4.507062226893595,0.0
15.816,8167.0,4.54297159046132,0.0
15.824,8169.0,4.488342685824591,0.0
15.832,8177.0,5.818557755488428,0.0
15.84,8179.0,7.7660909627818455,0.0
15.848,8194.0,11.213541847181205,0.0
15.856,8177.0,11.143651665386187,0.0
15.864,8169.0,4.305288993334898,0.0
15.872,8169.0,-2.0260466403371993,0.0
15.88,8172.0,-4.85031303828714,0.0
15.888,8188.0,-1.903499161104719,0.0
15.896,8484.0,63.86969183014685,0.0
15.904,8156.0,86.54682300548302,0.0
15.912,8161.0,20.84735482743463,0.0
15.92,8164.0,-19.533500809489624,0.0
15.928,8171.0,-38.41015473241691,0.0
15.936,8174.0,-41.707335668754695,0.0
15.944,8184.0,-34.678047944118816,0.0
15.952,8192.0,-21.585922545158382,0.0
15.96,8203.0,-6.688864859516343,0.0
15.968,8218.0,8.447162792813515,0.0
15.976,8238.0,23.26842385840814,0.0
15.984,8260.0,37.08656013375071,1.0
15.992,8266.0,45.35624596036109,0.0
16.0,8258.0,42.961780627443204,0.0
16.008,8219.0,25.4300459936685,0.0
16.016,8177.0,-5.342054869714502,0.0
16.024,8157.0,-35.39735712299057,0.0
16.032,8152.0,-52.9128767823413,0.0
16.04,8155.0,-55.65791120552876,0.0
16.048,8156.0,-48.02572044538533,0.0
16.056,8159.0,-35.41358602530613,0.0
16.064,8158.0,-22.17707122833781,0.0
16.072,8161.0,-10.578110785882018,0.0
16.08,8159.0,-1.9104374243925122,0.0
16.088,8157.0,2.6880518781927094,0.0
16.096,8157.0,4.591448828990224,0.0
16.104,8160.0,5.633899283139499,0.0
16.112,8161.0,6.213440429444063,0.0
16.12,8163.0,6.227051671564141,0.0
16.128,8169.0,6.925413397877946,0.0
16.136,8169.0,7.514253902261089,0.0
16.144,8181.0,9.174853511525953,0.0
16.152,8183.0,11.626124835510382,0.0
16.16,8163.0,7.635730064241443,0.0
16.168,8158.0,-0.9893702382910305,0.0
16.176,8161.0,-6.348841780335533,0.0
16.184,8155.0,-9.168767535299367,0.0
16.192,8307.0,20.3815467516265,0.0
16.2,8297.0,63.778187894327175,0.0
16.208,8133.0,44.22502040531867,0.0
16.216,8148.0,-4.484548535290969,0.0
16.224,8149.0,-29.342583624149256,0.0
16.232,8154.0,-38.36909762714572,0.0
16.24,8164.0,-34.82564267405655,0.0
16.248,8167.0,-24.794160047755668,0.0
16.256,8176.0,-12.65086054845392,0.0
16.264,8189.0,0.9433046738120083,0.0
16.272,8204.0,14.560278532499296,0.0
16.28,8229.0,28.57785730822161,0.0
16.288,8245.0,40.911423597244266,0.0
16.296,8250.0,46.293136963572124,1.0
16.304,8226.0,38.575571730998035,0.0
16.312,8180.0,13.861846674520393,0.0
16.32,8149.0,-18.58659262571564,0.0
16.328,8129.0,-45.37794134429191,0.0
16.336,8131.0,-58.019884120579945,0.0
16.344,8129.0,-56.69980896821039,0.0
16.352,8135.0,-46.505555107991086,0.0
16.36,8134.0,-32.40439497842317,0.0
16.368,8136.0,-18.94780253758131,0.0
16.376,8134.0,-8.116885438060535,0.0
16.384,8134.0,-0.8894849300208989,0.0
16.392,8134.0,3.519644229739015,0.0
16.4,8134.0,5.5935763366780975,0.0
16.408,8136.0,6.380645817975164,0.0
16.416,8132.0,5.470134543271797,0.0
16.424,8130.0,2.8765177673406015,0.0
16.432,8137.0,1.9280471569686597,0.0
16.44,8138.0,2.709215089399322,0.0
16.448,8144.0,4.190553301209775,0.0
16.456,8150.0,6.882886825600963,0.0
16.464,8129.0,4.367089184117276,0.0
16.472,8120.0,-3.9118763896453856,0.0
16.48,8122.0,-9.645062116969939,0.0
16.488,8118.0,-11.981955090824613,0.0
16.496,8245.0,13.581617466412581,0.0
16.504,8294.0,62.59768369134122,0.0
16.512,8094.0,51.2457322619025,0.0
16.52,8109.0,-1.032903482649317,0.0
16.528,8113.0,-27.912086453868824,0.0
16.536,8119.0,-37.533580941075115,0.0
16.544,8129.0,-34.264369832768125,0.0
16.552,8139.0,-23.050064381758602,0.0
16.56,8151.0,-8.428662660273403,0.0
16.568,8166.0,7.012417215849837,0.0
16.576,8184.0,21.823008379532666,0.0
16.584,8210.0,36.26257818859426,0.0
16.592,8233.0,49.31502148158961,0.0
16.6,8240.0,55.686500310730025,1.0
16.608,8220.0,48.35594092920769,0.0
16.616,8177.0,23.818376852363826,0.0
16.624,8141.0,-10.44401028012203,0.0
16.632,8126.0,-39.54263635054963,0.0
16.64,8126.0,-53.82089778995328,0.0
16.648,8129.0,-53.49225221475376,0.0
16.656,8132.0,-43.96202998753074,0.0
16.664,8131.0,-31.252107974583623,0.0
16.672,8135.0,-18.384390124484298,0.0
16.68,8139.0,-6.352745864755661,0.0
16.688,8136.0,1.9302007969274655,0.0
16.696,8135.0,5.718877276290414,0.0
16.704,8137.0,7.296745826778761,0.0
16.712,8140.0,8.145126013489971,0.0
16.72,8141.0,8.229162710060791,0.0
16.728,8142.0,7.439825322934212,0.0
16.736,8151.0,7.888055401766223,0.0
16.744,8155.0,9.61312634199021,0.0
16.752,8165.0,12.03607857057682,0.0
16.76,8184.0,17.568920849975257,0.0
16.768,8164.0,17.973078053144263,0.0
16.776,8159.0,10.379644571719382,0.0
16.784,8160.0,3.4980205992264928,0.0
16.792,8164.0,-0.0805975631860747,0.0
16.8,8232.0,12.524892446804188,0.0
16.808,8407.0,67.72593723010755,0.0
16.816,8143.0,71.92091926247554,0.0
16.824,8152.0,11.401054247258799,0.0
16.832,8156.0,-23.46291782966341,0.0
16.84,8158.0,-39.29835320652205,0.0
16.848,8165.0,-40.86660196026946,0.0
16.856,8172.0,-32.73799092265085,0.0
16.864,8184.0,-19.08556224830022,0.0
16.872,8200.0,-2.3975188445424465,0.0
16.88,8220.0,15.19008434321131,0.0
16.888,8243.0,32.07330323626343,0.0
16.896,8263.0,45.98025515389054,0.0
16.904,8272.0,53.158378087694246,0.0
16.912,8255.0,47.70966399096892,1.0
16.92,8211.0,24.791604973892618,0.0
16.928,8178.0,-8.25196075825761,0.0
16.936,8159.0,-37.16641926748639,0.0
16.944,8159.0,-52.513230169420694,0.0
16.952,8160.0,-53.42338247964176,0.0
16.96,8164.0,-44.840525568619114,0.0
16.968,8169.0,-31.127577772353334,0.0
16.976,8169.0,-17.276950727534313,0.0
16.984,8171.0,-6.057721420482039,0.0
16.992,8172.0,2.1086368380717886,0.0
17.0,8171.0,6.618513415230609,0.0
17.008,8172.0,8.282202232791178,0.0
17.016,8175.0,8.827628736706629,0.0
17.024,8175.0,8.424722831679901,0.0
17.032,8177.0,7.317759170016416,0.0
17.04,8181.0,6.779448966111659,0.0
17.048,8189.0,7.884858606286343,0.0
17.056,8193.0,9.79476830328963,0.0
17.064,8217.0,15.15970634277528,0.0
17.072,8196.0,16.647033908855292,0.0
17.08,8187.0,8.873725417038486,0.0
17.088,8188.0,1.2968354816646297,0.0
17.096,8190.0,-2.7678378281316327,0.0
17.104,8186.0,-5.160643686282356,0.0
17.112,8523.0,62.23884386232976,0.0
17.12,8213.0,98.17876857588044,0.0
17.128,8180.0,34.47333789946333,0.0
17.136,8179.0,-15.37474173460646,0.0
17.144,8179.0,-42.72812235262654,0.0
17.152,8186.0,-50.99667309637357,0.0
17.16,8193.0,-45.29477125527592,0.0
17.168,8204.0,-31.37803911134415,0.0
17.176,8214.0,-14.100108255166106,0.0
17.184,8230.0,3.567595842293713,0.0
17.192,8247.0,20.217284480744866,0.0
17.2,8270.0,35.17073690341931,0.0
17.208,8285.0,46.44531648596558,0.0
17.216,8278.0,47.70583266294648,1.0
17.224,8247.0,33.455101202356445,0.0
17.232,8206.0,5.245394532082855,0.0
17.24,8178.0,-26.329800087828744,0.0
17.248,8176.0,-47.14043438379895,0.0
17.256,8176.0,-52.709364573236144,0.0
17.264,8180.0,-47.19425558631974,0.0
17.272,8184.0,-35.143016426310396,0.0
17.28,8184.0,-21.87063405772301,0.0
17.288,8186.0,-10.29692108463064,0.0
17.296,8185.0,-1.68681071262381,0.0
17.304,8187.0,3.8652356053055428,0.0
17.312,8186.0,6.766992127958247,0.0
17.32,8186.0,7.2528294467172145,0.0
17.328,8187.0,6.644839107688995,0.0
17.336,8191.0,6.299342704125138,0.0
17.344,8191.0,5.957165289784143,0.0
17.352,8198.0,6.281731327994066,0.0
17.36,8199.0,7.155701126750273,0.0
17.368,8209.0,8.834985739277954,0.0
17.376,8218.0,12.370339430781769,0.0
17.384,8197.0,10.134042413287261,0.0
17.392,8194.0,2.371839813955603,0.0
17.4,8194.0,-3.191215391158721,0.0
17.408,8194.0,-5.997371147486547,0.0
17.416,8327.0,20.42435485214719,0.0
17.424,8344.0,63.598670420614326,0.0
17.432,8166.0,46.59714763737816,0.0
17.44,8188.0,-2.393131088699647,0.0
17.448,8193.0,-25.48695198549308,0.0
17.456,8194.0,-34.054671890047075,0.0
17.464,8202.0,-32.119809676255954,0.0
17.472,8213.0,-22.224077418937895,0.0
17.48,8220.0,-9.32491038067974,0.0
17.488,8230.0,3.1905162333059707,0.0
17.496,8249.0,16.03312288444795,0.0
17.504,8267.0,28.756539108917195,0.0
17.512,8285.0,39.2761454071333,0.0
17.52,8292.0,44.650216598175575,0.0
17.528,8276.0,39.22022615829792,0.0
17.536,8232.0,17.804640085587607,0.0
17.544,8197.0,-13.699660925331955,0.0
17.552,8180.0,-40.877865168952894,0.0
17.56,8180.0,-54.22655750538593,0.0
17.568,8179.0,-54.103866791326254,0.0
17.576,8176.0,-46.64572618346301,0.0
17.584,8179.0,-35.162951452535026,0.0
17.592,8181.0,-22.019434800557065,0.0
17.6,8177.0,-11.316576148041577,0.0
17.608,8176.0,-4.29270078825175,0.0
17.616,8177.0,0.5120316282354906,0.0
17.624,8174.0,2.867310771069697,0.0
17.632,8176.0,3.621199991810954,0.0
17.64,8178.0,4.335235469805411,0.0
17.648,8175.0,3.8959411819789693,0.0
17.656,8185.0,4.475578365660795,0.0
17.664,8185.0,6.182832575904968,0.0
17.672,8203.0,9.932524341269982,0.0
17.68,8198.0,13.300108657057763,0.0
17.688,8179.0,8.372019226537986,0.0
17.696,8176.0,-0.3063598064634334,0.0
17.704,8175.0,-6.209494393832074,0.0
17.712,8170.0,-9.984970758995132,0.0
17.72,8463.0,48.13469556576183,0.0
17.728,8174.0,76.02598570701457,0.0
17.736,8152.0,17.456855553802598,0.0
17.744,8167.0,-21.25760258527066,0.0
17.752,8179.0,-35.4142435824931,0.0
17.76,8188.0,-34.12692308116357,0.0
17.768,8193.0,-25.33134796346826,0.0
17.776,8202.0,-13.42891644993324,0.0
17.784,8212.0,-0.47214017183046053,0.0
17.792,8224.0,11.756676116039898,0.0
17.8,8241.0,23.131050944173012,0.0
17.808,8269.0,35.54443420939583,1.0
17.816,8279.0,45.26016415727281,0.0
17.824,8282.0,46.79996643367372,0.0
17.832,8254.0,35.5076550404774,0.0
17.84,8208.0,8.32776008308656,0.0
17.848,8180.0,-24.12723270922288,0.0
17.856,8165.0,-48.44802412235572,0.0
17.864,8168.0,-57.937617648574815,0.0
17.872,8167.0,-54.35711926626436,0.0
17.88,8168.0,-43.99843754228095,0.0
17.888,8174.0,-29.77154201221174,0.0
17.896,8171.0,-16.231159800684054,0.0
17.904,8174.0,-5.762564673645102,0.0
17.912,8174.0,1.9151205216498965,0.0
17.92,8171.0,5.552433539657386,0.0
17.928,8177.0,7.474622472326246,0.0
17.936,8174.0,8.091063317784574,0.0
17.944,8178.0,7.433225540209605,0.0
17.952,8185.0,8.164525700601644,0.0
17.96,8188.0,9.402185186876977,0.0
17.968,8195.0,10.75166095689724,0.0
17.976,8176.0,7.468050102943835,0.0
17.984,8174.0,0.10356620244692749,0.0
17.992,8169.0,-5.697585064048326,0.0
18.0,8168.0,-9.490360158079284,0.0
18.008,8302.0,16.877459155181214,0.0
18.016,8283.0,53.407116801032316,0.0
18.024,8135.0,32.795309155391806,0.0
18.032,8161.0,-9.291336436703432,0.0
18.04,8172.0,-25.213502482859667,0.0
18.048,8177.0,-27.538367461190774,0.0
18.056,8184.0,-22.286537329535577,0.0
18.064,8194.0,-12.328597517064964,0.0
18.072,8199.0,-1.5058150602890237,0.0
18.08,8213.0,9.004775640893968,0.0
18.088,8229.0,19.984516108040225,0.0
18.096,8249.0,30.802857665260717,0.0
18.104,8267.0,40.294161547768454,0.0
18.112,8271.0,44.29285064947453,0.0
18.12,8251.0,36.673536635299115,0.0
18.128,8207.0,13.532093104332944,0.0
18.136,8175.0,-17.73220613600256,0.0
18.144,8160.0,-43.13558815469378,0.0
18.152,8157.0,-55.296656923968385,0.0
18.16,8161.0,-53.900766238861934,0.0
18.168,8162.0,-43.88174228946241,0.0
18.176,8167.0,-30.077713009358604,0.0
18.184,8167.0,-16.33239241527417,0.0
18.192,8167.0,-5.727249007384671,0.0
18.2,8164.0,0.8000313984373406,0.0
18.208,8166.0,4.334659242110774,0.0
18.216,8166.0,6.17644846513781,0.0
18.224,8168.0,6.737858733010853,0.0
18.232,8170.0,6.865540223039943,0.0
18.24,8177.0,7.738861329425617,0.0
18.248,8184.0,9.942250809214784,0.0
18.256,8193.0,13.006782328101963,0.0
18.264,8175.0,11.00845207135103,0.0
18.272,8168.0,3.0501109724784783,0.0
18.28,8168.0,-3.548977428697981,0.0
18.288,8175.0,-5.483494791345265,0.0
18.296,8221.0,5.0317410521902275,0.0
18.304,8404.0,57.272451623868164,0.0
18.312,8130.0,60.892967040618714,0.0
18.32,8157.0,3.3397377353517186,0.0
18.328,8168.0,-23.440059531268844,0.0
18.336,8169.0,-33.27218789493236,0.0
18.344,8177.0,-32.20372856904123,0.0
18.352,8185.0,-23.420564929495185,0.0
18.36,8197.0,-10.589365859698773,0.0
18.368,8207.0,3.0990751068759437,0.0
18.376,8222.0,15.832060769195323,0.0
18.384,8245.0,28.725431535799544,0.0
18.392,8266.0,40.98467153971137,0.0
18.4,8275.0,48.15003062960341,0.0
18.408,8265.0,44.8831983772684,1.0
18.416,8221.0,25.114132005159036,0.0
18.424,8184.0,-6.933226870268754,0.0
18.432,8165.0,-36.27566920703748,0.0
18.44,8158.0,-53.440743032213504,0.0
18.448,8161.0,-56.307095261280665,0.0
18.456,8163.0,-48.44392686175206,0.0
18.464,8164.0,-35.83608844182186,0.0
18.472,8167.0,-22.129456290319467,0.0
18.48,8166.0,-10.25968820605317,0.0
18.488,8168.0,-1.480136273244625,0.0
18.496,8166.0,3.9364823956152577,0.0
18.504,8167.0,6.338743726903658,0.0
18.512,8167.0,7.002709573976517,0.0
18.52,8169.0,6.742286102220987,0.0
18.528,8178.0,7.8133710021804745,0.0
18.536,8179.0,9.305217820392045,0.0
18.544,8197.0,12.658428375479161,0.0
18.552,8182.0,13.335246887427502,0.0
18.56,8167.0,5.584710680236412,0.0
18.568,8169.0,-2.5015624291611402,0.0
18.576,8170.0,-6.291602150741255,0.0
18.584,8176.0,-6.149038474918825,0.0
18.592,8494.0,61.06100733401854,0.0
18.6,8157.0,87.66963251747916,0.0
18.608,8155.0,20.85619905049907,0.0
18.616,8160.0,-21.20629883192578,0.0
18.624,8166.0,-40.61955645715989,0.0
18.632,8173.0,-43.28621008541404,0.0
18.64,8180.0,-35.44035272819929,0.0
18.648,8190.0,-21.95403581591927,0.0
18.656,8199.0,-6.768043602302669,0.0
18.664,8215.0,8.346563061223605,0.0
18.672,8231.0,22.557505423189014,0.0
18.68,8255.0,35.71388220086146,0.0
18.688,8267.0,45.434725322920485,0.0
18.696,8263.0,45.92958186746205,0.0
18.704,8226.0,30.88243867613528,0.0
18.712,8186.0,1.5702773050925316,1.0
18.72,8163.0,-28.87391111079023,0.0
18.728,8156.0,-48.629952941851116,0.0
18.736,8157.0,-54.16657358845259,0.0
18.744,8159.0,-48.615727528636626,0.0
18.752,8163.0,-36.73644324647148,0.0
18.76,8162.0,-23.52847321955096,0.0
18.768,8162.0,-12.35440808683984,0.0
18.776,8163.0,-3.668709473750141,0.0
18.784,8163.0,2.2285188508135434,0.0
18.792,8162.0,5.173959373443722,0.0
18.8,8163.0,6.131454730974156,0.0
18.808,8164.0,6.176716645821216,0.0
18.816,8164.0,5.4713221417353,0.0
18.824,8170.0,5.45044092345006,0.0
18.832,8172.0,6.2461472216616585,0.0
18.84,8190.0,9.855753455600052,0.0
18.848,8176.0,11.31342337277556,0.0
18.856,8163.0,4.944116181583013,0.0
18.864,8159.0,-3.045381974814063,0.0
18.872,8163.0,-7.308642159553983,0.0
18.88,8156.0,-9.33475325855602,0.0
18.888,8474.0,54.41982311161928,0.0
18.896,8176.0,87.95950343054255,0.0
18.904,8148.0,27.857047408133894,0.0
18.912,8153.0,-16.60982215443414,0.0
18.92,8159.0,-38.14190134614773,0.0
18.928,8166.0,-42.437264315489074,0.0
18.936,8174.0,-35.47903235243007,0.0
18.944,8180.0,-23.12469382022755,0.0
18.952,8190.0,-9.043568656027219,0.0
18.96,8208.0,6.375520386100106,0.0
18.968,8226.0,21.88256975669674,0.0
18.976,8249.0,36.112091120435934,0.0
18.984,8261.0,46.20291618475267,0.0
18.992,8260.0,47.413015110920696,0.0
19.0,8231.0,34.811268162870874,0.0
19.008,8188.0,7.371157296104229,0.0
19.016,8163.0,-23.86688953647581,0.0
19.024,8155.0,-45.46444397022174,0.0
19.032,8157.0,-52.5700606582277,0.0
19.04,8159.0,-47.98486565096778,0.0
19.048,8159.0,-37.58951521352765,0.0
19.056,8163.0,-24.92550461224664,0.0
19.064,8162.0,-13.04412644093236,0.0
19.072,8160.0,-4.652757916538576,0.0
19.08,8160.0,0.6066949650175957,0.0
19.088,8162.0,4.033746259230156,0.0
19.096,8162.0,5.857536848279551,0.0
19.104,8163.0,6.2523526947704795,0.0
19.112,8162.0,5.537915667494872,0.0
19.12,8171.0,5.910191999963217,0.0
19.128,8175.0,7.890211457173564,0.0
19.136,8184.0,10.520853227013049,0.0
19.144,8188.0,13.137435616911489,0.0
19.152,8169.0,9.628575457218403,0.0
19.16,8164.0,1.1904158703439407,0.0
19.168,8165.0,-4.797582192364644,0.0
19.176,8159.0,-8.633008407845864,0.0
19.184,8326.0,23.30002553784857,0.0
19.192,8300.0,67.45902650211815,0.0
19.2,8142.0,45.75565053214018,0.0
19.208,8158.0,-3.0275039831537924,0.0
19.216,8162.0,-27.332759314654595,0.0
19.224,8167.0,-35.72417089578653,0.0
19.232,8176.0,-32.41042035352939,0.0
19.24,8185.0,-21.859456627403233,0.0
19.248,8195.0,-8.423766770195016,0.0
19.256,8209.0,5.702440316534876,0.0
19.264,8224.0,19.116822543281387,0.0
19.272,8247.0,31.915161458192188,1.0
19.28,8266.0,43.22599742695911,0.0
19.288,8271.0,48.26485552826989,0.0
19.296,8249.0,40.454192098264,0.0
19.304,8207.0,16.626392845188548,0.0
19.312,8173.0,-15.512948401869835,0.0
19.32,8159.0,-41.97459531248364,0.0
19.328,8160.0,-53.91603629130941,0.0
19.336,8161.0,-52.39527565273761,0.0
19.344,8163.0,-42.939255610192504,0.0
19.352,8165.0,-30.01967966622692,0.0
19.36,8167.0,-17.010522681138355,0.0
19.368,8166.0,-6.53363184107252,0.0
19.376,8164.0,0.040057363280084246,0.0
19.384,8162.0,3.1044498550566004,0.0
19.392,8167.0,5.058957754321909,0.0
19.4,8169.0,6.877958565025438,0.0
19.408,8171.0,7.728136240622234,0.0
19.416,8172.0,7.672155716350062,0.0
19.424,8175.0,7.2930628591127515,0.0
19.432,8183.0,8.210462622714203,0.0
19.44,8185.0,9.551216527916722,0.0
19.448,8208.0,14.00357962144426,0.0
19.456,8187.0,14.922193501919082,0.0
19.464,8179.0,7.278355663113871,0.0
19.472,8181.0,0.42851299268318144,0.0
19.48,8183.0,-2.870237000386169,0.0
19.488,8230.0,5.624789890767033,0.0
19.496,8474.0,69.2474901211765,0.0
19.504,8171.0,84.32136465213262,0.0
19.512,8179.0,20.18317186424133,0.0
19.52,8182.0,-18.560747631077447,0.0
19.528,8192.0,-36.00389860932455,0.0
19.536,8199.0,-37.38801932778779,0.0
19.544,8207.0,-29.473608635791834,0.0
19.552,8218.0,-16.44277657844418,0.0
19.56,8231.0,-1.3402251880152107,0.0
19.568,8249.0,14.127918317331932,0.0
19.576,8271.0,29.305826682220413,0.0
19.584,8292.0,42.6238428762922,0.0
19.592,8298.0,49.553940264106814,0.0
19.6,8289.0,45.52652370881651,1.0
19.608,8251.0,26.64021909020562,0.0
19.616,8215.0,-3.6863429846418967,0.0
19.624,8197.0,-32.09477320341739,0.0
19.632,8196.0,-47.91124121496068,0.0
19.64,8196.0,-50.205465459071775,0.0
19.648,8199.0,-43.33762225948203,0.0
19.656,8202.0,-31.479691098828425,0.0
19.664,8200.0,-19.48993659487678,0.0
19.672,8200.0,-9.852912759453147,0.0
19.68,8200.0,-2.6597748778740424,0.0
19.688,8201.0,2.201789097044866,0.0
19.696,8201.0,4.9473936254673845,0.0
19.704,8200.0,5.616755522828498,0.0
19.712,8199.0,4.752446962340173,0.0
19.72,8200.0,3.5207692497019707,0.0
19.728,8208.0,4.09727432413888,0.0
19.736,8208.0,5.451429919534348,0.0
19.744,8211.0,6.0386766574893045,0.0
19.752,8223.0,8.534951116058892,0.0
19.76,8199.0,6.265634492643812,0.0
19.768,8192.0,-2.3597053158810013,0.0
19.776,8191.0,-8.737364474701735,0.0
19.784,8188.0,-12.001617298616111,0.0
19.792,8264.0,2.801455979911907,0.0
19.8,8422.0,58.937628205279,0.0
19.808,8160.0,61.953542081450905,0.0
19.816,8170.0,2.86045260567289,0.0
19.824,8171.0,-30.273472400392848,0.0
19.832,8175.0,-44.25750115489177,0.0
19.84,8180.0,-43.97896572026934,0.0
19.848,8189.0,-34.28629847554362,0.0
19.856,8194.0,-20.49565195989203,0.0
19.864,8207.0,-5.555088751426183,0.0
19.872,8222.0,9.843375803497793,0.0
19.88,8240.0,24.19955759945151,0.0
19.888,8259.0,36.57997177420407,0.0
19.896,8262.0,42.850390949762186,0.0
19.904,8246.0,37.40617074549732,1.0
19.912,8205.0,16.87010389922102,0.0
19.92,8166.0,-14.176664998836713,0.0
19.928,8146.0,-42.44207182745322,0.0
19.936,8144.0,-57.21808590929322,0.0
19.944,8142.0,-58.09886237883052,0.0
19.952,8145.0,-49.60697800164462,0.0
19.96,8143.0,-36.859587356780594,0.0
19.968,8141.0,-24.549656327571938,0.0
19.976,8140.0,-14.16046821351847,0.0
19.984,8135.0,-7.095230312431568,0.0
19.992,8135.0,-2.862643723268775,0.0
20.0,8131.0,-0.7426917119007612,0.0
20.008,8131.0,-0.19355805466761922,0.0
20.016,8132.0,0.3648451949629816,0.0
20.024,8133.0,1.0483707668147417,0.0
20.032,8137.0,2.3151654019845864,0.0
20.04,8141.0,4.3477458532572655,0.0
20.048,8142.0,5.9121451128783065,0.0
20.056,8164.0,10.639896231903549,0.0
20.064,8143.0,12.027047417349195,0.0
20.072,8134.0,4.894939263169135,0.0
20.08,8130.0,-2.721019026693739,0.0
20.088,8136.0,-6.403943953126827,0.0
20.096,8161.0,-1.277780637572505,0.0
20.104,8432.0,62.42059451603291,0.0
20.112,8111.0,80.41296844532212,0.0
20.12,8120.0,15.120216374658412,0.0
20.128,8125.0,-22.9260012915106,0.0
20.136,8133.0,-39.29470857815977,0.0
20.144,8142.0,-39.54447943448167,0.0
20.152,8151.0,-30.019368825313222,0.0
20.16,8162.0,-15.748926981453678,0.0
20.168,8170.0,-1.0399723171424284,0.0
20.176,8188.0,13.128372732510343,0.0
20.184,8210.0,27.689125342317084,0.0
20.192,8228.0,40.27436517319438,0.0
20.2,8241.0,47.944511676855655,0.0
20.208,8233.0,46.233173913706196,1.0
20.216,8201.0,30.03956373259348,0.0
20.224,8156.0,0.17717346414929125,0.0
20.232,8131.0,-31.811314198901528,0.0
20.24,8128.0,-51.62670543049239,0.0
20.248,8134.0,-54.90537474665962,0.0
20.256,8139.0,-46.27276242207927,0.0
20.264,8137.0,-33.539050289711895,0.0
20.272,8138.0,-21.127738850575952,0.0
20.28,8137.0,-10.58449513634605,0.0
20.288,8141.0,-2.1316013159857903,0.0
20.296,8141.0,4.00780537093101,0.0
20.304,8138.0,6.418107290992339,0.0
20.312,8141.0,6.8704950516280405,0.0
20.32,8146.0,7.730794876340951,0.0
20.328,8147.0,8.293299966713448,0.0
20.336,8154.0,9.003008979528886,0.0
20.344,8156.0,9.896474710323218,0.0
20.352,8182.0,14.644869572108064,0.0
20.36,8165.0,17.071434796425365,0.0
20.368,8154.0,10.197847371903208,0.0
20.376,8152.0,1.93079435335153,0.0
20.384,8151.0,-3.8639608596974995,0.0
20.392,8173.0,-2.414830154669289,0.0
20.4,8476.0,65.2060680076604,0.0
20.408,8137.0,87.95611645825034,0.0
20.416,8150.0,21.473203441679516,0.0
20.424,8153.0,-17.83145962386311,0.0
20.432,8168.0,-34.69529797362134,0.0
20.44,8170.0,-35.93521346105467,0.0
20.448,8178.0,-29.177286672215814,0.0
20.456,8195.0,-15.649518250119854,0.0
20.464,8206.0,0.44385645859620126,0.0
20.472,8224.0,15.818881756322071,0.0
20.48,8249.0,31.29825262304871,0.0
20.488,8271.0,45.309681250744234,0.0
20.496,8285.0,54.081364227560925,0.0
20.504,8287.0,54.3383631030913,0.0
20.512,8254.0,39.918689033311466,0.0
20.52,8206.0,8.790406355829191,1.0
20.528,8182.0,-25.661197412007823,0.0
20.536,8181.0,-47.252799271997446,0.0
20.544,8183.0,-52.65365407504464,0.0
20.552,8187.0,-46.638990302209095,0.0
20.56,8194.0,-33.763597563601934,0.0
20.568,8193.0,-19.80434666024985,0.0
20.576,8200.0,-7.320491029690629,0.0
20.584,8204.0,3.4196225239454634,0.0
20.592,8195.0,8.231348713858779,0.0
20.6,8197.0,8.39892025634299,0.0
20.608,8204.0,9.063353761730923,0.0
20.616,8204.0,9.51229300221371,0.0
20.624,8216.0,10.787228923298017,0.0
20.632,8217.0,12.56166340954519,0.0
20.64,8232.0,14.97537778405399,0.0
20.648,8226.0,15.971107871076356,0.0
20.656,8213.0,10.256856873496645,0.0
20.664,8207.0,1.4406820237959437,0.0
20.672,8213.0,-3.9916136478236695,0.0
20.68,8198.0,-8.437796027126751,0.0
20.688,8425.0,33.523783268389025,0.0
20.696,8230.0,59.794817222961456,0.0
20.704,8174.0,14.986356416441822,0.0
20.712,8197.0,-20.527329158960356,0.0
20.72,8201.0,-32.901756610013535,0.0
20.728,8208.0,-32.98436887973753,0.0
20.736,8220.0,-24.150690325912592,0.0
20.744,8223.0,-12.200425312480093,0.0
20.752,8230.0,-1.2403215569972872,0.0
20.76,8244.0,9.719830433609332,0.0
20.768,8262.0,21.26563160806927,0.0
20.776,8285.0,33.246012424473065,0.0
20.784,8299.0,42.84983248561798,0.0
20.792,8299.0,44.89318699550586,0.0
20.8,8276.0,34.596367481081415,0.0
20.808,8229.0,8.960570027190442,0.0
20.816,8194.0,-24.311594098431897,0.0
20.824,8183.0,-49.70061040108931,0.0
20.832,8175.0,-61.062149271275985,0.0
20.84,8179.0,-59.34080535077692,0.0
20.848,8179.0,-48.508835578093795,0.0
20.856,8184.0,-33.726810344301384,0.0
20.864,8181.0,-19.462760800435717,0.0
20.872,8177.0,-9.506346920518354,0.0
20.88,8175.0,-3.4026707108364462,0.0
20.888,8175.0,0.31431673153588235,0.0
20.896,8179.0,3.282086147798964,0.0
20.904,8177.0,4.948218736493345,0.0
20.912,8180.0,5.387659260347164,0.0
20.92,8184.0,6.2608166948407415,0.0
20.928,8190.0,7.870995094802993,0.0
20.936,8199.0,10.694428549062195,0.0
20.944,8182.0,9.108394245370391,0.0
20.952,8176.0,2.0905571357241115,0.0
20.96,8173.0,-4.2154407176215045,0.0
20.968,8177.0,-7.101386058090839,0.0
20.976,8225.0,2.892167436357795,0.0
20.984,8412.0,56.37454548719029,0.0
20.992,8140.0,62.09131911863096,0.0
21.0,8166.0,5.800429970197683,0.0
21.008,8164.0,-23.466102936484276,1.0
21.016,8175.0,-35.37783664331391,0.0
21.024,8177.0,-34.40280798751132,0.0
21.032,8188.0,-25.95439516851411,0.0
21.04,8199.0,-12.528406961289875,0.0
21.048,8208.0,1.3971711904077893,0.0
21.056,8222.0,14.11982646657566,0.0
21.064,8242.0,26.449479493226136,0.0
21.072,8262.0,37.90319565166374,0.0
21.08,8266.0,43.83355243826986,0.0
21.088,8259.0,40.08216925443162,0.0
21.096,8214.0,21.163034592697386,0.0
21.104,8175.0,-10.395545538916622,0.0
21.112,8159.0,-38.719695730546164,0.0
21.12,8152.0,-54.29910751798093,0.0
21.128,8146.0,-57.93627106303006,0.0
21.136,8154.0,-50.89485939643782,0.0
21.144,8153.0,-37.58421295464473,0.0
21.152,8156.0,-23.605506636180053,0.0
21.16,8155.0,-11.351047683162506,0.0
21.168,8153.0,-2.9957305234163414,0.0
21.176,8152.0,1.786875904747376,0.0
21.184,8154.0,4.548690807557023,0.0
21.192,8158.0,6.718193316980887,0.0
21.2,8156.0,7.3912777681512125,0.0
21.208,8164.0,7.894538796336292,0.0
21.216,8163.0,8.425367044338827,0.0
21.224,8177.0,10.117823618482134,0.0
21.232,8177.0,12.444969700440424,0.0
21.24,8154.0,7.2355167974330925,0.0
21.248,8152.0,-2.0498554193154632,0.0
21.256,8155.0,-7.026126139151756,0.0
21.264,8146.0,-10.129645729404047,0.0
21.272,8345.0,28.387868376001734,0.0
21.28,8216.0,61.16418449775415,0.0
21.288,8125.0,26.32865015145444,0.0
21.296,8148.0,-12.157217615928175,0.0
21.304,8153.0,-27.35409559737741,0.0
21.312,8160.0,-29.74269052456043,0.0
21.32,8167.0,-23.785747135917973,0.0
21.328,8178.0,-12.97920577888658,0.0
21.336,8187.0,-0.534417754232436,0.0
21.344,8202.0,11.80965318979679,0.0
21.352,8218.0,23.652759130479126,0.0
21.36,8241.0,35.03844713809963,1.0
21.368,8258.0,44.63171506590288,0.0
21.376,8262.0,47.82878040005835,0.0
21.384,8241.0,38.99499790057462,0.0
21.392,8197.0,14.579057956151473,0.0
21.4,8162.0,-18.210611064223485,0.0
21.408,8148.0,-44.852164070747904,0.0
21.416,8149.0,-56.463727829047,0.0
21.424,8149.0,-54.56591906166523,0.0
21.432,8153.0,-44.35351739112161,0.0
21.44,8153.0,-30.77219982014094,0.0
21.448,8152.0,-18.279103111600534,0.0
21.456,8148.0,-9.140882647197941,0.0
21.464,8152.0,-2.3506884263586016,0.0
21.472,8146.0,1.6128117046482657,0.0
21.48,8147.0,2.6907937351936653,0.0
21.488,8148.0,3.3289560885334595,0.0
21.496,8147.0,3.201655215962319,0.0
21.504,8153.0,3.6624650899061635,0.0
21.512,8157.0,5.422722595234063,0.0
21.52,8154.0,5.845888053832596,0.0
21.528,8171.0,8.070053317884458,0.0
21.536,8151.0,7.549003177744908,0.0
21.544,8142.0,0.17161309296898253,0.0
21.552,8140.0,-6.464690878625561,0.0
21.56,8141.0,-9.613567488115677,0.0
21.568,8177.0,-2.4591471199466923,0.0
21.576,8411.0,57.306023581936415,0.0
21.584,8112.0,70.68322384155931,0.0
21.592,8121.0,8.63082793253625,0.0
21.6,8124.0,-26.923782205151838,0.0
21.608,8130.0,-42.030049430120926,0.0
21.616,8134.0,-42.54861112565027,0.0
21.624,8140.0,-34.361407746497434,0.0
21.632,8147.0,-21.654003451310246,0.0
21.64,8158.0,-7.178448147524932,0.0
21.648,8173.0,7.782530296308323,0.0
21.656,8195.0,23.00963532862579,0.0
21.664,8215.0,37.107022452531965,1.0
21.672,8225.0,45.94735609015697,0.0
21.68,8211.0,43.39215001047364,0.0
21.688,8168.0,23.65709624273586,0.0
21.696,8132.0,-7.740642166274938,0.0
21.704,8110.0,-36.98508798959142,0.0
21.712,8100.0,-55.21045552303076,0.0
21.72,8100.0,-59.66135934660588,0.0
21.728,8106.0,-52.022445296179285,0.0
21.736,8106.0,-38.39178242210028,0.0
21.744,8108.0,-24.101381849771315,0.0
21.752,8105.0,-12.200309366348847,0.0
21.76,8105.0,-3.925226286720317,0.0
21.768,8105.0,1.563754840630736,0.0
21.776,8106.0,4.777146362933081,0.0
21.784,8107.0,6.36187068469053,0.0
21.792,8107.0,6.53884017233986,0.0
21.8,8105.0,5.243532635839983,0.0
21.808,8117.0,5.725516697717694,0.0
21.816,8120.0,8.207017729467452,0.0
21.824,8133.0,11.699105778354124,0.0
21.832,8139.0,15.872314029047402,0.0
21.84,8118.0,12.86939998883372,0.0
21.848,8116.0,4.443409675242492,0.0
21.856,8118.0,-1.2133804595512174,0.0
21.864,8113.0,-4.9877364926117025,0.0
21.872,8303.0,31.331967792278192,0.0
21.88,8229.0,71.75998050519752,0.0
21.888,8095.0,42.29480905801688,0.0
21.896,8118.0,-4.220628535664218,0.0
21.904,8122.0,-25.57376228300768,0.0
21.912,8130.0,-31.873076265507052,0.0
21.92,8141.0,-26.884429933188358,0.0
21.928,8148.0,-16.180740971650266,0.0
21.936,8161.0,-3.311389159674718,0.0
21.944,8174.0,10.113391399810098,0.0
21.952,8197.0,23.874304656055983,0.0
21.96,8220.0,37.79069760182051,0.0
21.968,8240.0,49.0762490744105,0.0
21.976,8247.0,53.82608923623275,1.0
21.984,8224.0,45.20565322559514,0.0
21.992,8182.0,19.974277388383598,0.0
22.0,8149.0,-13.29841472570456,0.0
22.008,8136.0,-40.357471266529046,0.0
22.016,8135.0,-53.10169523311697,0.0
22.024,8139.0,-51.974862022213074,0.0
22.032,8145.0,-41.38544390958759,0.0
22.04,8146.0,-27.418251936780962,0.0
22.048,8147.0,-14.592545357599874,0.0
22.056,8150.0,-3.9778382150261677,0.0
22.064,8149.0,3.31137096398038,0.0
22.072,8148.0,6.711552683036643,0.0
22.08,8152.0,8.317766412673791,0.0
22.088,8152.0,8.823810294893974,0.0
22.096,8153.0,7.9895908445719215,0.0
22.104,8158.0,7.510723505799433,0.0
22.112,8164.0,8.336116882320084,0.0
22.12,8169.0,9.807708517272204,0.0
22.128,8172.0,10.825447602287795,0.0
22.136,8188.0,13.667786846652007,0.0
22.144,8169.0,12.663641303695613,0.0
22.152,8164.0,5.246614005244737,0.0
22.16,8166.0,-0.5481547957010662,0.0
22.168,8168.0,-3.074861476962269,0.0
22.176,8252.0,13.466904541041231,0.0
22.184,8411.0,70.85303631363718,0.0
22.192,8154.0,74.02746263874565,0.0
22.2,8165.0,14.4233732390785,0.0
22.208,8167.0,-20.357229881573176,0.0
22.216,8174.0,-36.00131747306568,0.0
22.224,8184.0,-36.32186640126247,0.0
22.232,8190.0,-27.73580164957525,0.0
22.24,8199.0,-15.38842983708264,0.0
22.248,8211.0,-1.4628295925513157,0.0
22.256,8231.0,13.532156044619796,0.0
22.264,8254.0,29.133466691824424,0.0
22.272,8278.0,43.54521740382825,0.0
22.28,8285.0,51.79965962582446,0.0
22.288,8267.0,46.58057426522964,1.0
22.296,8228.0,24.786703930936483,0.0
22.304,8192.0,-7.1826737629919535,0.0
22.312,8173.0,-36.23687824000535,0.0
22.32,8170.0,-52.42016654138047,0.0
22.328,8173.0,-54.04342057539907,0.0
22.336,8175.0,-45.78828575429134,0.0
22.344,8182.0,-32.12546063070977,0.0
22.352,8184.0,-17.33598193487387,0.0
22.36,8182.0,-5.961169129996051,0.0
22.368,8182.0,1.2610583642858728,0.0
22.376,8181.0,5.136779640642999,0.0
22.384,8185.0,7.262980861509504,0.0
22.392,8187.0,8.645064077079496,0.0
22.4,8190.0,9.17323617790953,0.0
22.408,8189.0,8.503427055589327,0.0
22.416,8192.0,7.226684781907579,0.0
22.424,8201.0,7.827580684785062,0.0
22.432,8203.0,9.243504973970403,0.0
22.44,8219.0,12.35687064220042,0.0
22.448,8218.0,15.389174886866158,0.0
22.456,8201.0,11.171879222155667,0.0
22.464,8198.0,2.897972275635084,0.0
22.472,8198.0,-3.047471928191271,0.0
22.48,8190.0,-7.735971708010766,0.0
22.488,8395.0,30.91138426107841,0.0
22.496,8319.0,75.43564248624489,0.0
22.504,8185.0,47.42710849143464,0.0
22.512,8194.0,-1.8652048275901052,0.0
22.52,8195.0,-28.690802350369722,0.0
22.528,8201.0,-38.775446443149576,0.0
22.536,8208.0,-36.204762252491946,0.0
22.544,8216.0,-26.130882196292077,0.0
22.552,8226.0,-12.534041125362592,0.0
22.56,8239.0,2.1063358069391143,0.0
22.568,8257.0,16.778610771469857,0.0
22.576,8280.0,31.28826835426821,0.0
22.584,8298.0,43.501918931713135,0.0
22.592,8304.0,49.03286714726323,1.0
22.6,8283.0,41.8053870215158,0.0
22.608,8238.0,17.70902266538542,0.0
22.616,8201.0,-15.979091946197059,0.0
22.624,8191.0,-43.08170718354927,0.0
22.632,8190.0,-54.82576289808958,0.0
22.64,8193.0,-53.050343648108765,0.0
22.648,8195.0,-42.93580123383117,0.0
22.656,8196.0,-29.83160079339359,0.0
22.664,8201.0,-16.333170513968298,0.0
22.672,8199.0,-5.261017189297718,0.0
22.68,8198.0,1.4717658646200107,0.0
22.688,8197.0,4.821783937413329,0.0
22.696,8197.0,5.867638919818091,0.0
22.704,8198.0,5.800853337759918,0.0
22.712,8202.0,5.903382739920971,0.0
22.72,8202.0,5.886199252745428,0.0
22.728,8202.0,4.983619682454673,0.0
22.736,8210.0,5.328666639104995,0.0
22.744,8211.0,6.563545499870543,0.0
22.752,8237.0,11.814862108007219,0.0
22.76,8221.0,15.17221778377143,0.0
22.768,8205.0,8.319838717005496,0.0
22.776,8203.0,-0.6714475561295785,0.0
22.784,8209.0,-5.069876762899639,0.0
22.792,8197.0,-8.128252330928717,0.0
22.8,8498.0,50.33830661792149,0.0
22.808,8277.0,93.62751768622707,0.0
22.816,8206.0,45.377808238721855,0.0
22.824,8208.0,-4.133558605429926,0.0
22.832,8210.0,-31.97059976046853,0.0
22.84,8218.0,-41.54325147663121,0.0
22.848,8226.0,-37.63724145282731,0.0
22.856,8235.0,-26.147869496724297,0.0
22.864,8245.0,-11.5070325502179,0.0
22.872,8259.0,3.7993560238094233,0.0
22.88,8280.0,19.426030624076475,0.0
22.888,8301.0,34.303039303924606,0.0
22.896,8317.0,45.45966255661597,0.0
22.904,8317.0,48.434262918813374,1.0
22.912,8291.0,37.538409286327806,0.0
22.92,8247.0,11.102295778600364,0.0
22.928,8213.0,-22.150681548371722,0.0
22.936,8202.0,-47.65166983449831,0.0
22.944,8201.0,-57.95996655551721,0.0
22.952,8206.0,-54.451657886209205,0.0
22.96,8203.0,-43.71273422021545,0.0
22.968,8201.0,-31.755890120027743,0.0
22.976,8202.0,-20.07436528358312,0.0
22.984,8201.0,-10.122420029279738,0.0
22.992,8198.0,-3.519380953728387,0.0
23.0,8197.0,0.1020218660773935,0.0
23.008,8196.0,1.8196441557538492,0.0
23.016,8196.0,2.3552627897643106,0.0
23.024,8195.0,2.110640303390028,0.0
23.032,8197.0,1.8502738096556186,0.0
23.04,8202.0,2.845875915404349,0.0
23.048,8202.0,4.024709100903465,0.0
23.056,8205.0,4.724578171045778,0.0
23.064,8223.0,8.712495078473012,0.0
23.072,8197.0,8.115618877053976,0.0
23.08,8188.0,-0.6183251892050521,0.0
23.088,8188.0,-7.528527332840667,0.0
23.096,8188.0,-10.473795882004197,0.0
23.104,8247.0,1.4260768701749384,0.0
23.112,8421.0,55.849523973462055,0.0
23.12,8162.0,62.20244374963522,0.0
23.128,8168.0,4.840816806627345,0.0
23.136,8171.0,-27.977972348686535,0.0
23.144,8176.0,-41.5107527103919,0.0
23.152,8183.0,-40.76888673265307,0.0
23.16,8188.0,-31.697494081775858,0.0
23.168,8198.0,-18.462460815367194,0.0
23.176,8205.0,-4.363042967043839,0.0
23.184,8226.0,10.357241397412963,0.0
23.192,8245.0,25.664546227438905,0.0
23.2,8265.0,38.79394507716552,0.0
23.208,8272.0,46.19315219092732,0.0
23.216,8263.0,43.15700231934943,1.0
23.224,8223.0,24.80757694590534,0.0
23.232,8183.0,-6.1494303936353845,0.0
23.24,8158.0,-36.8045808457141,0.0
23.248,8153.0,-55.48300213593757,0.0
23.256,8158.0,-58.117511677854736,0.0
23.264,8156.0,-50.251353046009854,0.0
23.272,8160.0,-37.57201988847987,0.0
23.28,8162.0,-23.15131652109517,0.0
23.288,8154.0,-12.338728418892288,0.0
23.296,8153.0,-5.912192191452277,0.0
23.304,8157.0,-0.6022886678158557,0.0
23.312,8155.0,3.037895241891647,0.0
23.32,8156.0,4.5258124042013606,0.0
23.328,8159.0,5.536800877434871,0.0
23.336,8165.0,7.133960845998672,0.0
23.344,8165.0,8.222730894370443,0.0
23.352,8171.0,8.845769591472617,0.0
23.36,8191.0,13.184932000743629,0.0
23.368,8184.0,16.408024892657068,0.0
23.376,8161.0,9.69748174094616,0.0
23.384,8159.0,-0.8488957193580973,0.0
23.392,8161.0,-6.95730335164717,0.0
23.4,8149.0,-11.558004489616906,0.0
23.408,8383.0,32.828261341972166,0.0
23.416,8191.0,62.68170849325975,0.0
23.424,8126.0,18.328389207590362,0.0
23.432,8151.0,-18.852923811557503,0.0
23.44,8155.0,-32.05884134945268,0.0
23.448,8158.0,-33.57819468576895,0.0
23.456,8168.0,-26.729976374515672,0.0
23.464,8173.0,-15.562859065810926,0.0
23.472,8187.0,-2.7174155077063915,0.0
23.48,8201.0,11.01177398186519,0.0
23.488,8217.0,23.590703828240976,0.0
23.496,8243.0,36.03386766979679,0.0
23.504,8260.0,46.714510033311626,0.0
23.512,8258.0,49.01306556902841,1.0
23.52,8237.0,38.24254929993731,0.0
23.528,8198.0,13.816812407932503,0.0
23.536,8161.0,-18.250182615936183,0.0
23.544,8142.0,-45.88845366810801,0.0
23.552,8142.0,-59.158166046439646,0.0
23.56,8146.0,-57.21957252893753,0.0
23.568,8147.0,-46.376424812147434,0.0
23.576,8151.0,-31.911087602605676,0.0
23.584,8150.0,-17.90531100936323,0.0
23.592,8155.0,-6.090458030994341,0.0
23.6,8147.0,1.2073093955884815,0.0
23.608,8150.0,4.318650544251341,0.0
23.616,8147.0,5.503934172632853,0.0
23.624,8151.0,5.57474839459519,0.0
23.632,8153.0,5.997235096514032,0.0
23.64,8164.0,7.993752122592696,0.0
23.648,8164.0,10.209850891845917,0.0
23.656,8177.0,12.62842485953206,0.0
23.664,8160.0,11.32694395159524,0.0
23.672,8152.0,3.7324312804300916,0.0
23.68,8156.0,-2.142034927941495,0.0
23.688,8155.0,-4.678524307498719,0.0
23.696,8220.0,7.605972318153135,0.0
23.704,8367.0,57.02962294167946,0.0
23.712,8116.0,56.365038727837145,0.0
23.72,8144.0,1.8673157261534925,0.0
23.728,8153.0,-23.08652441785125,0.0
23.736,8166.0,-29.849376602606753,0.0
23.744,8173.0,-25.237381930190622,0.0
23.752,8181.0,-15.619058530410712,0.0
23.76,8190.0,-4.089650283120363,0.0
23.768,8204.0,8.047780960838054,0.0
23.776,8224.0,20.951927229528792,0.0
23.784,8249.0,34.600395679080975,0.0
23.792,8272.0,47.23268859593941,0.0
23.8,8280.0,53.87569825381502,0.0
23.808,8266.0,48.41036649244188,1.0
23.816,8225.0,26.60204999174448,0.0
23.824,8181.0,-7.694107274386624,0.0
23.832,8163.0,-39.47693176755388,0.0
23.84,8154.0,-57.80419521092199,0.0
23.848,8160.0,-60.492012785723546,0.0
23.856,8159.0,-51.88877639273255,0.0
23.864,8164.0,-38.1166823071635,0.0
23.872,8166.0,-22.762843852582364,0.0
23.88,8171.0,-8.801387524147458,0.0
23.888,8165.0,0.5854881429158922,0.0
23.896,8165.0,4.82229907814849,0.0
23.904,8171.0,7.822629566118849,0.0
23.912,8168.0,9.023919566846644,0.0
23.92,8175.0,9.183431070115603,0.0
23.928,8178.0,9.92845760658065,0.0
23.936,8194.0,12.745509370271975,0.0
23.944,8189.0,14.72644854463374,0.0
23.952,8169.0,8.55774867647915,0.0
23.96,8165.0,-1.2910857495323853,0.0
23.968,8170.0,-6.715625529058343,0.0
23.976,8158.0,-10.33562708396994,0.0
23.984,8405.0,37.101206737167786,0.0
23.992,8192.0,66.47651921640181,0.0
24.0,8143.0,20.243589654861353,0.0
24.008,8165.0,-15.683778060627674,0.0
24.016,8169.0,-29.241496788858285,0.0
24.024,8175.0,-30.783144986091884,0.0
24.032,8185.0,-23.758971871690846,0.0
24.04,8190.0,-12.93823453327991,0.0
24.048,8201.0,-1.3084660502795487,0.0
24.056,8217.0,11.283861011496128,0.0
24.064,8237.0,24.375005632843113,0.0
24.072,8266.0,38.43228880691913,0.0
24.08,8279.0,49.499588904263646,0.0
24.088,8283.0,52.01316400448718,1.0
24.096,8254.0,40.506357968370594,0.0
24.104,8208.0,12.237448042553979,0.0
24.112,8181.0,-21.250040424979034,0.0
24.12,8168.0,-46.004761916515235,0.0
24.128,8165.0,-56.93861166230795,0.0
24.136,8172.0,-53.955103477908324,0.0
24.144,8174.0,-42.171723692765454,0.0
24.152,8175.0,-28.19641875643765,0.0
24.16,8177.0,-15.043634084774794,0.0
24.168,8173.0,-5.392908067877215,0.0
24.176,8175.0,0.7235422578526141,0.0
24.184,8173.0,4.23110335030492,0.0
24.192,8177.0,6.072585636798749,0.0
24.2,8175.0,6.64956121363025,0.0
24.208,8177.0,5.982631650670555,0.0
24.216,8185.0,6.724181275573073,0.0
24.224,8186.0,7.981974669861984,0.0
24.232,8206.0,11.805987344986079,0.0
24.24,8186.0,12.277575103645177,0.0
24.248,8178.0,4.974622942523638,0.0
24.256,8177.0,-1.937249900523966,0.0
24.264,8183.0,-4.70970603228966,0.0
24.272,8204.0,-0.11916273645829278,0.0
24.28,8486.0,64.51689324108543,0.0
24.288,8156.0,83.15458808206995,0.0
24.296,8165.0,15.989108418442584,0.0
24.304,8171.0,-23.09207072430536,0.0
24.312,8175.0,-40.660576908658186,0.0
24.32,8182.0,-42.63863004000268,0.0
24.328,8193.0,-33.666512965518905,0.0
24.336,8197.0,-20.19166460728934,0.0
24.344,8207.0,-6.30115527645944,0.0
24.352,8226.0,8.793722462020469,0.0
24.36,8245.0,24.15100747284555,0.0
24.368,8267.0,37.948036507908455,1.0
24.376,8278.0,47.096133682181744,0.0
24.384,8269.0,45.77457515397941,0.0
24.392,8232.0,28.655203809054683,0.0
24.4,8191.0,-1.749095605096045,0.0
24.408,8169.0,-32.33591654586394,0.0
24.416,8165.0,-50.83422683215599,0.0
24.424,8165.0,-54.884231528222244,0.0
24.432,8169.0,-48.1410970072709,0.0
24.44,8171.0,-35.6286548841249,0.0
24.448,8172.0,-22.21419014535354,0.0
24.456,8171.0,-10.912964383332564,0.0
24.464,8171.0,-2.7792047117984566,0.0
24.472,8171.0,2.4524475871996856,0.0
24.48,8169.0,4.766016481706174,0.0
24.488,8168.0,4.7987704846971155,0.0
24.496,8168.0,3.886290076134401,0.0
24.504,8171.0,3.3703456924690727,0.0
24.512,8176.0,4.188639440198813,0.0
24.52,8178.0,5.467635604046336,0.0
24.528,8197.0,9.68539104244087,0.0
24.536,8176.0,10.302743403437717,0.0
24.544,8169.0,3.3854039834529885,0.0
24.552,8167.0,-3.0574737677111443,0.0
24.56,8169.0,-6.404231936027145,0.0
24.568,8181.0,-4.552330505424834,0.0
24.576,8493.0,63.42653505880094,0.0
24.584,8156.0,88.90539210774432,0.0
24.592,8158.0,22.053663185610503,0.0
24.6,8163.0,-19.395828965774626,0.0
24.608,8170.0,-38.51674378951202,0.0
24.616,8177.0,-41.12501676352258,0.0
24.624,8182.0,-33.980897249418376,0.0
24.632,8193.0,-21.335158442193915,0.0
24.64,8203.0,-6.331510200287539,0.0
24.648,8217.0,8.40477409832647,0.0
24.656,8238.0,22.996054229968877,0.0
24.664,8263.0,37.53667790789859,0.0
24.672,8276.0,48.208406668795305,0.0
24.68,8270.0,48.64079175711004,1.0
24.688,8231.0,32.32844833139984,0.0
24.696,8189.0,1.2316141986791536,0.0
24.704,8166.0,-30.62528307051548,0.0
24.712,8160.0,-50.74696910276839,0.0
24.72,8158.0,-56.58746813761809,0.0
24.728,8161.0,-51.257900715624146,0.0
24.736,8165.0,-38.90459478880234,0.0
24.744,8166.0,-24.67897012857088,0.0
24.752,8166.0,-12.320035163560078,0.0
24.76,8165.0,-3.347419474514709,0.0
24.768,8164.0,2.057877306635419,0.0
24.776,8167.0,5.351164070650157,0.0
24.784,8165.0,6.691809622449,0.0
24.792,8170.0,7.083010339144266,0.0
24.8,8171.0,7.46630277233794,0.0
24.808,8172.0,6.969603305451756,0.0
24.816,8180.0,7.45788935167343,0.0
24.824,8183.0,8.863265927021985,0.0
24.832,8203.0,13.04954654383755,0.0
24.84,8188.0,14.568344834617164,0.0
24.848,8172.0,6.924501052607184,0.0
24.856,8169.0,-2.5276073128625285,0.0
24.864,8169.0,-8.347255987179324,0.0
24.872,8167.0,-10.932045733236919,0.0
24.88,8498.0,56.41171223627089,0.0
24.888,8183.0,90.95483143620709,0.0
24.896,8155.0,27.518566419726312,0.0
24.904,8161.0,-18.66429374842278,0.0
24.912,8165.0,-41.10402563604771,0.0
24.92,8173.0,-45.69138073199497,0.0
24.928,8178.0,-38.821071621218834,0.0
24.936,8186.0,-26.216338742392054,0.0
24.944,8197.0,-10.905498439153462,0.0
24.952,8215.0,5.727433465550348,0.0
24.96,8231.0,21.642003482163545,0.0
24.968,8256.0,36.149004570854686,0.0
24.976,8270.0,47.21553746946506,0.0
24.984,8268.0,49.05344388537287,1.0
24.992,8236.0,35.757069589588355,0.0
25.0,8192.0,6.94555929730268,0.0
25.008,8168.0,-25.03900521448736,0.0
25.016,8157.0,-47.308944049788124,0.0
25.024,8156.0,-55.75836472661467,0.0
25.032,8158.0,-52.09741112602296,0.0
25.04,8162.0,-40.80794179924692,0.0
25.048,8165.0,-26.514296828953775,0.0
25.056,8164.0,-13.632576749405189,0.0
25.064,8162.0,-4.56039165712491,0.0
25.072,8163.0,1.2919920294154963,0.0
25.08,8164.0,4.9658025003418516,0.0
25.088,8163.0,6.385613683439715,0.0
25.096,8163.0,6.052852445300914,0.0
25.104,8165.0,5.346975770875133,0.0
25.112,8170.0,5.548962599687229,0.0
25.12,8174.0,6.6658364688166785,0.0
25.128,8180.0,8.358742588057567,0.0
25.136,8180.0,9.318445383319386,0.0
25.144,8198.0,12.150640561555747,0.0
25.152,8178.0,11.574813943329218,0.0
25.16,8169.0,3.554668709110274,0.0
25.168,8169.0,-3.566069112826881,0.0
25.176,8174.0,-6.215099430465898,0.0
25.184,8208.0,1.1282829879955898,0.0
25.192,8465.0,64.75162609670974,0.0
25.2,8161.0,82.95911676935248,0.0
25.208,8163.0,19.4505664897556,0.0
25.216,8165.0,-20.24001761222962,0.0
25.224,8168.0,-39.62283392223094,0.0
25.232,8177.0,-42.62690033222384,0.0
25.24,8184.0,-34.67194582999787,0.0
25.248,8195.0,-21.03330777735232,0.0
25.256,8204.0,-5.692525506574157,0.0
25.264,8219.0,9.14626167911024,0.0
25.272,8242.0,24.298646052705635,0.0
25.28,8262.0,38.36071508595569,0.0
25.288,8273.0,47.19438788613934,0.0
25.296,8263.0,45.46768198009977,1.0
25.304,8221.0,26.929430825612144,0.0
25.312,8180.0,-5.073848335846378,0.0
25.32,8160.0,-35.693629856885536,0.0
25.328,8153.0,-53.90666482968595,0.0
25.336,8155.0,-57.52644113409747,0.0
25.344,8158.0,-49.923979263798174,0.0
25.352,8159.0,-37.04162801724556,0.0
25.36,8162.0,-22.98987540345388,0.0
25.368,8159.0,-11.194155601871898,0.0
25.376,8160.0,-2.9296218871018027,0.0
25.384,8160.0,2.6064758089933093,0.0
25.392,8158.0,5.07674071294241,0.0
25.4,8162.0,6.176559138009907,0.0
25.408,8160.0,6.299152319869563,0.0
25.416,8160.0,5.008026233353803,0.0
25.424,8161.0,3.6894813295664335,0.0
25.432,8165.0,3.3718312504702226,0.0
25.44,8171.0,4.715772343486833,0.0
25.448,8172.0,6.225715910617737,0.0
25.456,8188.0,9.647916042916904,0.0
25.464,8184.0,12.66067149990863,0.0
25.472,8165.0,7.8239839121704335,0.0
25.48,8163.0,-0.5129507750170887,0.0
25.488,8163.0,-5.774232461252723,0.0
25.496,8152.0,-10.257613046926963,0.0
25.504,8369.0,30.732068085225137,0.0
25.512,8264.0,73.19564598597663,0.0
25.52,8146.0,41.65212823781894,0.0
25.528,8155.0,-5.586400285089667,0.0
25.536,8158.0,-30.224614062332876,0.0
25.544,8163.0,-38.578798229987115,0.0
25.552,8172.0,-34.81023625839407,0.0
25.56,8180.0,-23.830758209723854,0.0
25.568,8190.0,-10.04707392482942,0.0
25.576,8202.0,4.122447369432621,0.0
25.584,8220.0,18.00629195158922,0.0
25.592,8242.0,31.65924132395139,0.0
25.6,8262.0,43.514293021440835,0.0
25.608,8264.0,48.42268874391107,1.0
25.616,8242.0,39.898038226767085,0.0
25.624,8200.0,15.732307678903226,0.0
25.632,8168.0,-16.06273006566039,0.0
25.64,8152.0,-42.23740306295463,0.0
25.648,8150.0,-54.99078750703461,0.0
25.656,8153.0,-53.99156474944425,0.0
25.664,8157.0,-43.7847617838886,0.0
25.672,8159.0,-29.884383692554366,0.0
25.68,8158.0,-16.928596873934566,0.0
25.688,8157.0,-7.108592454613927,0.0
25.696,8155.0,-0.8362139810021745,0.0
25.704,8154.0,2.3871377444927475,0.0
25.712,8155.0,3.931504382352614,0.0
25.72,8156.0,4.657379444773596,0.0
25.728,8158.0,4.9934495358372715,0.0
25.736,8155.0,4.230834119672181,0.0
25.744,8158.0,3.138380228726419,0.0
25.752,8165.0,4.059497555186226,0.0
25.76,8167.0,5.82748449667065,0.0
25.768,8176.0,8.23686269221821,0.0
25.776,8187.0,12.49897586325028,0.0
25.784,8165.0,10.877281226594505,0.0
25.792,8158.0,2.3443655636599487,0.0
25.8,8160.0,-4.078924304635393,0.0
25.808,8161.0,-6.646331800354119,0.0
25.816,8243.0,9.799938406953515,0.0
25.824,8375.0,61.76082555869016,0.0
25.832,8131.0,60.245046088984054,0.0
25.84,8151.0,4.45137187845603,0.0
25.848,8154.0,-24.52087662768031,0.0
25.856,8160.0,-36.09865488360788,0.0
25.864,8163.0,-35.63404426851571,0.0
25.872,8173.0,-27.300821884256493,0.0
25.88,8183.0,-14.147424576217418,0.0
25.888,8196.0,0.475308420448755,0.0
25.896,8211.0,14.771529321209528,0.0
25.904,8230.0,27.932980618944157,0.0
25.912,8253.0,40.062306271075386,0.0
25.92,8262.0,47.69927733793929,0.0
25.928,8249.0,44.16679267785503,1.0
25.936,8209.0,24.55353629416345,0.0
25.944,8171.0,-6.703781411318687,0.0
25.952,8152.0,-35.81808216677382,0.0
25.96,8148.0,-52.304706560394834,0.0
25.968,8151.0,-54.32915897953376,0.0
25.976,8153.0,-46.267970907198105,0.0
25.984,8155.0,-33.66862376147037,0.0
25.992,8159.0,-19.8870249160816,0.0
26.0,8161.0,-7.495697420250053,0.0
26.008,8153.0,-0.2568555092020688,0.0
26.016,8158.0,3.450223517114182,0.0
26.024,8154.0,5.323790156274754,0.0
26.032,8159.0,5.828965775312554,0.0
26.04,8160.0,6.469790735809056,0.0
26.048,8160.0,6.072177743740667,0.0
26.056,8159.0,4.712115432705332,0.0
26.064,8164.0,4.010567802439027,0.0
26.072,8169.0,5.030632515999969,0.0
26.08,8181.0,8.34430785067002,0.0
26.088,8187.0,12.716329256106746,0.0
26.096,8165.0,10.105176706699922,0.0
26.104,8161.0,1.7170598970160427,0.0
26.112,8163.0,-3.9125867518337145,0.0
26.12,8163.0,-6.240154516638768,0.0
26.128,8290.0,19.27561151082955,0.0
26.136,8298.0,59.0237945305239,0.0
26.144,8132.0,41.30257026352524,0.0
26.152,8156.0,-4.450406769074334,0.0
26.16,8166.0,-23.88767973511972,0.0
26.168,8167.0,-29.513887650236484,0.0
26.176,8179.0,-25.71065328584359,0.0
26.184,8186.0,-15.68167257794289,0.0
26.192,8196.0,-3.8999092469705374,0.0
26.2,8210.0,8.562298221061837,0.0
26.208,8227.0,20.967607250602896,0.0
26.216,8253.0,33.910085254431124,0.0
26.224,8272.0,45.616613321119985,0.0
26.232,8281.0,51.344240786882665,1.0
26.24,8264.0,45.31275068956711,0.0
26.248,8224.0,23.230642552098516,0.0
26.256,8182.0,-10.10338700158195,0.0
26.264,8165.0,-40.33903303436068,0.0
26.272,8161.0,-56.394788013296875,0.0
26.28,8165.0,-57.34001952120116,0.0
26.288,8171.0,-47.1625958629395,0.0
26.296,8167.0,-33.58467642615142,0.0
26.304,8171.0,-20.462883893810385,0.0
26.312,8170.0,-8.987360218500271,0.0
26.32,8167.0,-1.6553678414989008,0.0
26.328,8168.0,2.5231320179916565,0.0
26.336,8163.0,3.7945500533708127,0.0
26.344,8167.0,3.7668651821775256,0.0
26.352,8168.0,4.200895292790847,0.0
26.36,8170.0,4.433577146029165,0.0
26.368,8177.0,5.737709602195764,0.0
26.376,8181.0,7.886375953494962,0.0
26.384,8199.0,12.456044144799762,0.0
26.392,8187.0,14.495860008462614,0.0
26.4,8175.0,8.601240485425478,0.0
26.408,8167.0,-0.2748938507220373,0.0
26.416,8172.0,-6.095450384349306,0.0
26.424,8167.0,-8.613575696819225,0.0
26.432,8469.0,51.880473707683905,0.0
26.44,8171.0,80.60806590838706,0.0
26.448,8150.0,20.20441937702094,0.0
26.456,8161.0,-20.624434303001408,0.0
26.464,8169.0,-37.761927716925584,0.0
26.472,8169.0,-40.53745251089822,0.0
26.48,8180.0,-33.78562794768459,0.0
26.488,8189.0,-20.58429356147667,0.0
26.496,8194.0,-6.796012758945608,0.0
26.504,8212.0,7.087628486012136,0.0
26.512,8231.0,21.78295339170859,0.0
26.52,8251.0,35.13892361326589,1.0
