Time_Seconds,ECG_Raw,ECG_Filtered,R_Peak_Marker
0.0,8017.5,292.0667602080521,0.0
0.008,8077.5,724.8386021104043,0.0
0.016,8119.5,891.7237523301724,0.0
0.024,8119.5,863.8041433742837,0.0
0.032,8091.0,710.507055150005,0.0
0.04,8061.0,500.17455566744775,0.0
0.048,8068.5,295.35512724546993,0.0
0.056,8103.5,138.12871646852795,0.0
0.064,8127.0,36.154930745099136,0.0
0.072,8147.5,-20.644476003154523,0.0
0.08,8175.5,-41.1970152974061,0.0
0.088,8517.5,28.48550562489845,0.0
0.096,8089.0,47.70487343713535,0.0
0.104,8146.0,-24.05920224751958,0.0
0.112,8167.0,-46.917234958868676,0.0
0.12,8175.5,-47.29535689770796,0.0
0.128,8183.0,-37.07963004505177,0.0
0.136,8213.5,-17.65292511943153,0.0
0.144,8230.0,6.114526702728426,0.0
0.152,8246.0,25.883300896300852,0.0
0.16,8267.0,41.20943793398351,0.0
0.168,8268.5,48.6222214529123,0.0
0.176,8257.0,43.591418478998094,0.0
0.184,8233.5,26.85670747200038,0.0
0.192,8198.5,0.9364348946019163,0.0
0.2,8163.0,-28.937954271869557,0.0
0.208,8155.0,-51.10536919510241,0.0
0.216,8168.5,-55.34331011107133,0.0
0.224,8198.0,-40.67398688114713,0.0
0.232,8201.0,-19.192140011621404,0.0
0.24,8209.0,-1.330747161017598,0.0
0.248,8187.0,6.573996561371132,0.0
0.256,8161.0,0.4457139259266114,0.0
0.264,8170.0,-6.719231826832356,0.0
0.272,8173.5,-7.3840937739153105,0.0
0.28,8170.5,-6.555625847109241,0.0
0.288,8178.5,-4.050256901940202,0.0
0.296,8188.0,1.6207453405625074,0.0
0.304,8196.5,8.406257430915048,0.0
0.312,8192.0,11.9619135422015,0.0
0.32,8244.5,22.057594985863943,0.0
0.328,8486.0,84.7484149361178,0.0
0.336,8071.5,73.63075986878198,0.0
0.344,8131.0,-16.634287930775827,1.0
0.352,8149.0,-51.66162011250208,0.0
0.36,8174.0,-55.759279778247674,0.0
0.368,8196.0,-40.126725239578036,0.0
0.376,8216.0,-16.217338455640856,0.0
0.384,8210.5,3.3437353544798043,0.0
0.392,8223.0,15.835278180064734,0.0
0.4,8234.0,25.62301030124854,0.0
0.408,8234.0,29.774017206807457,0.0
0.416,8219.0,24.650311037570873,0.0
0.424,8191.5,9.200096510717913,0.0
0.432,8172.5,-10.831966443298825,0.0
0.44,8160.5,-27.369967035127274,0.0
0.448,8171.5,-33.20520408171592,0.0
0.456,8185.5,-26.51433216810483,0.0
0.464,8189.5,-14.860060993705474,0.0
0.472,8191.5,-4.488978641643598,0.0
0.48,8161.5,-3.3953785692067413,0.0
0.488,8145.0,-11.733834150892108,0.0
0.496,8152.0,-16.827053108713926,0.0
0.504,8156.5,-14.938535055303191,0.0
0.512,8168.5,-8.185846750010569,0.0
0.52,8182.0,2.258423989624589,0.0
0.528,8164.0,7.173391043192169,0.0
0.536,8155.0,3.4764014466798017,0.0
0.544,8152.0,-1.688665490365338,0.0
0.552,8178.0,0.21166301755943095,0.0
0.56,8200.0,11.109863118855856,0.0
0.568,8545.5,90.9512072385553,0.0
0.576,8139.5,112.01977009691177,0.0
0.584,8147.5,26.18443599729244,0.0
0.592,8221.0,-11.897791465018372,0.0
0.6,8252.0,-11.266276243126867,0.0
0.608,8256.5,-1.9320194597239606,0.0
0.616,8272.5,8.069328466306843,0.0
0.624,8295.0,20.626285435510226,0.0
0.632,8323.5,35.34460279120049,0.0
0.64,8343.0,48.49677200497035,0.0
0.648,8330.0,50.25021548703239,0.0
0.656,8316.0,38.15255102064748,0.0
0.664,8281.0,15.202894741435784,0.0
0.672,8270.0,-10.072270354829698,1.0
0.68,8240.0,-31.869220046868804,0.0
0.688,8229.5,-48.20233361788951,0.0
0.696,8237.0,-51.16656979854929,0.0
0.704,8254.0,-40.15678806896358,0.0
0.712,8271.5,-20.508999805684198,0.0
0.72,8273.0,-1.8982081084848232,0.0
0.728,8244.5,3.8798519180631956,0.0
0.736,8254.0,2.8270400838443948,0.0
0.744,8246.0,2.082247491604903,0.0
0.752,8283.0,7.250808987650544,0.0
0.76,8273.5,14.826452176527937,0.0
0.768,8248.0,9.908281065137771,0.0
0.776,8255.5,1.820055578964002,0.0
0.784,8261.0,-0.5833388321486837,0.0
0.792,8272.0,1.4547023286881995,0.0
0.8,8468.0,44.72971709787885,0.0
0.808,8363.5,82.23446183464216,0.0
0.816,8207.5,38.72662624511031,0.0
0.824,8275.0,-10.95587259347576,0.0
0.832,8299.0,-19.983455474041875,0.0
0.84,8301.5,-16.87865353875327,0.0
0.848,8318.0,-8.60176002790854,0.0
0.856,8317.0,0.7639722766318755,0.0
0.864,8328.0,8.23003194952571,0.0
0.872,8349.0,17.9353037226349,0.0
0.88,8354.5,26.369753549887264,0.0
0.888,8338.5,25.21474872472436,0.0
0.896,8285.5,6.612070370299762,0.0
0.904,8240.0,-25.515622047221996,0.0
0.912,8223.0,-53.41621842069321,0.0
0.92,8222.5,-65.39332033486971,0.0
0.928,8226.0,-61.94925695756979,0.0
0.936,8238.0,-47.3535422063826,0.0
0.944,8243.0,-28.06919061723579,0.0
0.952,8246.5,-10.672279261578069,0.0
0.96,8243.0,1.2342689396043625,0.0
0.968,8219.5,2.5725299206319505,0.0
0.976,8219.0,-1.9292704254048658,0.0
0.984,8221.0,-3.9926763233497695,0.0
0.992,8228.5,-2.666776480747103,0.0
1.0,8200.5,-5.666493606164067,0.0
1.008,8201.0,-12.199686722065053,0.0
1.016,8195.5,-15.235293975959848,0.0
1.024,8194.0,-16.1508024753914,0.0
1.032,8182.5,-16.89949111773808,0.0
1.04,8470.0,41.60692548645761,0.0
1.048,8178.0,68.98006909319497,0.0
1.056,8137.0,6.678133924015583,1.0
1.064,8195.0,-27.706497738976623,0.0
1.072,8204.0,-30.152724899733812,0.0
1.08,8207.0,-24.57630071650965,0.0
1.088,8236.5,-10.912578583790037,0.0
1.096,8257.0,9.03764109411145,0.0
1.104,8276.5,27.637988028280006,0.0
1.112,8306.5,44.56084813416578,0.0
1.12,8294.5,51.49046398929636,0.0
1.128,8280.0,42.36809343087225,0.0
1.136,8249.0,21.253947961381755,0.0
1.144,8219.0,-6.917622524123317,0.0
1.152,8196.0,-33.357393326878764,0.0
1.16,8176.5,-52.61924066235906,0.0
1.168,8181.0,-59.097479811831136,0.0
1.176,8188.0,-51.61936479043061,0.0
1.184,8193.0,-36.9191050136435,0.0
1.192,8192.0,-21.810820225618954,0.0
1.2,8185.5,-11.101283902151408,0.0
1.208,8179.0,-5.740506818844551,0.0
1.216,8203.0,1.8754409273456076,0.0
1.224,8194.0,9.15967325199108,0.0
1.232,8211.5,13.815398665601379,0.0
1.24,8192.0,14.065607843803264,0.0
1.248,8185.5,6.76924753536241,0.0
1.256,8187.0,0.4063901292486207,0.0
1.264,8185.5,-3.418206791325474,0.0
1.272,8193.0,-3.936021662846315,0.0
1.28,8363.0,32.61788713191186,0.0
1.288,8344.0,80.13997630616586,0.0
1.296,8122.5,46.959946916690114,0.0
1.304,8202.0,-8.793067057254348,0.0
1.312,8215.5,-21.432198192472242,0.0
1.32,8211.0,-23.81887786993093,0.0
1.328,8215.0,-21.72128367811115,0.0
1.336,8219.5,-15.451009932448187,0.0
1.344,8240.0,-4.2927042876119685,0.0
1.352,8274.0,14.09151883833647,0.0
1.36,8272.5,29.46725429180242,0.0
1.368,8244.5,28.065981007132905,0.0
1.376,8206.0,9.396131484051466,0.0
1.384,8163.5,-19.618117953052888,1.0
1.392,8144.5,-46.36725968812857,0.0
1.4,8122.5,-63.53316794454622,0.0
1.408,8119.5,-69.16020022281577,0.0
1.416,8135.0,-59.448754847442615,0.0
1.424,8135.0,-41.52562634950618,0.0
1.432,8130.5,-25.549496312107067,0.0
1.44,8125.5,-14.168491963420365,0.0
1.448,8126.5,-6.106877432486499,0.0
1.456,8122.0,-1.1284300732038446,0.0
1.464,8137.0,4.132057461248223,0.0
1.472,8139.5,10.191896858185828,0.0
1.48,8142.0,13.251968145312503,0.0
1.488,8136.5,12.439631996720209,0.0
1.496,8127.0,7.008710331606608,0.0
1.504,8126.0,0.5891103437386391,0.0
1.512,8127.0,-3.296746587388725,0.0
1.52,8133.5,-3.5627540922757817,0.0
1.528,8256.0,23.174891415864977,0.0
1.536,8307.0,70.92009682295384,0.0
1.544,8037.0,43.662328284446176,0.0
1.552,8123.5,-16.56679668614197,0.0
1.56,8153.0,-25.975584357811385,0.0
1.568,8154.5,-21.26839513147138,0.0
1.576,8166.0,-12.604120724549375,0.0
1.584,8181.5,-0.053027393889351515,0.0
1.592,8206.5,15.65189147310548,0.0
1.6,8222.0,30.84092649008494,0.0
1.608,8229.0,39.74461681932485,0.0
1.616,8217.5,38.06513785777952,0.0
1.624,8197.5,24.86529660322799,0.0
1.632,8165.0,2.5632665089078728,0.0
1.64,8156.5,-19.39107257623982,0.0
1.648,8138.0,-34.951039288829634,0.0
1.656,8136.5,-42.940204336693796,0.0
1.664,8136.0,-41.563343202720716,0.0
1.672,8157.5,-30.157259066390907,0.0
1.68,8164.0,-13.119100197009175,0.0
1.688,8156.5,-1.2580515142772128,0.0
1.696,8142.0,1.4526704468939897,0.0
1.704,8156.5,2.8355449595289883,0.0
1.712,8153.0,5.470781648656612,0.0
1.72,8170.0,8.95788233805365,0.0
1.728,8177.5,14.667397435722023,0.0
1.736,8168.5,15.513793437853792,0.0
1.744,8152.0,8.452605416685174,0.0
1.752,8142.0,-2.418856133172767,0.0
1.76,8144.5,-10.013749612623997,0.0
1.768,8147.5,-11.863499923488462,0.0
1.776,8191.5,-1.5566538468328872,0.0
1.784,8449.0,66.37150355465883,0.0
1.792,8045.0,66.55132974245157,0.0
1.8,8135.5,-7.480596890389506,1.0
1.808,8161.5,-26.327763435398992,0.0
1.816,8176.5,-25.10601316653492,0.0
1.824,8199.5,-12.813672814128722,0.0
1.832,8199.0,0.9954695963303948,0.0
1.84,8194.5,7.989744589814109,0.0
1.848,8229.5,17.145982844811215,0.0
1.856,8244.0,30.074324475299818,0.0
1.864,8228.5,32.956201005699995,0.0
1.872,8200.0,20.67475269544684,0.0
1.88,8160.5,-3.6154681829455058,0.0
1.888,8133.0,-31.120672342062107,0.0
1.896,8123.5,-50.22807397674046,0.0
1.904,8150.0,-50.43987690937752,0.0
1.912,8136.0,-40.364095805675106,0.0
1.92,8131.5,-32.06518736082671,0.0
1.928,8138.5,-21.785013642937656,0.0
1.936,8142.0,-10.257311991858842,0.0
1.944,8137.5,-2.089019494426111,0.0
1.952,8151.0,4.897122654044551,0.0
1.96,8142.5,9.307758127390798,0.0
1.968,8144.5,9.177079321025758,0.0
1.976,8148.0,8.832097077564413,0.0
1.984,8150.0,8.412679514802221,0.0
1.992,8132.0,3.6203619575621815,0.0
2.0,8128.5,-4.155164073235028,0.0
2.008,8137.0,-7.102121308746064,0.0
2.016,8150.5,-3.273563404771039,0.0
2.024,8162.5,4.69662129911103,0.0
2.032,8325.5,44.4507564204996,0.0
2.04,8272.0,83.59296730687674,0.0
2.048,8094.0,46.772284938734856,0.0
2.056,8158.0,-5.384930353482105,0.0
2.064,8181.0,-17.640030774301522,0.0
2.072,8197.0,-14.245507932706914,0.0
2.08,8211.0,-3.9491808423406383,0.0
2.088,8228.0,9.072118007424024,0.0
2.096,8229.5,19.17701775739374,0.0
2.104,8256.0,27.965999643578698,1.0
2.112,8249.5,33.00982988569558,0.0
2.12,8237.0,27.106347272645735,0.0
2.128,8210.0,11.435512632370319,0.0
2.136,8195.0,-8.146586453373175,0.0
2.144,8186.0,-23.395508688493692,0.0
2.152,8182.0,-31.522571609460556,0.0
2.16,8174.5,-33.8991687703101,0.0
2.168,8178.5,-30.880223184762826,0.0
2.176,8183.5,-22.574309995145995,0.0
2.184,8185.0,-12.911719419489373,0.0
2.192,8172.5,-7.48701928298874,0.0
2.2,8162.0,-7.8426590282088,0.0
2.208,8153.0,-10.847810181797513,0.0
2.216,8165.5,-10.265342669301845,0.0
2.224,8183.0,-2.2355004983101026,0.0
2.232,8197.0,9.287739151281585,0.0
2.24,8185.0,15.103034848529205,0.0
2.248,8193.0,15.435189488295919,0.0
2.256,8188.5,14.006521164463265,0.0
2.264,8164.5,5.215481646382614,0.0
2.272,8152.5,-8.129082884890067,0.0
2.28,8389.0,31.076963623331494,0.0
2.288,8156.0,50.26677327687116,0.0
2.296,8059.5,-13.322562688513244,0.0
2.304,8096.5,-61.065232434821155,0.0
2.312,8089.0,-74.0150842784642,0.0
2.32,8079.5,-73.9251589111825,0.0
2.328,8096.5,-61.131794350498694,0.0
2.336,8130.0,-33.98032642234102,0.0
2.344,8157.0,-0.41097460993159984,0.0
2.352,8194.0,32.57944606648607,0.0
2.36,8218.5,59.71499858670472,0.0
2.368,8199.0,67.73092510292372,0.0
2.376,8148.0,47.79951501071059,0.0
2.384,8098.0,8.130758010925547,0.0
2.392,8087.0,-29.02434864875977,0.0
2.4,8119.0,-42.30706631982753,0.0
2.408,8143.0,-32.30734686743176,0.0
2.416,8145.0,-16.183532713056593,0.0
2.424,8142.0,-4.39862184701451,0.0
2.432,8154.0,5.076545420271714,1.0
2.44,8153.0,12.157788582107287,0.0
2.448,8159.0,15.523863982213243,0.0
2.456,8158.5,16.284608942977684,0.0
2.464,8172.5,17.02363445598303,0.0
2.472,8183.0,19.885079199855,0.0
2.48,8179.5,19.992625954431333,0.0
2.488,8168.0,13.96059848619143,0.0
2.496,8165.0,5.3143139194853575,0.0
2.504,8169.0,-0.4004964122439105,0.0
2.512,8160.5,-4.638859546996173,0.0
2.52,8341.5,28.799777536247802,0.0
2.528,8277.5,68.11214261159398,0.0
2.536,8084.0,28.427343469769312,0.0
2.544,8166.5,-22.029493627021793,0.0
2.552,8173.5,-30.244728869656,0.0
2.56,8191.5,-25.410226951554478,0.0
2.568,8210.0,-11.241640065636147,0.0
2.576,8222.0,5.073179325847377,0.0
2.584,8232.5,18.549351297178646,0.0
2.592,8236.0,26.567048121004063,0.0
2.6,8247.0,30.243184678438183,0.0
2.608,8211.0,22.724501398685334,0.0
2.616,8170.0,-0.8985016088306566,0.0
2.624,8118.0,-33.73285985316784,0.0
2.632,8094.0,-63.56360811634431,0.0
2.64,8096.0,-76.06308833310436,0.0
2.648,8119.0,-66.81567771931441,0.0
2.656,8133.0,-43.65759842927173,0.0
2.664,8126.0,-21.912835512345737,0.0
2.672,8123.5,-7.6716318913454415,0.0
2.68,8132.0,3.1395073444796253,0.0
2.688,8132.5,10.895918313489119,0.0
2.696,8155.5,18.632166518403665,0.0
2.704,8174.0,28.86099879282392,0.0
2.712,8158.0,31.045397320427583,0.0
2.72,8132.5,19.151914122738617,0.0
2.728,8122.5,1.961792264480664,0.0
2.736,8115.0,-12.077112751358982,0.0
2.744,8120.5,-18.957266836813687,0.0
2.752,8241.5,5.692021067685573,0.0
2.76,8312.5,58.63234998375651,0.0
2.768,8030.0,37.84219256492656,1.0
2.776,8113.5,-20.846259355757866,0.0
2.784,8142.5,-29.410131357488353,0.0
2.792,8141.0,-24.39759541719559,0.0
2.8,8146.0,-17.019173599145915,0.0
2.808,8177.0,-2.720449822243836,0.0
2.816,8205.0,18.201992784053346,0.0
2.824,8237.5,40.17605376606048,0.0
2.832,8224.5,51.0641793103689,0.0
2.84,8191.5,40.36362857123254,0.0
2.848,8167.0,16.16844058542074,0.0
2.856,8155.5,-7.946709812482368,0.0
2.864,8137.0,-27.132579724222296,0.0
2.872,8109.0,-43.86544054531737,0.0
2.88,8107.0,-53.23973302695185,0.0
2.888,8122.5,-47.95384107749396,0.0
2.896,8130.5,-32.75633559268795,0.0
2.904,8143.5,-14.511991478944765,0.0
2.912,8146.5,1.746685941183614,0.0
2.92,8140.0,10.38216987269061,0.0
2.928,8135.5,11.66781226766716,0.0
2.936,8153.5,13.417222128126241,0.0
2.944,8140.0,13.336964700446515,0.0
2.952,8129.5,6.364239535746947,0.0
2.96,8138.5,0.9692362983894327,0.0
2.968,8151.5,2.126310749438062,0.0
2.976,8143.0,3.4075825741219887,0.0
2.984,8278.5,29.59489956552602,0.0
2.992,8296.5,71.95527609520855,0.0
3.0,8049.5,39.31297499664879,0.0
3.008,8141.0,-17.72071727670391,0.0
3.016,8164.0,-25.371234573872016,0.0
3.024,8168.5,-20.430886592459274,0.0
3.032,8173.5,-12.470751547246437,0.0
3.04,8188.5,-1.7864111858568776,0.0
3.048,8209.5,12.157960786099466,0.0
3.056,8234.0,27.85703652595612,0.0
3.064,8249.0,40.9878710497801,0.0
3.072,8235.5,42.845631125787804,0.0
3.08,8205.0,28.459167696949407,0.0
3.088,8152.5,-1.3206772141006695,1.0
3.096,8132.5,-33.544007906962634,0.0
3.104,8134.0,-51.294730270425134,0.0
3.112,8141.5,-52.17688422871947,0.0
3.12,8150.0,-41.51914391906962,0.0
3.128,8160.0,-25.14181633256385,0.0
3.136,8166.0,-8.375682492031274,0.0
3.144,8153.0,1.3795279784255854,0.0
3.152,8138.5,1.3213179752021915,0.0
3.16,8164.5,3.4360247535337294,0.0
3.168,8175.5,11.72484744538474,0.0
3.176,8167.5,15.462120726660714,0.0
3.184,8158.5,11.854983961962489,0.0
3.192,8172.5,8.945877848945202,0.0
3.2,8175.0,9.240100216296923,0.0
3.208,8174.5,8.421796229840083,0.0
3.216,8182.5,8.193265068678784,0.0
3.224,8535.0,80.4663635835841,0.0
3.232,8108.0,95.78849298372666,0.0
3.24,8143.0,10.241385752076894,0.0
3.248,8206.0,-21.88226661421254,0.0
3.256,8226.0,-20.60556334220996,0.0
3.264,8246.0,-8.554443540043621,0.0
3.272,8266.5,8.143706840440473,0.0
3.28,8260.0,19.64449490605739,0.0
3.288,8271.5,24.489208828356823,0.0
3.296,8288.5,29.46408503149678,0.0
3.304,8280.0,29.67567255372751,0.0
3.312,8249.5,17.333890682728224,0.0
3.32,8217.5,-5.361842715472903,0.0
3.328,8178.5,-32.47650191226421,0.0
3.336,8154.5,-56.45919756554417,0.0
3.344,8166.5,-64.53425336312284,0.0
3.352,8174.0,-55.54180743731786,0.0
3.36,8167.0,-41.700745735935925,0.0
3.368,8180.0,-25.96703445116941,0.0
3.376,8185.5,-8.945669362449053,0.0
3.384,8184.0,3.2942102520939898,0.0
3.392,8175.5,7.990405477124341,0.0
3.4,8168.5,6.389625029544732,0.0
3.408,8161.0,1.511821585301277,0.0
3.416,8153.5,-4.66662569165419,0.0
3.424,8156.0,-8.634537809715539,0.0
3.432,8157.0,-8.957003760306634,0.0
3.44,8163.5,-6.257465915811963,0.0
3.448,8170.0,-1.0563472764736161,0.0
3.456,8500.5,71.02911821713201,0.0
3.464,8066.0,81.64420523076683,0.0
3.472,8140.0,1.893277832279182,1.0
3.48,8176.5,-22.983091335211157,0.0
3.488,8190.0,-23.99538590796533,0.0
3.496,8186.5,-18.913063273909074,0.0
3.504,8209.0,-9.158226753007057,0.0
3.512,8239.5,8.82720644616802,0.0
3.52,8265.0,29.566299461257813,0.0
3.528,8273.0,44.192842510648916,0.0
3.536,8255.5,44.2019415722898,0.0
3.544,8227.5,28.21009915794616,0.0
3.552,8182.5,-0.4383942651140842,0.0
3.56,8160.5,-31.002755528542593,0.0
3.568,8164.0,-48.157649962585765,0.0
3.576,8152.0,-52.73831509406591,0.0
3.584,8168.5,-46.53220812830341,0.0
3.592,8171.0,-31.92537904457504,0.0
3.6,8171.5,-17.833757638911038,0.0
3.608,8171.5,-6.69403740058965,0.0
3.616,8161.0,-1.2362887889357808,0.0
3.624,8170.5,1.9745498909514936,0.0
3.632,8171.0,5.6170777658367115,0.0
3.64,8163.5,5.489541685548147,0.0
3.648,8144.0,-0.9342845133660376,0.0
3.656,8156.0,-6.123932359305172,0.0
3.664,8167.0,-3.5657021514969074,0.0
3.672,8162.0,-0.28636154446508044,0.0
3.68,8183.0,4.965264063216409,0.0
3.688,8530.5,82.60312790507533,0.0
3.696,8090.5,97.09659714544296,0.0
3.704,8116.0,6.264329083588791,0.0
3.712,8140.5,-38.18842951695797,0.0
3.72,8137.5,-54.29543327519809,0.0
3.728,8148.5,-53.954853590262246,0.0
3.736,8173.0,-38.320563404528684,0.0
3.744,8186.5,-15.501188912154248,0.0
3.752,8219.0,9.742152667345863,0.0
3.76,8244.0,34.94129532294596,0.0
3.768,8242.0,49.24543290549718,0.0
3.776,8203.0,41.86235359814077,0.0
3.784,8158.0,13.98791649970326,0.0
3.792,8122.5,-21.06392925000705,1.0
3.8,8116.0,-47.18062735870694,0.0
3.808,8113.0,-57.41371739225201,0.0
3.816,8132.0,-51.49213954114225,0.0
3.824,8159.0,-30.785474104040077,0.0
3.832,8179.5,-4.167855897643449,0.0
3.84,8156.0,11.592753304152211,0.0
3.848,8168.0,16.80649388804477,0.0
3.856,8167.0,19.58913769288006,0.0
3.864,8188.0,22.35086064351958,0.0
3.872,8187.0,24.681501238241708,0.0
3.88,8195.5,23.850087510792946,0.0
3.888,8177.0,17.69942777957158,0.0
3.896,8174.5,7.088178278120722,0.0
3.904,8188.0,1.9853603919007128,0.0
3.912,8200.0,3.876229256597526,0.0
3.92,8241.5,15.336897977692843,0.0
3.928,8598.5,101.20334228687648,0.0
3.936,8155.0,118.96897334839014,0.0
3.944,8215.5,33.19122195618729,0.0
3.952,8258.0,-1.526794921202054,0.0
3.96,8265.5,-11.612451519800516,0.0
3.968,8274.5,-12.445543886391306,0.0
3.976,8289.5,-6.148122201545675,0.0
3.984,8317.0,7.191075528642386,0.0
3.992,8352.5,26.86055507638389,0.0
4.0,8386.5,48.61958294528495,0.0
4.008,8369.5,57.58964751372537,0.0
4.016,8333.5,43.335314902665914,0.0
4.024,8281.0,10.25455789919556,0.0
4.032,8257.0,-26.49307233157765,0.0
4.04,8245.5,-51.461577054851205,0.0
4.048,8232.0,-63.533247685816605,0.0
4.056,8230.0,-64.20668631018634,0.0
4.064,8237.0,-53.84896117446306,0.0
4.072,8247.5,-35.98401706094319,0.0
4.08,8262.0,-14.85559623408335,0.0
4.088,8254.0,1.2199561052477748,0.0
4.096,8241.5,6.353884613135733,0.0
4.104,8256.0,8.835359212253934,0.0
4.112,8262.5,13.253671765025501,0.0
4.12,8268.0,16.308851337385022,0.0
4.128,8243.0,11.65919906203635,0.0
4.136,8241.0,1.6256079188738113,0.0
4.144,8242.5,-4.656853102277637,0.0
4.152,8250.5,-5.725398464725458,0.0
4.16,8230.0,-8.04305674739362,0.0
4.168,8472.0,37.05833888653683,0.0
4.176,8230.5,58.2148987301473,0.0
4.184,8158.0,-2.2496712727529484,0.0
4.192,8237.5,-36.23713580156323,0.0
4.2,8249.0,-32.25191376929365,0.0
4.208,8253.0,-21.83862644081114,0.0
4.216,8275.5,-6.955260098099643,0.0
4.224,8302.0,12.911978138056384,0.0
4.232,8319.0,31.590907642940238,0.0
4.24,8338.5,45.3050213639342,0.0
4.248,8328.0,48.385457032817385,0.0
4.256,8303.5,35.72088635591945,0.0
4.264,8267.5,10.455172264217481,0.0
4.272,8230.5,-20.986017093052396,1.0
4.28,8207.0,-48.758756615976154,0.0
4.288,8208.0,-62.38787450483983,0.0
4.296,8219.5,-58.435613883131055,0.0
4.304,8218.0,-45.195716416338655,0.0
4.312,8222.0,-30.002706745942533,0.0
4.32,8233.0,-13.404309030778677,0.0
4.328,8230.5,0.1807644868456464,0.0
4.336,8223.0,6.144540295952538,0.0
4.344,8239.0,10.476479648351187,0.0
4.352,8248.5,16.659694485855653,0.0
4.36,8257.5,21.57019647036759,0.0
4.368,8246.0,20.693210799684948,0.0
4.376,8252.0,15.91357337722593,0.0
4.384,8250.5,11.593571835243665,0.0
4.392,8244.0,5.646601116247439,0.0
4.4,8237.0,-1.4845800695622984,0.0
4.408,8438.0,34.15749090961526,0.0
4.416,8279.0,58.63810874889259,0.0
4.424,8154.5,6.306392671554704,0.0
4.432,8231.5,-35.30291066308723,0.0
4.44,8234.0,-38.31633057276531,0.0
4.448,8237.5,-33.06344921305845,0.0
4.456,8247.5,-22.186033544583324,0.0
4.464,8268.5,-6.0561577398696045,0.0
4.472,8292.0,13.492595897730325,0.0
4.48,8324.5,34.44890593416358,0.0
4.488,8326.0,48.56580041102234,0.0
4.496,8286.0,41.68577820858445,0.0
4.504,8239.5,13.624867105164412,0.0
4.512,8204.0,-21.78866772666629,0.0
4.52,8195.5,-48.41799090336008,0.0
4.528,8185.5,-60.605355057149836,0.0
4.536,8183.5,-61.07606483693894,0.0
4.544,8208.0,-47.49782093904196,0.0
4.552,8211.0,-26.648166921114125,0.0
4.56,8223.5,-7.110876484877281,0.0
4.568,8215.5,6.440891387415149,0.0
4.576,8204.0,9.49500333256924,0.0
4.584,8218.0,10.37239758345072,0.0
4.592,8216.5,11.872469496748181,0.0
4.6,8231.0,13.615513757089047,0.0
4.608,8215.0,12.27562342671149,0.0
4.616,8213.0,5.944670250399213,0.0
4.624,8205.5,-0.6415850294201846,0.0
4.632,8196.0,-7.912527693514676,0.0
4.64,8180.5,-16.12043921205168,0.0
4.648,8460.5,35.50703233657123,0.0
4.656,8157.5,55.957229729960545,0.0
4.664,8132.0,-7.54515454508396,0.0
4.672,8199.5,-35.37579080661544,0.0
4.68,8196.0,-33.39614301143024,0.0
4.688,8198.0,-27.46858433448756,0.0
4.696,8219.5,-14.997404924291686,0.0
4.704,8243.5,3.9475011325375817,0.0
4.712,8270.0,24.87019120321611,0.0
4.72,8293.0,43.586111879709506,0.0
4.728,8287.5,51.62177190955413,0.0
4.736,8268.0,43.440057458480624,0.0
4.744,8221.0,18.42937475032295,0.0
4.752,8183.5,-16.419432166785327,1.0
4.76,8150.5,-48.94278751617912,0.0
4.768,8156.0,-66.3750146377763,0.0
4.776,8167.0,-63.250205743047445,0.0
4.784,8185.5,-45.78584683473514,0.0
4.792,8188.0,-24.2254616457019,0.0
4.8,8183.5,-8.210421107925868,0.0
4.808,8180.5,0.9733880328951727,0.0
4.816,8178.5,5.235596381697405,0.0
4.824,8188.5,8.596887757222248,0.0
4.832,8196.0,12.856624703417538,0.0
4.84,8198.5,15.469618295948749,0.0
4.848,8186.0,12.62655342691528,0.0
4.856,8172.5,3.719013581951458,0.0
4.864,8168.5,-5.688001578935882,0.0
4.872,8172.0,-10.491077071291102,0.0
4.88,8158.5,-13.784045126978526,0.0
4.888,8392.0,31.30450428057452,0.0
4.896,8190.5,59.761292094031205,0.0
4.904,8089.0,5.6269224578659305,0.0
4.912,8164.5,-32.55298379265241,0.0
4.92,8188.5,-29.869168806722882,0.0
4.928,8184.0,-19.769580423733487,0.0
4.936,8209.0,-6.611231864139427,0.0
4.944,8224.0,10.344967539247818,0.0
4.952,8246.0,26.363547226037554,0.0
4.96,8262.5,39.705465639269505,0.0
4.968,8269.5,46.37710631115533,0.0
4.976,8249.5,40.63547616209166,0.0
4.984,8209.0,18.71886786154937,0.0
4.992,8170.0,-13.322495002972346,0.0
5.0,8138.5,-44.65506479666533,0.0
5.008,8144.5,-61.624531029443006,0.0
5.016,8164.0,-57.10756807649477,0.0
5.024,8168.0,-40.97699287375963,0.0
5.032,8178.0,-22.364589961086494,0.0
5.04,8165.5,-8.477261805789112,0.0
5.048,8164.5,-1.7371270065771114,0.0
5.056,8156.0,0.5714887293615902,0.0
5.064,8172.0,3.3824120149402006,0.0
5.072,8183.5,10.150246494528801,0.0
5.08,8183.0,14.8611445388849,0.0
5.088,8169.0,12.431674998377048,0.0
5.096,8162.0,4.81978474035941,0.0
5.104,8160.0,-2.251318284800618,0.0
5.112,8161.0,-6.296131355408534,0.0
5.12,8150.5,-9.67451713824812,0.0
5.128,8219.5,1.7458802920043581,0.0
5.136,8434.5,66.25662254614053,0.0
5.144,8052.0,60.14249505631983,0.0
5.152,8134.0,-13.984099704425262,1.0
5.16,8170.5,-31.49264338508624,0.0
5.168,8179.0,-27.87897370001201,0.0
5.176,8196.5,-16.203252492344973,0.0
5.184,8203.5,-1.8362756908989013,0.0
5.192,8218.5,11.43334990784524,0.0
5.2,8250.0,27.047542141339136,0.0
5.208,8266.5,41.9874626095434,0.0
5.216,8252.5,44.96786407578679,0.0
5.224,8214.0,29.18701634285776,0.0
5.232,8184.0,1.4345463596441732,0.0
5.24,8163.5,-25.512904423604823,0.0
5.248,8144.5,-45.65140749962757,0.0
5.256,8146.5,-54.11310680949509,0.0
5.264,8156.5,-48.46154622492918,0.0
5.272,8177.5,-31.438554636875097,0.0
5.28,8179.5,-11.90581054985978,0.0
5.288,8166.5,-0.796425556534814,0.0
5.296,8173.0,4.566438570584978,0.0
5.304,8171.5,8.067205708514166,0.0
5.312,8177.0,9.731673313273177,0.0
5.32,8182.0,11.385758824013465,0.0
5.328,8175.5,10.331315602483528,0.0
5.336,8160.5,3.748902506440345,0.0
5.344,8161.0,-3.674665569185663,0.0
5.352,8150.5,-9.550837059514606,0.0
5.36,8163.5,-11.067223499425609,0.0
5.368,8176.5,-4.974268794091813,0.0
5.376,8519.0,72.0121954753647,0.0
5.384,8070.5,84.96807732057505,0.0
5.392,8123.0,-1.1551253782597541,0.0
5.4,8156.0,-34.445394352086396,0.0
5.408,8164.5,-40.43239197337016,0.0
5.416,8174.0,-34.165649793259036,0.0
5.424,8201.5,-17.720462518240083,0.0
5.432,8219.0,3.8853624989205855,0.0
5.44,8238.0,23.53092506605094,0.0
5.448,8248.0,37.50643629864817,0.0
5.456,8243.5,41.20876668617984,0.0
5.464,8207.0,28.774249541246263,0.0
5.472,8175.5,3.165524682366595,0.0
5.48,8154.0,-23.287307574559918,1.0
5.488,8125.5,-45.61587947678163,0.0
5.496,8126.0,-57.62547741483513,0.0
5.504,8139.0,-53.23317015152361,0.0
5.512,8142.0,-39.29597675715672,0.0
5.52,8138.5,-25.197960067399663,0.0
5.528,8144.0,-12.631506420842925,0.0
5.536,8150.0,-0.9351815028471719,0.0
5.544,8154.5,8.268948980461346,0.0
5.552,8145.5,11.53923259725957,0.0
5.56,8150.0,10.804435362739014,0.0
5.568,8153.5,10.36620415319203,0.0
5.576,8161.0,10.782705098813494,0.0
5.584,8154.0,9.496388117223432,0.0
5.592,8135.0,1.9840764142054468,0.0
5.6,8129.5,-7.764871940898729,0.0
5.608,8138.0,-11.740235214396762,0.0
5.616,8135.5,-11.085495320716518,0.0
5.624,8340.5,32.35332563175825,0.0
5.632,8194.5,65.19157531615929,0.0
5.64,8063.5,18.136921406326792,0.0
5.648,8140.5,-23.473139217677044,0.0
5.656,8162.5,-24.296673896679522,0.0
5.664,8157.5,-17.626934387212486,0.0
5.672,8185.5,-6.31109116601715,0.0
5.68,8204.0,10.837904103210576,0.0
5.688,8216.0,25.5678125878037,0.0
5.696,8235.5,36.83814997004674,0.0
5.704,8240.5,42.92368075944978,0.0
5.712,8234.0,39.708465747649825,0.0
5.72,8181.0,19.63082173930661,0.0
5.728,8141.5,-14.117154362519386,0.0
5.736,8133.5,-41.63961371367759,0.0
5.744,8114.5,-57.11941612551391,0.0
5.752,8128.0,-58.73782259346285,0.0
5.76,8143.5,-44.86487439038592,0.0
5.768,8138.5,-27.713232520015936,0.0
5.776,8147.5,-12.550923334487607,0.0
5.784,8133.0,-2.804745090429151,0.0
5.792,8131.0,0.013397516037002788,0.0
5.8,8141.0,3.3124177803433668,0.0
5.808,8142.5,7.110710771810091,0.0
5.816,8152.5,10.628406780467458,0.0
5.824,8160.5,14.774789318096737,0.0
5.832,8147.5,13.96541653918689,0.0
5.84,8145.0,8.202770047675358,0.0
5.848,8141.5,2.3253087067023444,0.0
5.856,8143.5,-1.8096077238658381,0.0
5.864,8151.5,-1.9376243504839294,0.0
5.872,8234.0,16.769658148984263,0.0
5.88,8400.5,76.16154131352482,0.0
5.888,8036.5,59.389401670497364,0.0
5.896,8133.5,-14.082068446383573,1.0
5.904,8152.0,-31.80122174795065,0.0
5.912,8159.0,-32.24918819721779,0.0
5.92,8179.0,-22.10863497760397,0.0
5.928,8203.5,-3.6682118186270145,0.0
5.936,8213.5,14.841946684398863,0.0
5.944,8231.5,29.259032683782607,0.0
5.952,8249.5,40.70408853757999,0.0
5.96,8241.5,43.34446367233022,0.0
5.968,8222.5,32.8183226101055,0.0
5.976,8182.5,9.563786427750529,0.0
5.984,8149.5,-20.55285101530444,0.0
5.992,8124.0,-47.19932416146844,0.0
6.0,8145.0,-56.72138350129512,0.0
6.008,8142.0,-50.07566761133785,0.0
6.016,8158.0,-35.89742919762921,0.0
6.024,8175.0,-15.328041191446573,0.0
6.032,8164.0,0.3863778792344874,0.0
6.04,8156.5,5.8417147141885835,0.0
6.048,8158.0,6.956514075721316,0.0
6.056,8171.0,9.523476887728748,0.0
6.064,8179.0,13.888020266887452,0.0
6.072,8184.5,17.121677354669373,0.0
6.08,8167.5,14.088748963715943,0.0
6.088,8119.0,-3.222644517325989,0.0
6.096,8117.0,-23.28917476238439,0.0
6.104,8151.0,-25.08794750291304,0.0
6.112,8174.5,-10.600812372613063,0.0
6.12,8210.5,11.729962787892646,0.0
6.128,8519.5,93.64172997394826,0.0
6.136,8077.0,100.61286244233293,0.0
6.144,8151.0,14.196627409521398,0.0
6.152,8187.5,-16.48692672262996,0.0
6.16,8213.5,-19.364715838567008,0.0
6.168,8208.0,-13.942549187245504,0.0
6.176,8221.5,-6.987627146964314,0.0
6.184,8241.5,5.028986649569333,0.0
6.192,8257.5,18.72796817747553,0.0
6.2,8268.5,29.50626449428637,0.0
6.208,8274.0,34.77799679419968,0.0
6.216,8245.5,27.92401681137244,0.0
6.224,8198.0,4.110111153230946,1.0
6.232,8172.5,-25.51049493170717,0.0
6.24,8158.5,-47.23026295359591,0.0
6.248,8159.0,-55.67269373772592,0.0
6.256,8164.5,-50.99909093774659,0.0
6.264,8178.0,-36.6213501325376,0.0
6.272,8179.5,-19.501636619813326,0.0
6.28,8188.5,-4.275229318220454,0.0
6.288,8191.0,7.727277564322776,0.0
6.296,8184.5,12.83679056266351,0.0
6.304,8170.5,9.724172260184105,0.0
6.312,8187.0,6.919827694674495,0.0
6.32,8187.0,7.583178986325947,0.0
6.328,8181.0,5.599979458638472,0.0
6.336,8174.0,0.922184826434659,0.0
6.344,8169.5,-4.333528791359186,0.0
6.352,8161.0,-9.440645760798361,0.0
6.36,8180.5,-8.782363919892077,0.0
6.368,8216.0,4.174998244732478,0.0
6.376,8494.5,75.35544068428453,0.0
6.384,8067.0,75.5858399106155,0.0
6.392,8156.5,-4.791286486046147,0.0
6.4,8185.5,-27.390123262577163,0.0
6.408,8193.0,-29.14539200364652,0.0
6.416,8208.5,-21.06575063990317,0.0
6.424,8213.0,-9.007631125475655,0.0
6.432,8227.5,3.370899737982654,0.0
6.44,8231.5,13.960039544335814,0.0
6.448,8273.5,27.503770514507778,0.0
6.456,8267.5,38.698444106892794,0.0
6.464,8223.0,29.134623084117948,0.0
6.472,8174.5,0.061465688987027534,0.0
6.48,8155.5,-30.93197622869775,0.0
6.488,8134.0,-52.84597736618912,0.0
6.496,8152.5,-58.40671004964429,0.0
6.504,8150.5,-49.46920794477046,0.0
6.512,8160.5,-35.0490615070828,0.0
6.52,8137.5,-23.86306996771191,0.0
6.528,8135.0,-18.839440958034857,0.0
6.536,8143.5,-11.786388477817127,0.0
6.544,8137.5,-5.317517194388984,0.0
6.552,8136.0,-2.2178951923717705,0.0
6.56,8136.0,-0.3549759968404942,0.0
6.568,8149.5,3.558631023310909,0.0
6.576,8135.5,5.231450883568414,0.0
6.584,8142.5,3.997498317778536,0.0
6.592,8148.0,5.215433179084357,0.0
6.6,8129.0,2.3869354899507016,0.0
6.608,8136.5,-1.9971804541955862,0.0
6.616,8245.0,19.411752353442125,0.0
6.624,8306.5,63.86104926929033,0.0
6.632,8035.5,37.665178643957006,0.0
6.64,8115.5,-22.55895916099189,0.0
6.648,8110.0,-39.53479908007603,0.0
6.656,8127.0,-41.230881153960354,0.0
6.664,8159.0,-25.972112655092587,0.0
6.672,8167.5,-4.7362398967009085,0.0
6.68,8190.5,14.976166081013844,0.0
6.688,8194.5,29.87960918582121,0.0
6.696,8218.5,39.883802512888906,0.0
6.704,8202.5,41.387817319703345,0.0
6.712,8178.0,27.72822418716669,0.0
6.72,8149.5,4.618093563792854,1.0
6.728,8107.0,-24.25471560662436,0.0
6.736,8112.5,-45.211876673571396,0.0
6.744,8111.0,-49.934049720546,0.0
6.752,8112.5,-45.156143742761515,0.0
6.76,8119.0,-33.84988703927888,0.0
6.768,8117.0,-21.111989333643123,0.0
6.776,8104.5,-13.340352804835447,0.0
6.784,8107.5,-8.662522657182308,0.0
6.792,8162.5,7.266726872353502,0.0
6.8,8206.5,35.811318822422436,0.0
6.808,8208.0,56.55881231735066,0.0
6.816,8185.0,55.861394505803446,0.0
6.824,8170.0,39.21626467292663,0.0
6.832,8165.0,19.340697232433286,0.0
6.84,8154.5,1.4873786505288535,0.0
6.848,8163.0,-9.70515033407196,0.0
6.856,8201.5,-5.250839436328533,0.0
6.864,8459.5,58.754716326929156,0.0
6.872,8044.5,55.62435856577849,0.0
6.88,8116.0,-24.837572319723677,0.0
6.888,8131.5,-50.88278474844719,0.0
6.896,8135.5,-54.58758360540264,0.0
6.904,8140.5,-46.66376612538102,0.0
6.912,8186.0,-24.585664164681702,0.0
6.92,8185.5,1.3923029139798473,0.0
6.928,8198.5,19.098300564995498,0.0
6.936,8218.0,33.31384738353995,0.0
6.944,8206.5,38.30453244826458,0.0
6.952,8181.5,27.99161603530706,0.0
6.96,8135.0,3.0412059438881442,0.0
6.968,8103.0,-28.213122876371017,0.0
6.976,8096.0,-50.38717112161794,0.0
6.984,8096.0,-57.291682582214435,1.0
6.992,8128.0,-46.15127757939149,0.0
7.0,8112.5,-29.19481839950049,0.0
7.008,8081.0,-24.342656067469534,0.0
7.016,8109.5,-18.3953637487989,0.0
7.024,8108.0,-6.573068346662012,0.0
7.032,8128.0,5.1947376598557184,0.0
7.04,8112.0,12.183818483725872,0.0
7.048,8135.5,16.002194849520265,0.0
7.056,8140.5,21.656828209186415,0.0
7.064,8144.5,23.556245692287575,0.0
7.072,8143.0,21.61890522872818,0.0
7.08,8150.0,18.31913859531528,0.0
7.088,8133.5,11.649406576971614,0.0
7.096,8146.5,5.223697631483674,0.0
7.104,8263.0,27.088526482732505,0.0
7.112,8272.5,61.65431372738203,0.0
7.12,8039.5,27.087707391551476,0.0
7.128,8132.0,-26.16600859267305,0.0
7.136,8154.0,-30.300648296861937,0.0
7.144,8172.0,-19.979898494883855,0.0
7.152,8179.0,-5.739515025285982,0.0
7.16,8201.5,9.57927682282616,0.0
7.168,8233.5,28.32084855653011,0.0
7.176,8240.5,43.07854040467714,0.0
7.184,8264.5,51.60832538575005,0.0
7.192,8255.0,51.79075682780331,0.0
7.2,8212.5,33.42291357242448,0.0
7.208,8166.0,-0.6898802142952718,0.0
7.216,8168.5,-29.748772507134163,0.0
7.224,8173.0,-40.99378268162968,0.0
7.232,8151.0,-45.00418626205351,0.0
7.24,8158.5,-43.51512843734031,0.0
7.248,8184.0,-29.29516779206051,0.0
7.256,8198.5,-8.271980315499377,0.0
7.264,8206.0,9.90984608782378,0.0
7.272,8180.0,15.380533361121707,0.0
7.28,8175.0,9.95069284102442,0.0
7.288,8180.5,5.333002033804178,0.0
7.296,8201.5,7.207533090834204,0.0
7.304,8215.0,14.271759015482985,0.0
7.312,8202.0,16.387913870329612,0.0
7.32,8183.5,8.71932722031056,0.0
7.328,8177.0,-2.2453358145144193,0.0
7.336,8181.0,-8.900152105472898,0.0
7.344,8185.5,-9.749874370374528,0.0
7.352,8393.5,34.639722483738524,0.0
7.36,8226.5,64.01619988133234,0.0
7.368,8131.0,18.054822289946287,0.0
7.376,8202.5,-16.767204597598038,0.0
7.384,8215.0,-17.657518521833254,0.0
7.392,8225.0,-10.910191934164004,0.0
7.4,8235.0,-1.1797037524938787,0.0
7.408,8235.0,6.796756172938558,0.0
7.416,8254.5,14.467419035560397,0.0
7.424,8286.0,27.22974695440439,0.0
7.432,8314.0,42.804914647652595,0.0
7.44,8288.0,45.934914485618265,0.0
7.448,8216.0,20.80023522075294,0.0
7.456,8188.0,-17.64801626392773,1.0
7.464,8176.5,-45.7804837925446,0.0
7.472,8177.0,-57.724426065466105,0.0
7.48,8184.5,-54.40194290031354,0.0
7.488,8184.0,-42.75894938829515,0.0
7.496,8187.0,-28.879788727858113,0.0
7.504,8190.5,-14.965203783596735,0.0
7.512,8195.5,-2.7306826456444924,0.0
7.52,8166.5,0.015576922911805013,0.0
7.528,8174.0,-2.7551190635597322,0.0
7.536,8204.5,3.787435791228063,0.0
7.544,8210.0,14.437301650257496,0.0
7.552,8190.0,15.584387469095645,0.0
7.56,8155.0,2.663449704560662,0.0
7.568,8156.5,-12.225859615144373,0.0
7.576,8173.0,-15.500373137643464,0.0
7.584,8170.0,-12.328814382545488,0.0
7.592,8149.0,-13.487185763412072,0.0
7.6,8374.0,29.549940026240847,0.0
7.608,8154.5,51.64556010099932,0.0
7.616,8077.0,-3.794547939048016,0.0
7.624,8139.5,-39.07095054344495,0.0
7.632,8163.5,-36.33771830976252,0.0
7.64,8151.5,-26.7604523741702,0.0
7.648,8152.5,-19.286581710077144,0.0
7.656,8157.5,-10.716668539084594,0.0
7.664,8179.5,1.4924596824055243,0.0
7.672,8201.5,17.47587974977273,0.0
7.68,8189.0,26.219756212070024,0.0
7.688,8126.5,12.09308398828739,0.0
7.696,8048.5,-26.79912676280719,0.0
7.704,7995.5,-72.50026012663807,0.0
7.712,7956.0,-107.43376611288659,0.0
7.72,7942.0,-122.73525102766644,0.0
7.728,7942.5,-115.93447235040185,0.0
7.736,7976.5,-87.28709017646611,0.0
7.744,7990.0,-47.40703327115739,0.0
7.752,8006.5,-10.505542823139422,0.0
7.76,8021.0,19.244027639177602,1.0
7.768,8016.5,35.96326107199798,0.0
7.776,8016.5,39.4791795816227,0.0
7.784,8043.0,40.986950219864866,0.0
7.792,8052.5,43.01936752277197,0.0
7.8,8049.0,38.92489681651978,0.0
7.808,8058.0,31.725614318329463,0.0
7.816,8046.5,22.14724085383341,0.0
7.824,8052.5,12.001168916413917,0.0
7.832,8048.0,4.487731072705174,0.0
7.84,8381.5,66.57887451195074,0.0
7.848,7978.0,78.90427343952274,0.0
7.856,7980.5,-7.693955696583998,0.0
7.864,8027.0,-47.73077075208607,0.0
7.872,8026.0,-54.87624143070502,0.0
7.88,8040.0,-48.12626436304049,0.0
7.888,8038.5,-34.284069015038995,0.0
7.896,8038.0,-21.308549621356406,0.0
7.904,8060.5,-5.909603071310357,0.0
7.912,8083.5,13.388961616782126,0.0
7.92,8072.0,25.12163581981258,0.0
7.928,8042.0,19.77309927972442,0.0
7.936,8014.5,1.8648509482229656,0.0
7.944,8010.0,-15.546417384554161,0.0
7.952,8021.0,-22.15843703718133,0.0
7.96,8020.0,-20.66628571483716,0.0
7.968,8039.0,-12.973162197067268,0.0
7.976,8040.5,-2.268410215959193,0.0
7.984,8076.0,11.965410720773889,0.0
7.992,8110.0,32.76807874708288,0.0
8.0,8134.0,51.95216261681276,0.0
8.008,8141.0,61.75436267518717,0.0
8.016,8151.5,61.76394175760811,0.0
8.024,8160.5,56.3893302856095,0.0
8.032,8169.0,48.23677028573661,0.0
8.04,8157.5,35.48919353254473,0.0
8.048,8156.5,20.01595671738255,0.0
8.056,8164.0,9.158410035895486,0.0
8.064,8169.0,3.9025120694971065,0.0
8.072,8185.5,4.594983506573726,0.0
8.08,8393.5,50.173391291906,0.0
8.088,8282.5,89.33868813262188,0.0
8.096,8130.0,45.12291328557035,1.0
8.104,8222.0,-0.22758919612442696,0.0
8.112,8301.0,7.922144564884093,0.0
8.12,8305.0,28.497761467564033,0.0
8.128,8308.5,37.877806554078234,0.0
8.136,8322.5,41.2576916163257,0.0
8.144,8329.5,41.291714347324614,0.0
8.152,8350.0,40.669796721959756,0.0
8.16,8355.0,39.34564545541684,0.0
8.168,8311.0,24.62954816540696,0.0
8.176,8206.0,-18.248480547734516,0.0
8.184,8177.0,-68.21610144971669,0.0
8.192,8132.0,-102.54276490610732,0.0
8.2,8101.0,-122.82366620966923,0.0
8.208,8097.5,-123.24461870076948,0.0
8.216,8102.0,-104.60392957629074,0.0
8.224,8102.5,-76.69916222431175,0.0
8.232,8103.0,-48.36352968225242,0.0
8.24,8080.0,-28.870169900379324,0.0
8.248,8073.0,-19.093795266013558,0.0
8.256,8055.5,-15.422588884538754,0.0
8.264,8077.5,-9.99384325854544,0.0
8.272,8107.5,5.355535418491854,0.0
8.28,8128.0,23.93836190690581,0.0
8.288,8117.5,33.341884878629344,0.0
8.296,8122.5,32.724435030200084,0.0
8.304,8125.5,29.032272189640935,0.0
8.312,8125.0,22.95785008782741,0.0
8.32,8133.5,17.51917240985881,0.0
8.328,8214.5,29.931557847794693,0.0
8.336,8447.5,96.88470349697968,0.0
8.344,8052.0,88.59293488010417,0.0
8.352,8151.5,9.784417964977138,0.0
8.36,8163.5,-15.526700358979951,0.0
8.368,8176.0,-23.136252769095563,0.0
8.376,8194.5,-17.79547495811289,0.0
8.384,8218.5,-3.2561586807069034,0.0
8.392,8250.5,17.276887247013974,0.0
8.4,8278.0,38.95661576984298,0.0
8.408,8292.5,54.45232332361502,0.0
8.416,8250.5,49.74257161409764,0.0
8.424,8212.5,23.071605281822713,0.0
8.432,8154.5,-15.812367055910272,0.0
8.44,8150.5,-49.07759381241817,1.0
8.448,8149.5,-62.33135568868511,0.0
8.456,8153.5,-60.10653689043875,0.0
8.464,8156.0,-48.34996690463072,0.0
8.472,8163.5,-32.02371687369009,0.0
8.48,8178.5,-12.916457505006292,0.0
8.488,8182.5,4.223547263902901,0.0
8.496,8184.0,14.8434327431371,0.0
8.504,8204.0,23.26604362216176,0.0
8.512,8195.0,26.967064044586778,0.0
8.52,8207.0,25.680218679663085,0.0
8.528,8213.5,24.805321434319012,0.0
8.536,8233.5,25.941100971377637,0.0
8.544,8242.0,28.502395507387064,0.0
8.552,8228.5,24.674337165785573,0.0
8.56,8217.0,13.561988408815978,0.0
8.568,8206.5,0.43938801783656345,0.0
8.576,8212.0,-8.409416750772152,0.0
8.584,8216.0,-10.426760632199148,0.0
8.592,8258.5,-0.5390061641010107,0.0
8.6,8524.5,68.41711952062838,0.0
8.608,8110.0,68.48614328200642,0.0
8.616,8201.0,-7.9476605362640385,0.0
8.624,8222.5,-28.961684224514556,0.0
8.632,8239.5,-29.132828277592125,0.0
8.64,8236.0,-22.059100824976895,0.0
8.648,8245.0,-13.407635478555903,0.0
8.656,8274.0,1.5050139831150773,0.0
8.664,8316.5,24.70366134298365,0.0
8.672,8359.5,52.14565697541093,0.0
8.68,8347.5,66.802236407578,0.0
8.688,8294.0,51.960401791539425,0.0
8.696,8232.0,11.708409836449391,0.0
8.704,8189.5,-35.22112111680576,0.0
8.712,8174.0,-69.48467847110487,0.0
8.72,8171.0,-82.9929576364027,0.0
8.728,8172.5,-78.7054709187305,0.0
8.736,8173.0,-63.82857830455646,0.0
8.744,8173.5,-45.1489418444844,0.0
8.752,8168.0,-28.278227260866515,0.0
8.76,8173.0,-14.115751847325328,0.0
8.768,8179.5,-1.2505131616333074,0.0
8.776,8199.5,11.96153218710333,0.0
8.784,8207.5,23.682027638194313,0.0
8.792,8217.5,30.70044924286094,0.0
8.8,8231.0,34.99765110323551,0.0
8.808,8244.0,37.646924042006276,0.0
8.816,8249.5,37.28554689077828,0.0
8.824,8236.0,29.784493437358833,0.0
8.832,8239.5,18.789693782709264,0.0
8.84,8247.0,11.685957099203279,0.0
8.848,8253.5,8.573301444899926,0.0
8.856,8256.0,7.271375747403454,0.0
8.864,8594.5,75.06557373186365,0.0
8.872,8184.5,89.17061470471185,0.0
8.88,8189.0,1.1490107166382586,1.0
8.888,8248.5,-38.00577160118655,0.0
8.896,8256.5,-41.609416098287966,0.0
8.904,8263.5,-34.36761453232475,0.0
8.912,8277.0,-20.68612210662309,0.0
8.92,8300.5,-1.8995192628437962,0.0
8.928,8343.0,22.982690632350796,0.0
8.936,8363.5,47.08449329905329,0.0
8.944,8364.0,58.49001202757108,0.0
8.952,8332.0,49.931964826419744,0.0
8.96,8277.0,19.526302868106995,0.0
8.968,8237.5,-20.72240137659628,0.0
8.976,8205.5,-55.99116700537252,0.0
8.984,8198.0,-76.43001760580364,0.0
8.992,8191.5,-79.7900388869964,0.0
9.0,8206.0,-68.04563164420688,0.0
9.008,8219.0,-45.16521496243581,0.0
9.016,8241.0,-17.635665712342416,0.0
9.024,8229.0,3.362047656012237,0.0
9.032,8217.0,10.367114833522692,0.0
9.04,8211.5,9.362858611779302,0.0
9.048,8221.5,8.268776967424401,0.0
9.056,8229.5,10.045509535523024,0.0
9.064,8233.0,11.922707909152223,0.0
9.072,8219.0,9.080098029038254,0.0
9.08,8208.5,1.016962999026191,0.0
9.088,8202.0,-7.378859372285433,0.0
9.096,8216.0,-9.693156522072059,0.0
9.104,8204.5,-9.081479038706675,0.0
9.112,8471.5,44.85598604051188,0.0
9.12,8283.0,85.99143173448601,0.0
9.128,8190.0,39.770868413062544,0.0
9.136,8241.0,-2.174264242342133,0.0
9.144,8268.0,-10.715438125553874,0.0
9.152,8273.5,-7.502310590135949,0.0
9.16,8282.5,-1.5022714717229064,0.0
9.168,8287.0,5.03196498642501,0.0
9.176,8307.0,13.138766564185062,0.0
9.184,8342.5,27.27981930686701,0.0
9.192,8340.5,38.350949596498594,0.0
9.2,8333.5,37.24523374602745,0.0
9.208,8270.0,16.541290042805485,0.0
9.216,8235.0,-18.334474139465556,1.0
9.224,8230.0,-44.35225386267439,0.0
9.232,8214.0,-57.305118012195635,0.0
9.24,8212.0,-59.954703063528314,0.0
9.248,8212.5,-52.738273873144635,0.0
9.256,8212.5,-40.372594320906956,0.0
9.264,8213.5,-26.73428915964655,0.0
9.272,8231.0,-10.835818927805576,0.0
9.28,8212.5,0.005047382518341692,0.0
9.288,8205.0,1.1037311716127078,0.0
9.296,8198.0,-1.3762096726377422,0.0
9.304,8223.5,1.1453722804833433,0.0
9.312,8250.0,13.086622597000542,0.0
9.32,8236.0,20.718332198302733,0.0
9.328,8227.5,17.493800418601268,0.0
9.336,8210.5,7.724879989351848,0.0
9.344,8223.5,-0.04082973144954849,0.0
9.352,8228.0,-1.0520029633034937,0.0
9.36,8236.0,1.0632472246761608,0.0
9.368,8590.5,76.21205067822098,0.0
9.376,8105.0,82.3368747173372,0.0
9.384,8170.0,-12.432653129715845,0.0
9.392,8211.0,-44.9383713226041,0.0
9.4,8224.5,-46.21461702725878,0.0
9.408,8235.0,-35.059485415499466,0.0
9.416,8242.0,-19.571662732764935,0.0
9.424,8252.0,-3.971780834465335,0.0
9.432,8295.5,16.78622655758818,0.0
9.44,8309.0,38.162634810817735,0.0
9.448,8299.0,45.73375440676227,0.0
9.456,8258.5,32.960333441737475,0.0
9.464,8217.0,3.6563101525309776,0.0
9.472,8189.5,-28.32513756307344,0.0
9.48,8169.0,-52.75092739433512,0.0
9.488,8157.0,-65.83841278486034,0.0
9.496,8164.5,-64.51580327809143,0.0
9.504,8168.0,-51.70494784150924,0.0
9.512,8177.5,-33.63363794972133,0.0
9.52,8184.5,-14.476074964255758,0.0
9.528,8172.5,-1.9730840867957795,0.0
9.536,8165.5,1.8385912807925706,0.0
9.544,8162.5,1.771049426322861,0.0
9.552,8171.5,2.6883982331778498,0.0
9.56,8183.0,7.011490798782916,0.0
9.568,8193.0,12.8976035724545,0.0
9.576,8176.0,12.993106254767781,0.0
9.584,8168.0,5.972157504148072,0.0
9.592,8169.5,-0.41342494000286933,0.0
9.6,8172.0,-3.309964472244019,0.0
9.608,8165.0,-5.440497202660936,0.0
9.616,8302.0,20.683460004681365,0.0
9.624,8321.5,64.97034755877644,0.0
9.632,8059.0,31.666167976334236,0.0
9.64,8137.5,-30.422185430619493,0.0
9.648,8151.5,-43.6309466301318,0.0
9.656,8161.0,-40.02655035071507,0.0
9.664,8179.0,-26.208146179588994,0.0
9.672,8190.0,-8.13777652116255,0.0
9.68,8202.5,8.5838626496909,0.0
9.688,8232.5,25.8543826237169,0.0
9.696,8225.5,36.84722904583896,0.0
9.704,8208.0,32.75653525313055,0.0
9.712,8151.0,10.150616892454536,0.0
9.72,8109.5,-24.881070484913835,1.0
9.728,8066.5,-59.08990833147391,0.0
9.736,8045.0,-83.53963423546315,0.0
9.744,8039.5,-90.84968947553534,0.0
9.752,8035.5,-83.33981665775605,0.0
9.76,8034.0,-67.38684488325157,0.0
9.768,8046.5,-45.48833352555221,0.0
9.776,8070.5,-18.18404164080539,0.0
9.784,8061.5,3.7850992780388424,0.0
9.792,8054.5,12.934934082438076,0.0
9.8,8049.5,13.933432725705188,0.0
9.808,8050.0,11.492116603757722,0.0
9.816,8059.0,10.246843580840277,0.0
9.824,8061.0,10.204157800161738,0.0
9.832,8057.0,8.223241084245046,0.0
9.84,8075.5,8.767351745379528,0.0
9.848,8119.0,20.426554990180193,0.0
9.856,8162.5,41.99905344113017,0.0
9.864,8183.5,61.566844391633595,0.0
9.872,8404.0,113.14359245651417,0.0
9.88,8259.5,142.01895477582661,0.0
9.888,8125.0,80.56411660699678,0.0
9.896,8215.0,22.913968933158912,0.0
9.904,8233.5,7.5123779228379135,0.0
9.912,8275.5,9.62513709532709,0.0
9.92,8286.5,20.243278681068205,0.0
9.928,8331.5,34.89455628159499,0.0
9.936,8385.0,58.39250228481387,0.0
9.944,8420.5,81.61892959447619,0.0
9.952,8452.5,96.77091294131196,0.0
9.96,8437.5,94.53327229151114,0.0
9.968,8389.0,65.90447305690964,0.0
9.976,8334.0,17.836417054918,1.0
9.984,8306.5,-30.149981381582393,0.0
9.992,8288.5,-63.25365276028242,0.0
10.0,8276.0,-79.47228420890065,0.0
10.008,8282.0,-78.34297513257661,0.0
10.016,8283.5,-64.26512767516056,0.0
10.024,8310.5,-40.3735864978496,0.0
10.032,8301.5,-16.445641334222273,0.0
10.04,8287.0,-4.602410041198482,0.0
10.048,8267.0,-3.9489413309574957,0.0
10.056,8281.0,-4.189579841840214,0.0
10.064,8274.0,-2.266597534746552,0.0
10.072,8289.0,0.8487005658291764,0.0
10.08,8279.0,3.5839138247358733,0.0
10.088,8271.5,1.082886373068277,0.0
10.096,8246.5,-7.200172284387463,0.0
10.104,8246.0,-16.216799433263986,0.0
10.112,8236.0,-21.23571831082654,0.0
10.12,8223.5,-25.581081656454444,0.0
10.128,8373.0,3.7166844785431294,0.0
10.136,8332.5,42.74863168246884,0.0
10.144,8115.5,6.743401508127818,0.0
10.152,8209.5,-40.701412911851094,0.0
10.16,8233.5,-38.481886059428234,0.0
10.168,8227.5,-27.657538554143002,0.0
10.176,8227.0,-18.3907833427063,0.0
10.184,8238.5,-7.87487069068834,0.0
10.192,8275.5,9.446736041262056,0.0
10.2,8318.0,34.50038454985997,0.0
10.208,8337.5,56.75305655892407,0.0
10.216,8327.5,63.24967467272768,0.0
10.224,8297.0,49.22818328459789,0.0
10.232,8261.5,19.988468340254713,0.0
10.24,8249.0,-10.140778173340323,0.0
10.248,8247.0,-29.384065175273918,0.0
10.256,8254.0,-35.28803814766343,0.0
10.264,8243.0,-34.24675822288964,0.0
10.272,8243.0,-30.68604328209699,0.0
10.28,8252.0,-22.089168554190337,0.0
10.288,8252.5,-11.71515450037009,0.0
10.296,8241.0,-6.051133057095285,0.0
10.304,8238.0,-4.746378869770297,0.0
10.312,8245.0,-2.437939036796706,0.0
10.32,8236.0,-1.1117128397484066,0.0
10.328,8252.5,1.3734201175977887,0.0
10.336,8248.0,5.086506842230165,0.0
10.344,8196.5,-4.929600426756451,0.0
10.352,8190.5,-21.853021539244082,0.0
10.36,8187.0,-30.48918670918556,0.0
10.368,8184.0,-32.30203532768269,0.0
10.376,8198.5,-26.12732170070217,0.0
10.384,8253.0,-4.417639001689167,0.0
10.392,8593.0,89.68787295850098,0.0
10.4,8145.5,109.78163880828379,0.0
10.408,8213.5,27.488703735475383,0.0
10.416,8262.5,-1.4436179037170405,1.0
10.424,8270.0,-6.792279136422849,0.0
10.432,8283.0,-4.737511983926197,0.0
10.44,8297.5,2.814209326680384,0.0
10.448,8316.5,13.69769512269454,0.0
10.456,8340.5,26.842373863888042,0.0
10.464,8365.0,40.455084468696896,0.0
10.472,8357.5,45.84526477565578,0.0
10.48,8312.0,31.254381561738455,0.0
10.488,8259.0,-2.2368070649852143,0.0
10.496,8228.0,-38.86558369331942,0.0
10.504,8218.5,-62.909483952523715,0.0
10.512,8212.5,-70.75784938615448,0.0
10.52,8204.0,-67.63399656190904,0.0
10.528,8201.5,-57.77975202417406,0.0
10.536,8214.0,-41.14886739872213,0.0
10.544,8219.0,-21.49947122651338,0.0
10.552,8213.5,-6.721427530079836,0.0
10.56,8204.0,-0.027181465862440746,0.0
10.568,8198.5,0.8713932869345626,0.0
10.576,8190.5,-1.487365721470951,0.0
10.584,8195.5,-3.2697321838368225,0.0
10.592,8207.0,-0.4571271770535077,0.0
10.6,8215.5,5.361565148830323,0.0
10.608,8198.0,6.151146217310043,0.0
10.616,8185.5,-0.4435079409286118,0.0
10.624,8190.5,-5.808590681634314,0.0
10.632,8201.0,-4.93417808408276,0.0
10.64,8197.5,-2.2388665073667653,0.0
10.648,8409.0,42.18914635898068,0.0
10.656,8258.5,74.52977763998342,0.0
10.664,8104.0,20.044628250847154,0.0
10.672,8190.5,-29.109257565094822,0.0
10.68,8201.0,-33.94829760722246,0.0
10.688,8204.5,-28.80292374525675,0.0
10.696,8219.5,-17.613529662118708,0.0
10.704,8238.0,-1.4816438365528484,0.0
10.712,8252.5,15.025288741722989,0.0
10.72,8283.5,31.805137837020766,0.0
10.728,8279.0,42.32065046552498,0.0
10.736,8258.5,37.01567654945302,0.0
10.744,8205.0,13.148049244655567,0.0
10.752,8151.0,-24.922964265616883,1.0
10.76,8132.0,-58.57344350544213,0.0
10.768,8120.0,-75.92718159956439,0.0
10.776,8114.5,-78.25396118945127,0.0
10.784,8115.5,-68.68514432757752,0.0
10.792,8122.5,-50.978276612986974,0.0
10.8,8135.0,-28.79368970908922,0.0
10.808,8135.5,-8.652387646336365,0.0
10.816,8128.5,3.2429939260618994,0.0
10.824,8128.5,8.356121049365356,0.0
10.832,8136.5,11.747536012661158,0.0
10.84,8142.0,14.730209237688541,0.0
10.848,8149.5,16.916794393591545,0.0
10.856,8168.5,21.05912338696794,0.0
10.864,8164.0,23.278440200722798,0.0
10.872,8146.0,16.464885658009507,0.0
10.88,8158.5,8.815435192057294,0.0
10.888,8169.5,7.756108140579954,0.0
10.896,8171.0,8.50746662938036,0.0
10.904,8310.5,36.46840266864683,0.0
10.912,8322.5,78.42698872901133,0.0
10.92,8080.0,44.25943014887548,0.0
10.928,8178.5,-12.076778391510288,0.0
10.936,8205.0,-18.025334056790598,0.0
10.944,8221.5,-10.025511220999988,0.0
10.952,8217.0,-1.3228334558789356,0.0
10.96,8228.5,5.454578763215295,0.0
10.968,8255.0,16.399181976281398,0.0
10.976,8288.0,32.54139176418744,0.0
10.984,8297.0,45.73484354845573,0.0
10.992,8283.5,45.684133361701925,0.0
11.0,8229.0,24.835433539419455,0.0
11.008,8179.0,-12.60923417259687,0.0
11.016,8149.5,-49.08415572474837,0.0
11.024,8147.0,-69.75125320439861,0.0
11.032,8147.0,-71.90937935008128,0.0
11.04,8150.0,-61.670478432037044,0.0
11.048,8157.0,-44.22222860990337,0.0
11.056,8165.0,-24.134238232688404,0.0
11.064,8171.0,-5.734986916592334,0.0
11.072,8168.0,6.628694160944633,0.0
11.08,8167.0,12.118363193823143,0.0
11.088,8173.0,14.54916163215421,0.0
11.096,8175.0,15.415313781514214,0.0
11.104,8192.0,17.472126872911076,0.0
11.112,8180.5,17.1631966122593,0.0
11.12,8155.5,6.921372486724977,0.0
11.128,8151.0,-6.2118614985101885,0.0
11.136,8158.0,-12.526290840464071,0.0
11.144,8158.0,-12.931394628085627,0.0
11.152,8221.0,1.6605316516570383,0.0
11.16,8451.0,69.89855811878692,0.0
11.168,8039.5,62.576368407227164,0.0
11.176,8122.5,-18.354099368403013,1.0
11.184,8160.0,-38.815297154370455,0.0
11.192,8169.5,-35.42901984666514,0.0
11.2,8190.0,-21.92589870630377,0.0
11.208,8202.0,-3.9761732897829916,0.0
11.216,8223.5,14.086177147060425,0.0
11.224,8264.0,35.29924180313492,0.0
11.232,8282.0,54.444429779468464,0.0
11.24,8276.0,59.964054089643014,0.0
11.248,8232.0,43.922051207993036,0.0
11.256,8176.0,7.345653324783598,0.0
11.264,8151.5,-31.845472187899077,0.0
11.272,8142.0,-57.14111776097593,0.0
11.28,8134.0,-67.01291735959057,0.0
11.288,8146.5,-61.77178040140393,0.0
11.296,8151.5,-45.731585189290854,0.0
11.304,8164.0,-25.73672765328888,0.0
11.312,8162.5,-7.762501107746402,0.0
11.32,8158.5,2.9206590977148608,0.0
11.328,8161.5,8.591555213529773,0.0
11.336,8162.0,11.3577855318797,0.0
11.344,8158.0,10.556702348756517,0.0
11.352,8162.5,8.584572805262269,0.0
11.36,8168.0,8.159744322454344,0.0
11.368,8154.5,5.036981311095133,0.0
11.376,8145.5,-2.1702499530192654,0.0
11.384,8152.5,-6.512160780009708,0.0
11.392,8148.5,-7.479736771758326,0.0
11.4,8139.5,-9.573853952574154,0.0
11.408,8476.5,57.64986823346703,0.0
11.416,8096.0,79.77838035937202,0.0
11.424,8093.0,2.420435706051194,0.0
11.432,8145.5,-33.58300104929344,0.0
11.44,8160.0,-36.09563960791911,0.0
11.448,8176.5,-25.77575933741582,0.0
11.456,8181.0,-11.474372489491088,0.0
11.464,8203.0,4.137066265894873,0.0
11.472,8226.0,21.935954424660622,0.0
11.48,8259.5,40.67943450026246,1.0
11.488,8270.0,54.586051556871325,0.0
11.496,8240.5,50.652796575040156,0.0
11.504,8185.5,23.383694570141188,0.0
11.512,8140.5,-16.718533935342293,0.0
11.52,8122.0,-50.873301022653095,0.0
11.528,8117.5,-68.05830001281333,0.0
11.536,8104.5,-71.47830290347497,0.0
11.544,8111.5,-63.88973750828745,0.0
11.552,8111.0,-48.387478759155556,0.0
11.56,8106.0,-33.00701010546777,0.0
11.568,8100.0,-21.154083037922646,0.0
11.576,8100.0,-12.162877776545429,0.0
11.584,8096.5,-5.716510857812864,0.0
11.592,8104.5,-0.1180958594875392,0.0
11.6,8099.5,3.8236047401121596,0.0
11.608,8122.5,9.252431203418382,0.0
11.616,8131.0,17.495728408059676,0.0
11.624,8134.0,22.067701327432587,0.0
11.632,8118.5,18.87207427410749,0.0
11.64,8125.0,12.282249068427745,0.0
11.648,8146.5,12.243326454229873,0.0
11.656,8149.0,15.26729466334632,0.0
11.664,8193.0,24.240950728817097,0.0
11.672,8525.0,102.68985181099197,0.0
11.68,8048.5,103.99393983737377,0.0
11.688,8131.5,8.606092215207127,0.0
11.696,8152.5,-27.86362304645195,0.0
11.704,8151.0,-41.223432313015564,0.0
11.712,8161.0,-41.137885563441614,0.0
11.72,8179.0,-29.129881255073997,0.0
11.728,8194.0,-10.870006269594342,0.0
11.736,8230.0,11.996216987176467,0.0
11.744,8262.0,37.592951684114496,0.0
11.752,8261.0,53.36460873574015,0.0
11.76,8218.5,45.7141502858492,0.0
11.768,8166.0,14.850298693584591,0.0
11.776,8131.0,-23.530334949222606,0.0
11.784,8129.0,-50.22023239240548,0.0
11.792,8118.0,-61.04652445143688,0.0
11.8,8119.0,-60.23681030214516,0.0
11.808,8115.5,-51.136087304596,0.0
11.816,8129.5,-35.85594165340217,0.0
11.824,8151.5,-14.028275052076879,0.0
11.832,8179.0,11.12031387395291,0.0
11.84,8171.5,28.393193549231455,0.0
11.848,8154.5,29.29823263742992,0.0
11.856,8150.5,21.101196063136513,0.0
11.864,8155.5,13.258592580491722,0.0
11.872,8180.0,12.63720499440592,0.0
11.88,8180.0,15.359138155725077,0.0
11.888,8177.5,14.129506243634296,0.0
11.896,8161.0,7.378388372525478,0.0
11.904,8156.0,-2.1253300968821804,0.0
11.912,8161.0,-7.4235884028933015,0.0
11.92,8163.5,-7.899209822108787,0.0
11.928,8158.0,-7.595780571090927,0.0
11.936,8270.5,15.595465179015719,0.0
11.944,8358.0,67.80643794080765,0.0
11.952,8058.0,44.98973965007531,0.0
11.96,8144.5,-18.94321965762947,0.0
11.968,8160.0,-33.04236661781056,0.0
11.976,8173.5,-30.446242187586222,0.0
11.984,8182.5,-19.69812024576504,0.0
11.992,8199.0,-5.145560093607628,0.0
12.0,8216.0,11.085005248743755,0.0
12.008,8250.0,29.42245923654764,0.0
12.016,8274.5,47.75800540793216,0.0
12.024,8266.0,54.62975304438373,0.0
12.032,8216.5,38.5617300761146,0.0
12.04,8165.0,2.578331086267781,1.0
12.048,8140.5,-34.61995982683402,0.0
12.056,8137.5,-56.98844587050621,0.0
12.064,8137.0,-62.29206346959768,0.0
12.072,8149.5,-53.532792197937624,0.0
12.08,8158.0,-35.94605312809449,0.0
12.088,8159.5,-18.052430450245993,0.0
12.096,8150.5,-6.265466142641117,0.0
12.104,8149.0,-0.48991491679385035,0.0
12.112,8151.0,3.1021638528284257,0.0
12.12,8152.0,5.369091131788082,0.0
12.128,8149.0,5.487128949211183,0.0
12.136,8144.5,3.19276662171319,0.0
12.144,8154.5,2.475477951786388,0.0
12.152,8159.0,4.638324890542663,0.0
12.16,8165.5,7.461513270011665,0.0
12.168,8150.5,6.263331733271571,0.0
12.176,8150.5,1.5406217634379118,0.0
12.184,8155.0,-0.5666038615313482,0.0
12.192,8157.5,-0.29680401876225915,0.0
12.2,8149.0,-1.3180507897800453,0.0
12.208,8491.0,66.41214251491238,0.0
12.216,8087.5,83.83430178168874,0.0
12.224,8095.0,0.5243419410437582,0.0
12.232,8161.5,-33.70626639296802,0.0
12.24,8175.0,-32.49585794893983,0.0
12.248,8183.0,-22.46080103916006,0.0
12.256,8205.0,-6.991737644537579,0.0
12.264,8220.0,10.775801397536952,0.0
12.272,8247.0,28.230390632320905,0.0
12.28,8266.0,43.670783411456114,0.0
12.288,8277.0,52.31022474296242,0.0
12.296,8250.5,46.32206581347191,0.0
12.304,8185.5,17.06418113265363,0.0
12.312,8145.5,-24.277601460838923,0.0
12.32,8125.0,-57.4064924592617,0.0
12.328,8131.5,-71.15557366687972,0.0
12.336,8133.5,-66.7621757690556,0.0
12.344,8132.0,-53.939843211034486,0.0
12.352,8154.0,-33.99065306875195,0.0
12.36,8161.0,-11.11462678920202,0.0
12.368,8158.5,5.018679760873965,0.0
12.376,8163.5,14.309751628367849,0.0
12.384,8163.0,18.554302671277128,0.0
12.392,8165.0,18.557923106778844,0.0
12.4,8164.5,16.05291527190434,0.0
12.408,8162.0,11.524743859860791,0.0
12.416,8172.0,8.631759733030549,0.0
12.424,8166.0,6.429380326738283,0.0
12.432,8144.5,-1.4661458381001466,0.0
12.44,8143.5,-10.510030527505705,0.0
12.448,8143.0,-14.571575576697342,0.0
12.456,8139.5,-15.58154706751452,0.0
12.464,8127.5,-16.983158867009706,0.0
12.472,8458.5,49.93474052172837,0.0
12.48,8093.5,74.99295180673312,0.0
12.488,8093.5,3.872719109006539,1.0
12.496,8150.0,-27.231822615067358,0.0
12.504,8160.5,-27.81017634510522,0.0
12.512,8168.5,-20.15629754746692,0.0
12.52,8186.0,-7.364202602587511,0.0
12.528,8197.5,7.242245201178321,0.0
12.536,8219.5,21.626542110050423,0.0
12.544,8250.5,37.68249622374583,0.0
12.552,8257.5,49.228281128335084,0.0
12.56,8225.0,43.38317978317582,0.0
12.568,8162.5,13.940416048086718,0.0
12.576,8113.5,-28.365059413168183,0.0
12.584,8092.5,-63.38502774392509,0.0
12.592,8092.5,-78.77617822172783,0.0
12.6,8088.0,-76.85443449897161,0.0
12.608,8104.0,-61.71641953086487,0.0
12.616,8109.0,-39.11656745605637,0.0
12.624,8114.0,-17.77751061649633,0.0
12.632,8112.5,-1.7472942503018203,0.0
12.64,8126.5,10.551620017480218,0.0
12.648,8120.0,17.757683681301387,0.0
12.656,8123.0,18.612010518707848,0.0
12.664,8122.5,16.806209581677194,0.0
12.672,8125.0,13.598843788957083,0.0
12.68,8140.0,13.215532140085543,0.0
12.688,8138.5,13.743272729324644,0.0
12.696,8127.5,9.417974975914603,0.0
12.704,8120.5,1.7547100066797157,0.0
12.712,8125.5,-3.451968659746626,0.0
12.72,8131.5,-3.7605215780024537,0.0
12.728,8110.5,-6.4373721712465795,0.0
12.736,8323.0,32.079132258969594,0.0
12.744,8216.5,71.65004176090133,0.0
12.752,8044.5,27.291440785889336,0.0
12.76,8133.5,-20.03683567493772,0.0
12.768,8142.0,-25.069549186625636,0.0
12.776,8151.0,-20.669783670836523,0.0
12.784,8169.0,-9.417864162437581,0.0
12.792,8190.0,6.632094003139855,0.0
12.8,8208.0,23.08624121739149,0.0
12.808,8243.0,40.14499377514176,0.0
12.816,8261.0,54.97500069602256,0.0
12.824,8242.5,55.30843292673012,0.0
12.832,8189.0,32.41055358542803,0.0
12.84,8146.0,-5.760066533147437,1.0
12.848,8115.5,-42.47692485402922,0.0
12.856,8110.5,-65.00389041316544,0.0
12.864,8109.5,-69.69674859444194,0.0
12.872,8110.5,-61.905247435668116,0.0
12.88,8120.5,-45.66449122004224,0.0
12.888,8133.5,-24.43753994123631,0.0
12.896,8133.5,-5.523025730902191,0.0
12.904,8143.5,8.543350925297773,0.0
12.912,8133.0,15.464759636310419,0.0
12.92,8137.0,15.885473880692643,0.0
12.928,8134.5,14.032309483623294,0.0
12.936,8139.5,11.319639427386846,0.0
12.944,8147.5,10.655090595903403,0.0
12.952,8162.5,13.345558970044067,0.0
12.96,8147.5,12.913353267214006,0.0
12.968,8137.0,5.490259729725722,0.0
12.976,8136.0,-2.081593209234825,0.0
12.984,8140.0,-5.63107798092733,0.0
12.992,8143.0,-5.446393764942513,0.0
13.0,8192.0,6.112208620655338,0.0
13.008,8489.5,82.81149966384714,0.0
13.016,8034.5,83.43875330075753,0.0
13.024,8126.0,-3.103939432986863,0.0
13.032,8157.0,-28.78770040930931,0.0
13.04,8172.0,-30.214641213767436,0.0
13.048,8181.5,-21.472265212035836,0.0
13.056,8186.0,-10.186378063669736,0.0
13.064,8214.5,4.7743793409429145,0.0
13.072,8245.0,24.952042977094607,0.0
13.08,8267.0,43.82784902630556,0.0
13.088,8261.0,51.61496356077623,0.0
13.096,8220.0,38.79267380492183,0.0
13.104,8166.5,6.021737648705994,0.0
13.112,8134.5,-31.739626950525007,0.0
13.12,8121.5,-58.45307073112144,0.0
13.128,8120.5,-68.24939341135564,0.0
13.136,8131.5,-61.652500630260874,0.0
13.144,8136.5,-45.135049117250674,0.0
13.152,8144.0,-25.969889022922416,0.0
13.16,8144.5,-9.063896633696913,0.0
13.168,8152.5,4.045030115733425,0.0
13.176,8154.0,13.125211303870856,0.0
13.184,8155.0,17.016030592964626,0.0
13.192,8163.0,18.57593103869749,0.0
13.2,8169.0,19.54233472490796,0.0
13.208,8169.0,18.376820605825742,0.0
13.216,8179.5,17.046553218291365,0.0
13.224,8191.5,18.27214514873367,0.0
13.232,8171.5,14.592278722183437,0.0
13.24,8160.5,3.8703245370079458,0.0
13.248,8163.5,-4.691814969364941,0.0
13.256,8160.0,-9.146266040974297,0.0
13.264,8163.0,-10.496089583757794,0.0
13.272,8215.0,1.533503406070622,0.0
13.28,8505.5,78.3883199740776,0.0
13.288,8055.5,79.36955575120987,0.0
13.296,8133.5,-8.083411155763997,0.0
13.304,8161.0,-37.02367410233251,0.0
13.312,8169.5,-41.170842221379644,0.0
13.32,8178.5,-33.80622054506489,0.0
13.328,8197.5,-18.60495028119726,0.0
13.336,8217.0,1.071367693229604,0.0
13.344,8253.5,23.986323877580162,1.0
13.352,8281.5,47.07898453302187,0.0
13.36,8273.0,57.5820822972546,0.0
13.368,8240.0,46.58498944639314,0.0
13.376,8176.5,13.3034630545435,0.0
13.384,8143.0,-28.213318768901445,0.0
13.392,8133.0,-57.375888811278855,0.0
13.4,8125.0,-69.60113751583503,0.0
13.408,8122.5,-68.42393411783814,0.0
13.416,8130.0,-56.33235779525057,0.0
13.424,8137.0,-37.67840718073421,0.0
13.432,8136.0,-19.70819532979999,0.0
13.44,8131.0,-7.318451575531981,0.0
13.448,8119.5,-2.252577503961902,0.0
13.456,8125.5,-0.03876512545343758,0.0
13.464,8133.5,4.136568656289683,0.0
13.472,8143.5,9.656116374594376,0.0
13.48,8149.0,14.623049354237764,0.0
13.488,8161.0,18.918722870310376,0.0
13.496,8183.5,25.639253850472187,0.0
13.504,8175.0,28.586762816928058,0.0
13.512,8161.5,21.50120595972089,0.0
13.52,8168.5,12.723027345295122,0.0
13.528,8169.0,7.134922045242774,0.0
13.536,8175.0,4.076342742386032,0.0
13.544,8162.0,0.21937654020734954,0.0
13.552,8452.0,54.49644134510845,0.0
13.56,8173.0,80.58081330169853,0.0
13.568,8117.0,15.349289303623436,0.0
13.576,8192.0,-21.67394421974268,0.0
13.584,8206.5,-21.998473942560395,0.0
13.592,8221.0,-12.930448072845593,0.0
13.6,8235.0,0.21534952153297127,0.0
13.608,8254.5,14.801180631402303,0.0
13.616,8283.5,31.09177339309258,0.0
13.624,8310.0,47.35081900707405,0.0
13.632,8322.0,57.65303044853658,0.0
13.64,8293.0,51.531747375757504,0.0
13.648,8238.0,22.937540261146523,0.0
13.656,8188.5,-18.800064671589098,1.0
13.664,8159.5,-56.670918417493795,0.0
13.672,8152.0,-77.93267883018575,0.0
13.68,8159.5,-78.69133489926003,0.0
13.688,8164.5,-64.65570734234689,0.0
13.696,8172.0,-43.99873164565224,0.0
13.704,8184.0,-21.127637144598566,0.0
13.712,8188.0,-1.1296972025768355,0.0
13.72,8188.5,11.787680650131733,0.0
13.728,8190.5,18.15059715526104,0.0
13.736,8199.5,21.409079784988535,0.0
13.744,8204.5,22.950483383600613,0.0
13.752,8208.0,22.119059760873142,0.0
13.76,8214.0,20.214704490480926,0.0
13.768,8222.5,18.986046070992188,0.0
13.776,8235.0,19.671228131954877,0.0
13.784,8228.0,18.21770783327497,0.0
13.792,8213.0,10.101460650576882,0.0
13.8,8220.5,2.2377685979920443,0.0
13.808,8228.0,0.3124343137899359,0.0
13.816,8236.5,2.395239251243993,0.0
13.824,8242.0,6.1240716551167225,0.0
13.832,8608.0,83.29857167073692,0.0
13.84,8177.0,103.03084349290066,0.0
13.848,8200.0,15.725048208195176,0.0
13.856,8252.0,-22.96899628680694,0.0
13.864,8256.0,-30.929373298331484,0.0
13.872,8262.0,-28.90486083044675,0.0
13.88,8271.5,-20.158586638289307,0.0
13.888,8287.5,-6.720103804826977,0.0
13.896,8310.0,10.111821581121148,0.0
13.904,8336.0,28.44171297751268,0.0
13.912,8344.0,41.91610915852766,0.0
13.92,8317.0,39.64815228032808,0.0
13.928,8254.0,13.908684262942415,0.0
13.936,8214.0,-24.465300296392115,0.0
13.944,8191.0,-56.32133513190979,0.0
13.952,8187.0,-72.1380846785712,0.0
13.96,8191.5,-70.45294875568698,0.0
13.968,8207.0,-54.68884704223956,0.0
13.976,8215.0,-32.27343917668304,0.0
13.984,8221.5,-11.161607648874224,0.0
13.992,8235.0,7.102142662992492,0.0
14.0,8231.5,18.869534073153318,0.0
14.008,8229.5,21.844251328237533,0.0
14.016,8229.0,19.780895808655487,0.0
14.024,8231.0,15.868064704633753,0.0
14.032,8231.5,11.65898899368267,0.0
14.04,8239.0,9.036514803721275,0.0
14.048,8248.5,9.588659597802234,0.0
14.056,8255.5,11.8324067452088,0.0
14.064,8234.0,8.40306063073399,0.0
14.072,8226.5,-0.8237760893616723,0.0
14.08,8221.0,-8.811528651596745,0.0
14.088,8226.5,-12.19954059807651,0.0
14.096,8220.5,-12.455761338293314,0.0
14.104,8577.0,60.88858949570522,0.0
14.112,8157.5,82.16193686817473,0.0
14.12,8171.5,-0.5577442460858038,1.0
14.128,8231.5,-34.27520567610486,0.0
14.136,8243.5,-34.30947168264902,0.0
14.144,8242.0,-26.98285700930046,0.0
14.152,8257.5,-15.698778015934295,0.0
14.16,8272.5,-0.41409711373694336,0.0
14.168,8304.0,18.188008313677983,0.0
14.176,8330.0,38.17904345127636,0.0
14.184,8338.5,51.2616934802993,0.0
14.192,8310.0,47.14085685582154,0.0
14.2,8246.0,18.658864296821775,0.0
14.208,8200.0,-23.487333886950637,0.0
14.216,8187.0,-56.90531759495684,0.0
14.224,8181.5,-71.82070548880733,0.0
14.232,8184.5,-70.26352667468132,0.0
14.24,8183.5,-58.2812320451269,0.0
14.248,8188.0,-41.643747171247696,0.0
14.256,8199.5,-22.22186924463631,0.0
14.264,8198.0,-5.3236967420573365,0.0
14.272,8202.5,6.089892354733365,0.0
14.28,8194.5,11.201517682224448,0.0
14.288,8190.0,9.972481872696562,0.0
14.296,8190.0,6.814332449969015,0.0
14.304,8198.0,5.547881450099794,0.0
14.312,8207.0,7.430894117655498,0.0
14.32,8212.5,10.380255398679537,0.0
14.328,8196.5,8.405574901313003,0.0
14.336,8187.0,0.7536967209666727,0.0
14.344,8185.0,-6.235340218589499,0.0
14.352,8181.5,-10.546948500363214,0.0
14.36,8183.5,-11.804235883269257,0.0
14.368,8196.5,-7.69361971338094,0.0
14.376,8572.5,75.37685612550263,0.0
14.384,8081.5,89.58198269482659,0.0
14.392,8147.5,-2.4266651532193464,0.0
14.4,8183.5,-35.63383264611912,0.0
14.408,8197.0,-39.75709632110852,0.0
14.416,8206.0,-31.571174040076585,0.0
14.424,8222.0,-16.835949856941852,0.0
14.432,8238.5,1.0707429431979563,0.0
14.44,8266.0,20.48763054475603,1.0
14.448,8283.0,37.95596592723132,0.0
14.456,8272.0,43.75794317317582,0.0
14.464,8242.0,32.178668474266715,0.0
14.472,8187.0,3.0864684806992955,0.0
14.48,8153.0,-32.76932904952173,0.0
14.488,8149.0,-56.769602844654855,0.0
14.496,8152.5,-62.45853374271974,0.0
14.504,8156.0,-54.92340138401369,0.0
14.512,8154.0,-41.83364935640543,0.0
14.52,8156.5,-27.647766150163307,0.0
14.528,8175.5,-10.674062798394516,0.0
14.536,8175.5,4.864186953927401,0.0
14.544,8179.0,14.031066969625272,0.0
14.552,8175.0,17.22291891833538,0.0
14.56,8168.0,14.252068033151318,0.0
14.568,8176.5,10.640781216139885,0.0
14.576,8178.5,9.036962770752325,0.0
14.584,8179.0,7.229109023374349,0.0
14.592,8197.5,8.945644702779873,0.0
14.6,8198.0,12.486251408796306,0.0
14.608,8182.5,9.622584918492976,0.0
14.616,8169.5,0.6475463310575833,0.0
14.624,8185.5,-4.1455498874806835,0.0
14.632,8179.5,-4.30865655139678,0.0
14.64,8173.0,-6.305634676994259,0.0
14.648,8536.5,66.404758672355,0.0
14.656,8118.0,88.10127487081968,0.0
14.664,8138.0,6.161487126708153,0.0
14.672,8184.0,-29.74786803071379,0.0
14.68,8200.0,-33.80782244243369,0.0
14.688,8197.5,-28.32514672827233,0.0
14.696,8215.0,-17.723762406075366,0.0
14.704,8238.5,-0.39065581637214564,0.0
14.712,8261.5,19.419331208229096,0.0
14.72,8295.0,39.73372162208989,0.0
14.728,8298.0,53.18049751571584,0.0
14.736,8274.5,48.88194057479768,0.0
14.744,8206.0,20.133026083165078,0.0
14.752,8161.5,-23.00743209145662,1.0
14.76,8148.0,-56.881877471317694,0.0
14.768,8144.5,-71.7643186083485,0.0
14.776,8145.0,-70.29835446534366,0.0
14.784,8154.0,-56.832467555508174,0.0
14.792,8157.5,-37.698531031296625,0.0
14.8,8167.0,-18.011299521295314,0.0
14.808,8167.0,-1.696719828511732,0.0
14.816,8176.5,10.149796289615551,0.0
14.824,8177.5,17.76213612651486,0.0
14.832,8166.0,17.425953209542058,0.0
14.84,8164.5,11.929244277456291,0.0
14.848,8168.0,7.2784870865364155,0.0
14.856,8176.5,5.876142288933806,0.0
14.864,8189.0,8.44622266796091,0.0
14.872,8190.5,11.54582845607024,0.0
14.88,8178.5,9.483287679191108,0.0
14.888,8168.0,2.228957569409431,0.0
14.896,8171.0,-3.9314337572352542,0.0
14.904,8174.0,-5.752822323821874,0.0
14.912,8171.5,-5.855642339640781,0.0
14.92,8194.5,-0.8404985337319886,0.0
14.928,8565.0,82.64525310578256,0.0
14.936,8081.5,96.40259997304656,0.0
14.944,8150.5,5.240208516222083,0.0
14.952,8178.0,-29.75252741971508,0.0
14.96,8193.0,-37.25355439047371,0.0
14.968,8213.5,-28.78889154524518,0.0
14.976,8215.0,-14.923549991686741,0.0
14.984,8232.5,-0.5793078651736323,0.0
14.992,8259.0,16.98091945993724,0.0
15.0,8291.0,36.7430993478406,0.0
15.008,8294.0,50.010261246841765,0.0
15.016,8264.5,44.860321177968444,0.0
15.024,8201.0,16.01332425338478,0.0
15.032,8161.5,-24.51753604320311,0.0
15.04,8159.0,-53.35090676782079,0.0
15.048,8155.0,-63.6422428456699,0.0
15.056,8153.5,-61.203261354629376,0.0
15.064,8157.5,-49.970962828644815,0.0
15.072,8158.0,-34.8326584929207,0.0
15.08,8162.0,-19.679494382605526,0.0
15.088,8172.0,-4.874082934313492,0.0
15.096,8183.5,9.013249214395955,0.0
15.104,8169.0,15.24677711104232,0.0
15.112,8163.5,12.535667371576892,0.0
15.12,8170.0,9.236067227565172,0.0
15.128,8171.5,7.518798927162152,0.0
15.136,8189.5,9.347136693958419,0.0
15.144,8219.5,18.81771594998645,0.0
15.152,8231.0,30.04409726486074,0.0
15.16,8212.5,30.698215126546074,0.0
15.168,8205.5,21.22117657320655,0.0
15.176,8210.0,11.888338683801521,0.0
15.184,8201.5,3.749297976791695,0.0
15.192,8189.5,-5.820722005477592,0.0
15.2,8285.0,6.46119294397954,0.0
15.208,8441.0,64.12676139381688,0.0
15.216,8081.0,46.83034140458017,0.0
15.224,8162.0,-27.49869535949506,0.0
15.232,8180.0,-47.061856760575665,0.0
15.24,8185.0,-46.79742622422259,0.0
15.248,8186.5,-38.2180448953136,0.0
15.256,8201.0,-24.08109302081607,0.0
15.264,8214.5,-6.349121965556151,0.0
15.272,8240.5,13.17002087510923,0.0
15.28,8264.0,32.829769958034376,0.0
15.288,8256.5,42.74794571250186,0.0
15.296,8208.0,30.69159919757726,0.0
15.304,8142.5,-4.3820069312619125,0.0
15.312,8109.5,-44.58374699339265,1.0
15.32,8099.0,-70.48665335938449,0.0
15.328,8095.5,-77.9791923843743,0.0
15.336,8094.0,-71.60920574237207,0.0
15.344,8101.5,-55.75940037026089,0.0
15.352,8099.0,-36.9105642310426,0.0
15.36,8104.0,-19.656564341525154,0.0
15.368,8110.0,-4.225101014634447,0.0
15.376,8116.5,8.095376445003467,0.0
15.384,8127.0,17.627445893581353,0.0
15.392,8138.0,24.984634910821796,0.0
15.4,8152.5,30.757369828291758,0.0
15.408,8158.0,33.594191917834905,0.0
15.416,8170.0,33.75387222721429,0.0
15.424,8181.0,33.429740415309425,0.0
15.432,8191.5,32.56217388460527,0.0
15.44,8176.0,26.090782439504892,0.0
15.448,8169.0,13.711173081209154,0.0
15.456,8175.0,4.106816012885474,0.0
15.464,8181.5,0.3579335979393363,0.0
15.472,8163.0,-4.3650261317600325,0.0
15.48,8420.0,42.229359350020786,0.0
15.488,8190.5,69.0010054461543,0.0
15.496,8106.5,10.324037516457793,0.0
15.504,8188.0,-26.453422590017226,0.0
15.512,8196.0,-25.907976983895423,0.0
15.52,8207.5,-17.673580162964527,0.0
15.528,8233.5,-2.462967184724448,0.0
15.536,8259.0,17.427471602614105,0.0
15.544,8288.5,37.784979246944886,0.0
15.552,8326.5,57.886032498893655,0.0
15.56,8345.0,72.54055304346275,0.0
15.568,8314.5,67.75759837069768,0.0
15.576,8257.0,36.677642636075234,0.0
15.584,8231.0,-4.322874323174801,0.0
15.592,8218.0,-35.88284583479253,0.0
15.6,8219.5,-51.456557465713104,0.0
15.608,8213.0,-53.886907493078525,0.0
15.616,8207.5,-49.60593115563938,0.0
15.624,8211.5,-39.859775358337856,0.0
15.632,8205.5,-28.461304107868727,0.0
15.64,8206.0,-18.528851890561782,0.0
15.648,8208.0,-9.334871311749566,0.0
15.656,8214.0,-0.8478830854862736,0.0
15.664,8209.0,4.504157667896834,0.0
15.672,8205.5,5.2499052723665045,0.0
15.68,8211.5,5.40574363056021,0.0
15.688,8226.5,8.968648948050259,0.0
15.696,8227.0,12.882655013940166,0.0
15.704,8226.5,13.24422918850496,0.0
15.712,8213.0,8.589870546182738,0.0
15.72,8206.0,0.34679785503885796,0.0
15.728,8210.0,-5.193622866112946,0.0
15.736,8202.0,-8.500007314578397,0.0
15.744,8193.5,-12.537659788960582,0.0
15.752,8310.5,9.141975842666398,0.0
15.76,8377.0,58.06644642844685,0.0
15.768,8095.5,34.27206178719007,0.0
15.776,8187.0,-23.813103775521085,0.0
15.784,8208.5,-31.468234174473082,0.0
15.792,8205.5,-27.444944687337966,0.0
15.8,8214.0,-19.78094582355766,0.0
15.808,8235.0,-6.222570342843028,0.0
15.816,8266.5,13.465038951779661,0.0
15.824,8302.5,36.857105432585286,0.0
15.832,8331.5,58.38271633928889,0.0
15.84,8328.5,67.57323965839782,0.0
15.848,8289.5,54.18296464615628,0.0
15.856,8250.5,22.113736796251487,0.0
15.864,8210.5,-16.344420321740017,1.0
15.872,8201.5,-46.62124438821297,0.0
15.88,8193.5,-60.93169129803937,0.0
15.888,8190.0,-62.50636188146359,0.0
15.896,8195.5,-53.55231556658032,0.0
15.904,8199.5,-38.19688636360479,0.0
15.912,8212.0,-19.953648418381363,0.0
15.92,8211.5,-3.687809059229494,0.0
15.928,8206.5,5.367242370579788,0.0
15.936,8204.5,8.478541792430178,0.0
15.944,8205.0,8.726660892809832,0.0
15.952,8201.0,6.8352804384273895,0.0
15.96,8193.5,2.3309524818769205,0.0
15.968,8199.0,-1.094901203974814,0.0
15.976,8209.5,0.3138677090389592,0.0
15.984,8194.5,0.18007156292810578,0.0
15.992,8182.5,-5.4424784878222,0.0
16.0,8169.5,-13.05002194710778,0.0
16.008,8182.0,-15.672723656529797,0.0
16.016,8191.5,-10.352997090205236,0.0
16.024,8202.5,-1.4491161106441268,0.0
16.032,8554.0,78.09537633754644,0.0
16.04,8112.5,94.91060299793662,0.0
16.048,8145.0,6.906495495367153,0.0
16.056,8182.5,-31.88503713473915,0.0
16.064,8199.0,-38.95989308446178,0.0
16.072,8200.0,-33.661907150653406,0.0
16.08,8215.0,-22.156331363442632,0.0
16.088,8239.0,-4.02505930694133,0.0
16.096,8264.5,17.42088239951886,0.0
16.104,8293.0,38.49501008247944,0.0
16.112,8305.0,53.39609993225076,0.0
16.12,8284.0,52.274393475663146,0.0
16.128,8220.5,26.422183402864675,0.0
16.136,8180.0,-14.119971618822774,0.0
16.144,8155.5,-49.235334478245704,0.0
16.152,8144.0,-69.89267400212248,0.0
16.16,8148.0,-73.04509236815761,0.0
16.168,8152.5,-62.09837219749056,0.0
16.176,8151.5,-45.49460084874386,0.0
16.184,8149.5,-29.390541836069133,0.0
16.192,8165.0,-12.652613704296527,0.0
16.2,8158.0,0.9010119875708824,0.0
16.208,8162.0,8.16709735194081,0.0
16.216,8162.0,12.043223196099689,0.0
16.224,8156.5,11.386008308125156,0.0
16.232,8159.0,8.65817678001963,0.0
16.24,8157.5,5.9365607393051505,0.0
16.248,8176.0,6.900062832682124,0.0
16.256,8160.5,7.0366478850435215,0.0
16.264,8147.0,0.12586127887971088,0.0
16.272,8147.0,-6.738309710410704,0.0
16.28,8147.0,-9.776161829653574,0.0
16.288,8143.0,-10.907764335943284,0.0
16.296,8129.0,-13.600661207188296,0.0
16.304,8333.5,25.788091825901347,0.0
16.312,8231.5,66.11359081430419,0.0
16.32,8071.0,26.30945731922634,0.0
16.328,8141.5,-19.606540068206186,0.0
16.336,8159.0,-25.81012978798799,0.0
16.344,8169.5,-19.845379115617106,0.0
16.352,8178.5,-9.325175609310236,0.0
16.36,8195.5,3.6220835243334477,0.0
16.368,8218.0,18.799803175522584,0.0
16.376,8255.0,37.081508536746924,0.0
16.384,8273.5,53.609980312094876,0.0
16.392,8267.0,57.708595363581026,0.0
16.4,8216.0,39.635907931882,0.0
16.408,8145.5,-1.8840712568642175,1.0
16.416,8131.5,-43.41669071147885,0.0
16.424,8122.5,-66.0954495655958,0.0
16.432,8124.0,-71.01903603603137,0.0
16.44,8128.0,-62.03985828970826,0.0
16.448,8135.0,-45.076303503862164,0.0
16.456,8131.0,-27.597083028669203,0.0
16.464,8137.5,-12.565105266600767,0.0
16.472,8139.0,-0.1357935351541073,0.0
16.48,8130.5,5.805363064516314,0.0
16.488,8138.5,8.336641306796764,0.0
16.496,8136.0,9.693356396444415,0.0
16.504,8144.5,10.251893164621379,0.0
16.512,8149.0,11.683813592731212,0.0
16.52,8151.0,12.087200280978777,0.0
16.528,8160.0,12.740509337162393,0.0
16.536,8157.0,12.421068583987335,0.0
16.544,8144.0,7.080158051318676,0.0
16.552,8133.0,-2.0551029469068,0.0
16.56,8140.0,-7.963306673961142,0.0
16.568,8145.5,-7.696317027680607,0.0
16.576,8135.0,-7.39307140787264,0.0
16.584,8325.0,30.579142402992602,0.0
16.592,8224.0,66.58246148410785,0.0
16.6,8053.5,22.312404170861328,0.0
16.608,8132.5,-25.945184000165682,0.0
16.616,8140.5,-32.776874235226614,0.0
16.624,8152.0,-27.863897488683506,0.0
16.632,8166.5,-15.422053958491006,0.0
16.64,8186.5,1.3225756458821252,0.0
16.648,8203.5,18.583934408912683,0.0
16.656,8230.5,34.963965982156196,0.0
16.664,8260.0,50.89313628432319,0.0
16.672,8256.0,57.80729218343458,0.0
16.68,8205.0,41.895499425214894,0.0
16.688,8159.0,6.3162592378544105,0.0
16.696,8130.5,-30.903275617613417,0.0
16.704,8123.0,-55.584375496225675,0.0
16.712,8118.0,-64.3072501650729,0.0
16.72,8119.0,-60.53340898704778,0.0
16.728,8122.5,-48.20463251973956,0.0
16.736,8130.5,-31.255563690728877,0.0
16.744,8122.0,-16.595350359962822,0.0
16.752,8139.0,-3.672716361108769,0.0
16.76,8130.0,6.160941827102761,0.0
16.768,8117.5,6.650011843888706,0.0
16.776,8133.5,6.646079641824144,0.0
16.784,8118.0,5.7382804356411725,0.0
16.792,8120.0,1.57335730797422,0.0
16.8,8129.5,1.2211485770517356,0.0
16.808,8130.0,2.8707206191641035,0.0
16.816,8125.5,2.5938363778475377,0.0
16.824,8112.5,-1.538433142406575,0.0
16.832,8097.0,-9.57157939353965,0.0
16.84,8094.0,-16.65076967863638,0.0
16.848,8090.0,-19.74304369241395,0.0
16.856,8099.0,-17.55702686450445,0.0
16.864,8291.0,27.46209807453829,0.0
16.872,8180.0,66.47112289705319,0.0
16.88,8012.5,22.56540947794042,0.0
16.888,8103.0,-22.552702953293874,0.0
16.896,8112.0,-25.48829227759029,0.0
16.904,8112.5,-21.41921117388779,0.0
16.912,8114.5,-15.254606021677773,0.0
16.92,8135.0,-4.699321820676005,0.0
16.928,8169.0,13.389923435041283,0.0
16.936,8224.5,40.34272659186945,0.0
16.944,8251.0,66.91880400146601,0.0
16.952,8240.0,75.65683458397416,0.0
16.96,8197.0,58.321777816480335,0.0
16.968,8146.0,20.02330642209813,1.0
16.976,8138.0,-17.71586465349992,0.0
16.984,8132.0,-40.209025560813416,0.0
16.992,8119.0,-51.29699661974337,0.0
17.0,8103.0,-56.001898158855056,0.0
17.008,8118.0,-50.49812121916784,0.0
17.016,8121.5,-35.80752013102983,0.0
17.024,8118.0,-21.690680161515274,0.0
17.032,8131.5,-8.01043289575182,0.0
17.04,8114.5,0.5794660768226549,0.0
17.048,8125.0,4.243708912981674,0.0
17.056,8130.0,8.93400250036052,0.0
17.064,8124.5,10.251183752063525,0.0
17.072,8131.0,9.680262940742978,0.0
17.08,8131.0,9.202934549571864,0.0
17.088,8149.0,11.20278465906722,0.0
17.096,8129.0,10.278416682199577,0.0
17.104,8136.0,5.517506978666006,0.0
17.112,8137.5,3.6019506516820456,0.0
17.12,8148.5,4.476755867325892,0.0
17.128,8156.0,8.094950448459485,0.0
17.136,8158.0,10.948312553130108,0.0
17.144,8474.0,75.94355491410784,0.0
17.152,8031.0,76.92149008646902,0.0
17.16,8062.5,-18.23215570213688,0.0
17.168,8116.5,-54.27393446631322,0.0
17.176,8143.5,-50.81204715467561,0.0
17.184,8158.5,-32.48035197801096,0.0
17.192,8176.5,-9.972685729476098,0.0
17.2,8203.0,13.941674534023377,0.0
17.208,8243.0,39.55687016507568,0.0
17.216,8284.5,65.35888338709469,0.0
17.224,8319.0,86.23583593297599,0.0
17.232,8305.0,89.69622753930366,0.0
17.24,8278.5,69.86950722446022,0.0
17.248,8237.0,33.65851946619068,0.0
17.256,8235.5,-1.6445632799714076,0.0
17.264,8252.5,-19.1067502339165,0.0
17.272,8261.5,-21.225228517050482,0.0
17.28,8264.0,-16.91063842714493,0.0
17.288,8240.5,-16.08546188151513,0.0
17.296,8238.0,-18.470529379087566,0.0
17.304,8241.0,-16.97855368273372,0.0
17.312,8239.0,-13.317751747097873,0.0
17.32,8235.0,-10.359436102795598,0.0
17.328,8230.5,-8.77583732389121,0.0
17.336,8224.5,-8.653937748270437,0.0
17.344,8224.5,-8.495612376864528,0.0
17.352,8222.0,-7.624695959926385,0.0
17.36,8223.5,-6.157944345633041,0.0
17.368,8226.5,-3.4375391017549646,0.0
17.376,8222.0,-1.61397565911534,0.0
17.384,8217.0,-2.2316833158802183,0.0
17.392,8198.0,-7.161864856645025,0.0
17.4,8204.5,-11.545503148568514,0.0
17.408,8206.0,-10.753138458796457,0.0
17.416,8201.5,-9.267135045737632,0.0
17.424,8334.0,19.167197490655326,0.0
17.432,8349.5,63.313763493200895,0.0
17.44,8053.5,22.516474763031283,0.0
17.448,8139.5,-47.92791098326779,0.0
17.456,8148.5,-62.913589249637425,0.0
17.464,8165.5,-56.925830510135256,0.0
17.472,8190.0,-36.27556782677675,0.0
17.48,8196.0,-12.332057118529065,0.0
17.488,8219.5,9.72465537816106,0.0
17.496,8260.0,34.36983900118685,0.0
17.504,8285.5,57.217941093589616,0.0
17.512,8283.5,66.85642513455036,0.0
17.52,8229.5,50.97953935721512,0.0
17.528,8167.0,10.059829350045447,1.0
17.536,8133.5,-35.27808769114472,0.0
17.544,8139.0,-62.462705667703176,0.0
17.552,8145.5,-66.61795057484505,0.0
17.56,8150.0,-56.727978865031446,0.0
17.568,8160.5,-39.21392235291228,0.0
17.576,8165.0,-19.84633235169099,0.0
17.584,8162.5,-4.974831665644388,0.0
17.592,8167.0,4.982994172317831,0.0
17.6,8173.0,12.26171387840941,0.0
17.608,8185.0,18.384730995533346,0.0
17.616,8190.5,22.793795426867064,0.0
17.624,8189.0,22.762703727335747,0.0
17.632,8200.0,21.234079414344933,0.0
17.64,8180.5,15.37415943410565,0.0
17.648,8170.0,3.4486836507817316,0.0
17.656,8158.5,-8.62150234963542,0.0
17.664,8143.0,-19.96879118760876,0.0
17.672,8146.0,-26.205814957885423,0.0
17.68,8185.0,-17.34063504543883,0.0
17.688,8513.0,65.50966521042619,0.0
17.696,8040.0,74.95153818376343,0.0
17.704,8127.5,-9.586059350468304,0.0
17.712,8159.0,-33.816297325440246,0.0
17.72,8160.0,-36.37929350384434,0.0
17.728,8169.5,-30.2343562660908,0.0
17.736,8198.0,-14.25293391050559,0.0
17.744,8217.5,7.165805504956552,0.0
17.752,8248.0,28.961433203393426,0.0
17.76,8283.0,50.842140364535,0.0
17.768,8287.5,64.14396847390958,0.0
17.776,8247.0,54.93083527140789,0.0
17.784,8186.0,20.417506816030937,0.0
17.792,8147.5,-23.4170857824422,0.0
17.8,8148.0,-53.55391629532414,0.0
17.808,8143.0,-64.17673605388086,0.0
17.816,8146.0,-61.13770510083555,0.0
17.824,8154.5,-47.72176999542762,0.0
17.832,8152.0,-31.326619531926553,0.0
17.84,8161.0,-15.553113935000056,0.0
17.848,8158.0,-2.640848130096174,0.0
17.856,8162.0,5.600129151755482,0.0
17.864,8154.0,8.80758055258866,0.0
17.872,8163.0,9.573429675733223,0.0
17.88,8162.0,10.20931324043454,0.0
17.888,8170.5,10.569777521940978,0.0
17.896,8177.0,12.244964835867677,0.0
17.904,8176.5,12.60499159519486,0.0
17.912,8166.0,8.659536251321697,0.0
17.92,8165.5,2.7660034898385675,0.0
17.928,8167.0,-0.9344800224250775,0.0
17.936,8171.5,-1.7554567236488765,0.0
17.944,8171.0,-1.1576297342994621,0.0
17.952,8539.5,74.5541378358912,0.0
17.96,8085.0,90.4567941750256,0.0
17.968,8115.5,-0.4762682876139479,0.0
17.976,8174.0,-35.998950258978994,0.0
17.984,8173.0,-39.80184264500713,0.0
17.992,8179.5,-34.892783254087135,0.0
18.0,8185.5,-24.145655522314655,0.0
18.008,8214.0,-7.080677081355816,0.0
18.016,8249.0,17.058139600468166,0.0
18.024,8293.5,44.989496214001065,1.0
18.032,8297.5,64.5957057878602,0.0
18.04,8273.0,62.209147457838526,0.0
18.048,8218.5,35.2263346376908,0.0
18.056,8168.0,-7.52357105591841,0.0
18.064,8150.0,-45.65973909383274,0.0
18.072,8144.0,-66.19407039328166,0.0
18.08,8131.5,-72.08180292894872,0.0
18.088,8133.0,-66.88265517176092,0.0
18.096,8140.0,-51.931130781344336,0.0
18.104,8134.0,-35.01115068754689,0.0
18.112,8141.5,-19.390147420546782,0.0
18.12,8150.0,-3.9433234324176283,0.0
18.128,8152.5,8.037066253084731,0.0
18.136,8153.5,14.618787738011406,0.0
18.144,8149.0,15.57977331498364,0.0
18.152,8154.0,13.888171483105452,0.0
18.16,8169.0,14.868166709032721,0.0
18.168,8155.5,13.499995937398353,0.0
18.176,8145.0,5.740883484481856,0.0
18.184,8151.0,-0.6375822364514079,0.0
18.192,8146.5,-4.006680119088969,0.0
18.2,8150.5,-5.493849465944322,0.0
18.208,8192.0,3.755260965270736,0.0
18.216,8500.0,80.05896583169283,0.0
18.224,8038.0,81.58463995928628,0.0
18.232,8117.0,-8.12948898371792,0.0
18.24,8160.5,-34.926899474941365,0.0
18.248,8158.5,-37.001029433686654,0.0
18.256,8165.5,-31.596369547616405,0.0
18.264,8178.0,-19.625813956984985,0.0
18.272,8200.5,-2.4204132162178666,0.0
18.28,8226.0,17.928235196309515,0.0
18.288,8248.5,37.05069981591737,0.0
18.296,8260.0,49.68859847386943,0.0
18.304,8227.5,45.338935568414854,0.0
18.312,8176.0,18.731365066738817,0.0
18.32,8144.5,-16.80117271887866,1.0
18.328,8121.0,-46.50434622649459,0.0
18.336,8110.5,-63.96637429575867,0.0
18.344,8121.0,-64.59533153947291,0.0
18.352,8129.0,-51.39431585638545,0.0
18.36,8132.5,-33.445812549963875,0.0
18.368,8139.5,-15.615158670021628,0.0
18.376,8134.5,-2.2940953449865447,0.0
18.384,8130.0,3.990913646064655,0.0
18.392,8130.0,6.183434277171273,0.0
18.4,8129.0,6.338304917104779,0.0
18.408,8121.5,3.7323763122521996,0.0
18.416,8131.0,2.033963776141718,0.0
18.424,8127.5,1.9469574317940896,0.0
18.432,8124.0,0.17021452556627992,0.0
18.44,8104.5,-5.605273790142064,0.0
18.448,8111.5,-10.724822694054865,0.0
18.456,8094.5,-14.169514008178112,0.0
18.464,8113.0,-13.751981962879654,0.0
18.472,8097.0,-10.90933935217754,0.0
18.48,8288.5,28.28057407997676,0.0
18.488,8195.0,67.1912362171804,0.0
18.496,8012.5,23.628925649717075,0.0
18.504,8089.0,-27.37206441071794,0.0
18.512,8108.0,-33.87330908146646,0.0
18.52,8106.0,-29.10942696928464,0.0
18.528,8128.5,-17.69057532287593,0.0
18.536,8151.5,1.0403022505042827,0.0
18.544,8167.0,19.82557200287215,0.0
18.552,8187.5,35.28418851360834,0.0
18.56,8219.5,49.80268265414702,0.0
18.568,8209.5,55.33283975333552,0.0
18.576,8165.0,39.079858994185315,0.0
18.584,8122.0,5.6665829400869825,0.0
18.592,8092.5,-29.764904054001136,0.0
18.6,8088.5,-53.05039388019986,0.0
18.608,8088.5,-59.5955315810711,0.0
18.616,8098.0,-52.4900713743225,0.0
18.624,8112.0,-35.528730165629895,0.0
18.632,8133.5,-12.858566819147427,0.0
18.64,8154.5,11.180825948195434,0.0
18.648,8151.0,27.27780243838947,0.0
18.656,8158.0,33.376943859822404,0.0
18.664,8161.0,33.96663563144398,0.0
18.672,8161.0,29.77853795995884,0.0
18.68,8168.5,24.31918223892808,0.0
18.688,8181.0,21.489469673606436,0.0
18.696,8198.0,22.584799391528122,0.0
18.704,8183.5,20.319205474895398,0.0
18.712,8173.0,10.791184972986002,0.0
18.72,8172.0,1.1707988612497502,0.0
18.728,8190.5,-1.1209241266597019,0.0
18.736,8186.0,0.553911545028086,0.0
18.744,8392.5,42.72919358047693,0.0
18.752,8278.0,79.98901158203671,0.0
18.76,8117.5,33.71440153514186,0.0
18.768,8209.5,-12.758434242532758,0.0
18.776,8225.5,-16.243574456890883,0.0
18.784,8225.5,-12.573149827014277,0.0
18.792,8236.0,-6.351070176220219,0.0
18.8,8247.0,2.6840223973847515,0.0
18.808,8270.0,14.566659800138723,0.0
18.816,8299.0,30.009197271157745,0.0
18.824,8321.5,45.11363240538185,0.0
18.832,8294.0,46.1851071509318,0.0
18.84,8250.5,25.31120963500075,0.0
18.848,8180.5,-14.059200642100677,1.0
18.856,8150.0,-55.743488451353414,0.0
18.864,8132.5,-81.75057629149319,0.0
18.872,8154.5,-83.8174191490798,0.0
18.88,8140.0,-70.79978034585247,0.0
18.888,8157.0,-51.856335774109084,0.0
18.896,8168.0,-27.070758215987553,0.0
18.904,8183.0,-2.996540603345693,0.0
18.912,8184.5,15.066186530007371,0.0
18.92,8184.5,23.770693103642543,0.0
18.928,8177.0,23.782350107563616,0.0
18.936,8167.5,16.710445036751935,0.0
18.944,8193.5,13.365594928734481,0.0
18.952,8204.0,16.818054224513844,0.0
18.96,8207.0,19.068078556497994,0.0
18.968,8206.5,18.018545519098097,0.0
18.976,8217.5,16.811187884102083,0.0
18.984,8210.5,14.365587352803004,0.0
18.992,8215.5,10.332668975318711,0.0
19.0,8274.0,19.3541554605863,0.0
19.008,8572.0,94.58837314413518,0.0
19.016,8137.0,96.75183868202157,0.0
19.024,8211.5,9.712140722386494,0.0
19.032,8232.5,-23.72473960706816,0.0
19.04,8251.5,-31.730271979109148,0.0
19.048,8255.0,-27.05727831984609,0.0
19.056,8274.0,-15.594706263788112,0.0
19.064,8287.0,0.08620787183849643,0.0
19.072,8314.5,17.620987893322535,0.0
19.08,8337.0,35.534519351730296,0.0
19.088,8341.5,46.257222015658726,0.0
19.096,8312.5,40.58009964490134,0.0
19.104,8257.0,13.806817088536263,0.0
19.112,8232.0,-20.56635087202153,0.0
19.12,8214.0,-46.561419634640515,0.0
19.128,8198.5,-61.71967725640752,0.0
19.136,8209.0,-62.34831836696162,0.0
19.144,8208.0,-51.326496861456235,0.0
19.152,8217.0,-35.39210044421816,0.0
19.16,8215.5,-19.070408313258667,0.0
19.168,8203.0,-9.38669903784421,0.0
19.176,8203.5,-4.688244858759845,0.0
19.184,8194.0,-3.037500963671164,0.0
19.192,8206.0,-1.089980685632554,0.0
19.2,8222.5,6.049607026172225,0.0
19.208,8207.0,9.559056421371679,0.0
19.216,8218.0,9.26591951512728,0.0
19.224,8233.5,13.101707907482933,0.0
19.232,8218.0,13.383813274623435,0.0
19.24,8206.5,6.005383599667084,0.0
19.248,8223.5,1.8549599495463553,0.0
19.256,8212.0,0.24282695558804335,0.0
19.264,8212.0,-3.0968607513971165,0.0
19.272,8248.5,2.8545541750831944,0.0
19.28,8563.0,77.65101637389807,0.0
19.288,8119.0,83.65575342803163,0.0
19.296,8175.0,-4.7449744540952,0.0
19.304,8208.0,-38.12285168896119,0.0
19.312,8228.5,-41.15250486075456,0.0
19.32,8244.5,-29.248051185579698,0.0
19.328,8254.0,-12.563756099828424,0.0
19.336,8262.0,2.7833866540781855,0.0
19.344,8287.0,18.179594508955233,0.0
19.352,8306.0,33.51788161145396,0.0
19.36,8320.0,44.24914003940148,0.0
19.368,8281.5,38.88152646331969,0.0
19.376,8220.5,9.484298276753862,0.0
19.384,8183.0,-29.46273676847568,1.0
19.392,8185.0,-55.28172969209413,0.0
19.4,8168.5,-65.13203875660497,0.0
19.408,8184.5,-61.18485985059033,0.0
19.416,8177.5,-47.73545038706743,0.0
19.424,8187.0,-32.0334820195651,0.0
19.432,8196.0,-14.11114458327097,0.0
19.44,8192.5,-0.24883315724741806,0.0
19.448,8192.5,7.271988125371763,0.0
19.456,8179.5,7.96135948266533,0.0
19.464,8178.0,4.199654545261865,0.0
19.472,8177.5,0.9296695986633949,0.0
19.48,8185.0,0.28496277775957424,0.0
19.488,8192.0,2.8228424584362983,0.0
19.496,8181.5,3.180711196547236,0.0
19.504,8166.0,-2.401700614355377,0.0
19.512,8164.5,-8.812117607718847,0.0
19.52,8166.5,-11.165056194314047,0.0
19.528,8172.5,-9.22941929548324,0.0
19.536,8204.0,0.9758829910397253,0.0
19.544,8513.0,76.42775723281329,0.0
19.552,8092.5,86.68297925053821,0.0
19.56,8116.0,-1.5016894166415113,0.0
19.568,8162.0,-39.22737595554008,0.0
19.576,8175.5,-43.43505252010186,0.0
19.584,8191.0,-33.41347495242803,0.0
19.592,8205.0,-16.39397898582456,0.0
19.6,8215.0,1.0600633738024499,0.0
19.608,8225.0,15.307653616651123,0.0
19.616,8263.0,31.219273592355876,0.0
19.624,8284.5,48.052068087527914,0.0
19.632,8249.5,47.96363317005944,0.0
19.64,8198.0,22.96745867771142,0.0
19.648,8152.5,-15.114555496776802,0.0
19.656,8133.5,-48.52205404736469,0.0
19.664,8127.0,-66.13234851193647,0.0
19.672,8123.0,-68.66576165536799,0.0
19.68,8128.0,-59.54917722616369,0.0
19.688,8139.0,-41.860472881006444,0.0
19.696,8139.0,-22.80555143790798,0.0
19.704,8143.0,-7.2617082305391705,0.0
19.712,8141.0,3.440457346430094,0.0
19.72,8142.0,9.043785657693206,0.0
19.728,8142.0,11.190740953848263,0.0
19.736,8134.5,9.231542176070661,0.0
19.744,8141.0,6.468963666387708,0.0
19.752,8141.5,5.28451381219611,0.0
19.76,8159.5,7.562402701127439,0.0
19.768,8150.5,9.601700341316246,0.0
19.776,8143.5,6.083193309788612,0.0
19.784,8141.5,1.2413627246880878,0.0
19.792,8146.0,-1.2995410817982247,0.0
19.8,8145.0,-1.8901487518708109,0.0
19.808,8220.0,13.165396705045396,0.0
19.816,8471.5,86.77741106384656,0.0
19.824,8047.5,81.91306301502641,0.0
19.832,8121.0,-4.990130530538863,0.0
19.84,8150.5,-34.58498833251292,0.0
19.848,8164.5,-37.95676013529305,0.0
19.856,8163.0,-31.642367258936247,0.0
19.864,8183.5,-19.228973693817125,0.0
19.872,8207.0,0.016862445712604313,0.0
19.88,8242.0,23.34785988569479,0.0
19.888,8277.0,47.90701986474414,0.0
19.896,8288.0,64.56583482526298,0.0
19.904,8243.0,57.682659842445446,0.0
19.912,8174.0,21.576295447212715,0.0
19.92,8129.0,-26.338463966381596,1.0
19.928,8127.5,-60.18193999862251,0.0
19.936,8127.5,-71.37907470653772,0.0
19.944,8128.0,-67.07698105463169,0.0
19.952,8132.5,-53.34156377068257,0.0
19.96,8128.0,-37.131249949885614,0.0
19.968,8140.5,-20.280554716127426,0.0
19.976,8144.0,-3.9714966702208585,0.0
19.984,8139.5,6.071478319361404,0.0
19.992,8136.5,9.558113211355703,0.0
20.0,8143.0,10.886033441701557,0.0
20.008,8160.0,14.821981485022434,0.0
20.016,8152.5,16.843365155917127,0.0
20.024,8140.0,11.399138672600202,0.0
20.032,8138.0,3.48882618118796,0.0
20.04,8138.0,-2.1268684632182158,0.0
20.048,8146.5,-3.3889656478745565,0.0
20.056,8141.5,-2.9065077633567853,0.0
20.064,8488.5,67.6903598286649,0.0
20.072,8059.0,82.32375540049429,0.0
20.08,8073.5,-6.288173692409373,0.0
20.088,8147.5,-39.6591381676551,0.0
20.096,8153.5,-37.03781213716434,0.0
20.104,8160.5,-27.21628403357886,0.0
20.112,8176.5,-12.582619639853647,0.0
20.12,8193.0,4.619155803286731,0.0
20.128,8222.5,23.48977681746169,0.0
20.136,8257.0,44.16375630389757,0.0
20.144,8269.5,59.29670568982647,0.0
20.152,8236.0,54.96590920859285,0.0
20.16,8167.0,23.130368193979166,0.0
20.168,8126.5,-21.57489537571132,0.0
20.176,8114.5,-55.468299027839294,0.0
20.184,8108.5,-70.78056805729898,0.0
20.192,8105.5,-70.94375656227498,0.0
20.2,8111.5,-59.671452624705125,0.0
20.208,8118.5,-41.302223395428655,0.0
20.216,8119.5,-22.542380341972375,0.0
20.224,8127.0,-6.293592142896841,0.0
20.232,8127.5,5.90450385977897,0.0
20.24,8126.5,12.12109483503582,0.0
20.248,8134.0,15.287830799085214,0.0
20.256,8150.5,19.746037412124906,0.0
20.264,8140.0,20.614686055600032,0.0
20.272,8131.0,14.01910762654461,0.0
20.28,8123.0,4.519917213643339,0.0
20.288,8133.0,-1.3745594878801057,0.0
20.296,8136.0,-1.996233132683301,0.0
20.304,8138.0,-1.0397332744303185,0.0
20.312,8536.0,81.40390472182617,0.0
20.32,8037.5,97.28691066947817,0.0
20.328,8124.0,7.758310609667433,1.0
20.336,8154.5,-22.461810889103162,0.0
20.344,8160.0,-29.57363558961606,0.0
20.352,8167.5,-26.639934050075,0.0
20.36,8181.5,-16.473551627931784,0.0
20.368,8194.5,-2.447462695773993,0.0
20.376,8219.5,13.982038731933017,0.0
20.384,8255.0,33.93877655239726,0.0
20.392,8261.0,49.07412348645289,0.0
20.4,8228.0,45.06880408942061,0.0
20.408,8169.5,17.1735767093935,0.0
20.416,8121.5,-23.685369500020443,0.0
20.424,8110.0,-56.414200388256404,0.0
20.432,8112.0,-69.1577761873541,0.0
20.44,8108.5,-66.51562197045314,0.0
20.448,8121.5,-52.927645085585254,0.0
20.456,8138.0,-30.840407915215337,0.0
20.464,8149.5,-7.381859321446882,0.0
20.472,8160.0,12.105282782438508,0.0
20.48,8158.5,23.633350160682767,0.0
20.488,8155.5,25.948581653702604,0.0
20.496,8164.0,24.50734901337796,0.0
20.504,8171.0,23.106065800327087,0.0
20.512,8177.5,21.53225803921009,0.0
20.52,8167.0,16.519762952517567,0.0
20.528,8156.5,6.760473257384547,0.0
20.536,8165.5,-0.3425733584729187,0.0
20.544,8156.0,-4.5935156644552535,0.0
20.552,8155.0,-8.556243397095841,0.0
20.56,8299.0,19.6124513220916,0.0
20.568,8341.5,71.39999555664599,0.0
20.576,8043.0,38.90097072489084,0.0
20.584,8140.0,-27.38336140761203,0.0
20.592,8165.0,-37.50746478162546,0.0
20.6,8172.0,-31.27064206960472,0.0
20.608,8191.0,-17.52937552804042,0.0
20.616,8215.0,2.0397825332354387,0.0
20.624,8240.5,23.41658604325812,0.0
20.632,8278.5,45.48166389916901,0.0
20.64,8300.5,63.8934069360148,0.0
20.648,8300.5,69.58970489346757,0.0
20.656,8251.0,52.2949746497452,0.0
20.664,8198.5,13.299680197915905,1.0
20.672,8171.5,-28.020376685509746,0.0
20.68,8164.5,-55.154998389056345,0.0
20.688,8164.5,-64.27032592422847,0.0
20.696,8178.0,-57.15891444984163,0.0
20.704,8180.0,-41.12060854687411,0.0
20.712,8188.0,-23.358203011961677,0.0
20.72,8197.0,-5.83905236411465,0.0
20.728,8202.5,8.369375658785202,0.0
20.736,8205.5,17.239877436496045,0.0
20.744,8211.0,21.608665660690804,0.0
20.752,8211.0,22.039885576305323,0.0
20.76,8228.5,22.52866594820648,0.0
20.768,8238.0,24.918240436228416,0.0
20.776,8239.0,24.698690132260026,0.0
20.784,8231.5,19.496280132146012,0.0
20.792,8235.0,12.6465139457448,0.0
20.8,8220.5,4.4309036613854005,0.0
20.808,8227.5,-2.6318281938902146,0.0
20.816,8223.0,-5.898947889822011,0.0
20.824,8360.5,20.235242668277124,0.0
20.832,8429.0,74.7090280507216,0.0
20.84,8125.0,47.48512031927157,0.0
20.848,8220.5,-18.411080428050127,0.0
20.856,8241.0,-30.891752187111024,0.0
20.864,8246.0,-28.379575608625373,0.0
20.872,8256.5,-19.424537105239324,0.0
20.88,8267.0,-6.893235685179889,0.0
20.888,8280.5,6.4660709927266,0.0
20.896,8318.0,23.805752292609213,0.0
20.904,8336.5,41.89202434987851,0.0
20.912,8342.0,51.14011024794149,0.0
20.92,8291.5,39.66243156370183,0.0
20.928,8230.5,4.081716623015836,0.0
20.936,8197.5,-36.78377343722195,0.0
20.944,8194.5,-62.72953233346789,0.0
20.952,8193.5,-69.3804771396899,0.0
20.96,8184.5,-64.83794391145057,0.0
20.968,8192.5,-52.525600463566434,0.0
20.976,8192.5,-35.6461932374948,0.0
20.984,8195.0,-19.748603926999976,0.0
20.992,8197.0,-6.433320650771293,0.0
21.0,8205.5,4.561841928536751,0.0
21.008,8206.0,12.21144128807191,0.0
21.016,8200.5,13.862498979989823,0.0
21.024,8203.0,12.124310833170966,0.0
21.032,8204.5,10.075363894650309,0.0
21.04,8216.0,9.991986678303874,0.0
21.048,8220.5,11.696587598251426,0.0
21.056,8219.5,11.646397916915248,0.0
21.064,8201.5,5.969268768275697,0.0
21.072,8205.0,-1.255549606632485,0.0
21.08,8199.5,-5.746540791104508,0.0
21.088,8210.0,-6.509758039185044,0.0
21.096,8203.5,-5.156964007771876,0.0
21.104,8538.5,63.537753548483806,0.0
21.112,8162.5,86.15428906075499,0.0
21.12,8146.5,6.381740610034058,1.0
21.128,8219.0,-30.220163660869048,0.0
21.136,8237.0,-28.795511391747596,0.0
21.144,8238.0,-19.705519312767592,0.0
21.152,8255.0,-7.664708824260515,0.0
21.16,8281.0,9.403202421000515,0.0
21.168,8307.0,28.695143379434967,0.0
21.176,8342.5,48.318343713373906,0.0
21.184,8355.5,62.50643078744906,0.0
21.192,8345.0,61.931281453042175,0.0
21.2,8290.0,38.81992182077556,0.0
21.208,8240.0,-2.1852430737615123,0.0
21.216,8209.5,-42.550537703988084,0.0
21.224,8209.5,-66.20251778321472,0.0
21.232,8206.0,-70.86822957895856,0.0
21.24,8208.5,-63.08736457203895,0.0
21.248,8205.0,-49.125285539727884,0.0
21.256,8207.5,-33.62446270545934,0.0
21.264,8205.5,-19.25728579223869,0.0
21.272,8211.0,-7.125876337508998,0.0
21.28,8206.5,1.3332870013177853,0.0
21.288,8201.5,4.193022376450699,0.0
21.296,8197.5,3.4098460595487268,0.0
21.304,8190.5,0.18239489892516758,0.0
21.312,8199.5,-1.345365967659518,0.0
21.32,8214.5,2.8583119184027055,0.0
21.328,8208.0,6.647563271752233,0.0
21.336,8191.0,3.0796018477810776,0.0
21.344,8199.0,-1.3360960650322795,0.0
21.352,8195.0,-2.9277612997159395,0.0
21.36,8193.0,-4.650991270504164,0.0
21.368,8186.0,-6.80366887855962,0.0
21.376,8533.0,62.41703790393581,0.0
21.384,8119.5,80.30488527785155,0.0
21.392,8128.0,-4.033273601316978,0.0
21.4,8175.5,-41.8583836771179,0.0
21.408,8176.5,-47.973276399179895,0.0
21.416,8174.0,-44.622750157105884,0.0
21.424,8186.5,-33.83291059102453,0.0
21.432,8199.0,-17.214828060863283,0.0
21.44,8225.0,3.088631415221016,0.0
21.448,8242.5,23.514876755022897,1.0
21.456,8253.0,37.750214781421164,0.0
21.464,8246.5,41.26279537458481,0.0
21.472,8192.0,24.62185264118989,0.0
21.48,8153.5,-7.9525136007482615,0.0
21.488,8135.5,-37.55424173793358,0.0
21.496,8134.0,-53.35085471278694,0.0
21.504,8131.5,-55.42152958123779,0.0
21.512,8134.5,-48.14141482158993,0.0
21.52,8140.0,-34.8006032253918,0.0
21.528,8158.0,-16.833617653100873,0.0
21.536,8161.0,0.6345204356189242,0.0
21.544,8155.0,10.256045242821074,0.0
21.552,8150.0,12.143952568693066,0.0
21.56,8156.5,11.7257425350424,0.0
21.568,8158.0,11.335059432219623,0.0
21.576,8172.5,12.654294475114511,0.0
21.584,8192.0,18.462175523763108,0.0
21.592,8176.0,19.8129159589364,0.0
21.6,8180.5,15.258410225441366,0.0
21.608,8181.5,11.375182484470997,0.0
21.616,8188.5,8.988442663461683,0.0
21.624,8185.5,7.031377962686975,0.0
21.632,8208.0,8.791799305106224,0.0
21.64,8566.5,86.33858309477182,0.0
21.648,8106.0,98.27099081347592,0.0
21.656,8161.0,7.584770666583154,0.0
21.664,8216.5,-24.621610097440907,0.0
21.672,8231.5,-25.532275761404208,0.0
21.68,8241.0,-17.194477363462966,0.0
21.688,8245.5,-6.796419873584,0.0
21.696,8267.5,5.7973635018306595,0.0
21.704,8282.0,19.823337578997553,0.0
21.712,8291.5,30.01604334702779,0.0
21.72,8291.5,33.43406410045918,0.0
21.728,8250.5,22.010143387110475,0.0
21.736,8204.5,-5.857113737000418,0.0
21.744,8155.5,-40.85833438994314,0.0
21.752,8153.5,-65.78273485665818,0.0
21.76,8172.0,-67.17858153240627,0.0
21.768,8153.5,-57.8190170544367,0.0
21.776,8159.0,-46.173651317655185,0.0
21.784,8165.5,-29.834520778722208,0.0
21.792,8179.0,-11.562303927708626,0.0
21.8,8173.5,2.6312433395667085,0.0
21.808,8173.5,9.502701712207,0.0
21.816,8177.0,12.840802006104013,0.0
21.824,8166.5,11.43802609644763,0.0
21.832,8176.0,8.669986147152486,0.0
21.84,8189.0,10.31526819544115,0.0
21.848,8194.5,13.503934121533803,0.0
21.856,8179.5,11.401492256404481,0.0
21.864,8170.0,3.4241406048327008,0.0
21.872,8183.0,-1.0977392578299714,0.0
21.88,8195.0,1.5019792822929503,0.0
21.888,8196.5,5.569791881312085,0.0
21.896,8552.0,80.06643762927956,0.0
21.904,8111.5,94.61904403734843,0.0
21.912,8150.0,6.751136197648066,1.0
21.92,8201.5,-27.85027738705753,0.0
21.928,8218.0,-30.1986095028808,0.0
21.936,8216.5,-23.94443123113706,0.0
21.944,8229.0,-14.368153042504673,0.0
21.952,8242.0,-1.3167052942137616,0.0
21.96,8269.0,14.773560423809158,0.0
21.968,8294.5,32.775264179236274,0.0
21.976,8306.0,46.011455690204684,0.0
21.984,8284.5,44.82042950803611,0.0
21.992,8228.5,21.48743855405837,0.0
22.0,8187.0,-15.488733509791473,0.0
22.008,8181.0,-44.71239504276264,0.0
22.016,8171.0,-58.485106634039994,0.0
22.024,8168.5,-60.31699337414079,0.0
22.032,8174.0,-51.64269755382884,0.0
22.04,8181.0,-36.12933049010098,0.0
22.048,8185.0,-19.229808762817356,0.0
22.056,8189.5,-4.583436480359296,0.0
22.064,8178.5,3.445351654403794,0.0
22.072,8175.0,4.708845790765508,0.0
22.08,8191.0,7.295917841157234,0.0
22.088,8193.0,11.397175562234452,0.0
22.096,8193.0,12.503307924267801,0.0
22.104,8175.0,7.584408878436307,0.0
22.112,8167.5,-1.6841768359538491,0.0
22.12,8167.0,-8.544668654186353,0.0
22.128,8175.5,-9.672072986145167,0.0
22.136,8172.5,-7.74876308703324,0.0
22.144,8344.0,28.988172057428073,0.0
22.152,8257.5,63.6849559578734,0.0
22.16,8069.0,18.366459046085083,0.0
22.168,8162.5,-30.627975603343884,0.0
22.176,8179.5,-32.384399779669366,0.0
22.184,8185.0,-23.916520340198986,0.0
22.192,8196.0,-11.911640017341824,0.0
22.2,8211.0,2.3057930714880968,0.0
22.208,8231.5,17.617053378012315,0.0
22.216,8256.0,33.19469134014935,0.0
22.224,8281.5,47.58961494489449,0.0
22.232,8265.5,50.82845951578497,0.0
22.24,8215.5,31.553858036743577,0.0
22.248,8163.5,-5.467730903917754,1.0
22.256,8138.5,-42.26442849749196,0.0
22.264,8133.5,-63.74717329307009,0.0
22.272,8130.5,-68.42161583391317,0.0
22.28,8132.5,-61.016849697537054,0.0
22.288,8143.0,-44.833048283413746,0.0
22.296,8153.5,-24.174438192027537,0.0
22.304,8157.5,-5.329478117209874,0.0
22.312,8153.0,6.521261579990323,0.0
22.32,8158.0,12.643219682874587,0.0
22.328,8164.5,16.69633375389799,0.0
22.336,8162.5,17.48133117108887,0.0
22.344,8166.5,15.703802852130138,0.0
22.352,8158.0,11.35233995360204,0.0
22.36,8148.0,3.2781779856898083,0.0
22.368,8155.0,-2.6067810404790634,0.0
22.376,8147.0,-5.896218156105533,0.0
22.384,8145.5,-8.888507405860537,0.0
22.392,8470.5,56.78077696403557,0.0
22.4,8092.5,76.1809037920068,0.0
22.408,8084.5,-2.755935578919434,0.0
22.416,8150.0,-37.273922486932406,0.0
22.424,8159.5,-36.714074604723464,0.0
22.432,8176.5,-25.402722582568686,0.0
22.44,8178.5,-10.980139399022164,0.0
22.448,8203.0,4.628043099264914,0.0
22.456,8225.0,22.657018866231056,0.0
22.464,8247.5,38.97564060199102,0.0
22.472,8259.5,49.76565786884885,0.0
22.48,8236.0,46.2523356721249,0.0
22.488,8180.5,21.022397571286774,0.0
22.496,8139.0,-16.9029697936719,0.0
22.504,8131.0,-46.882170597940785,0.0
22.512,8120.0,-61.385645756532085,0.0
22.52,8112.5,-64.43575384400515,0.0
22.528,8124.5,-55.5510081808136,0.0
22.536,8142.0,-35.847521391164264,0.0
22.544,8144.0,-14.776138344976744,0.0
22.552,8144.5,0.43643189382851233,0.0
22.56,8142.0,8.958350978490216,0.0
22.568,8143.0,12.33355689148516,0.0
22.576,8152.0,14.502743543525185,0.0
22.584,8153.5,15.731968504647739,0.0
22.592,8163.5,16.423237482454624,0.0
22.6,8142.0,11.992636683287856,0.0
22.608,8139.5,2.6509416158082786,0.0
22.616,8139.5,-3.7863875463979184,0.0
22.624,8148.0,-5.282795349237176,0.0
22.632,8133.5,-6.592639272388396,0.0
22.64,8441.0,53.49238464057362,0.0
22.648,8118.0,77.74982904247213,0.0
22.656,8080.5,6.657402709911366,1.0
22.664,8150.0,-29.85825547383365,0.0
22.672,8166.0,-29.45897108538111,0.0
22.68,8166.5,-21.385543620674525,0.0
22.688,8180.0,-10.508419551142197,0.0
22.696,8195.0,3.340067623892537,0.0
22.704,8216.0,18.378476107217693,0.0
22.712,8242.5,34.19006133850985,0.0
22.72,8264.5,48.26597989552397,0.0
22.728,8246.0,49.98781555132655,0.0
22.736,8193.5,28.922004926871978,0.0
22.744,8145.0,-8.555581328637345,0.0
22.752,8131.0,-42.19143845835811,0.0
22.76,8126.0,-59.56862449874211,0.0
22.768,8112.5,-64.59372233394629,0.0
22.776,8119.5,-59.100341531244794,0.0
22.784,8133.0,-42.7030889174041,0.0
22.792,8143.0,-21.730419058452526,0.0
22.8,8149.0,-2.763815466966207,0.0
22.808,8141.0,8.463428027495866,0.0
22.816,8138.5,11.674887078924712,0.0
22.824,8148.5,13.336344164411685,0.0
22.832,8159.5,16.587297265506777,0.0
22.84,8157.0,17.73163252337531,0.0
22.848,8154.0,14.5964111893054,0.0
22.856,8140.0,7.05614422333133,0.0
22.864,8140.5,-1.2310131087685932,0.0
22.872,8136.0,-6.762591472443546,0.0
22.88,8139.0,-9.315120344527259,0.0
22.888,8150.5,-6.450037564031618,0.0
22.896,8530.0,76.10389179792446,0.0
22.904,8048.5,92.54921715879163,0.0
22.912,8103.5,1.109100178015069,0.0
22.92,8149.0,-32.60435409223419,0.0
22.928,8156.0,-36.873437166916574,0.0
22.936,8165.0,-30.538904361382265,0.0
22.944,8179.0,-17.463694778111858,0.0
22.952,8197.5,-0.44355833601184713,0.0
22.96,8216.5,17.35065188696808,0.0
22.968,8253.0,36.58225060196173,1.0
22.976,8250.5,49.35571341416903,0.0
22.984,8223.0,43.297984811597644,0.0
22.992,8184.5,19.667114135007978,0.0
23.0,8136.0,-15.064082182480888,0.0
23.008,8117.5,-47.00831698755769,0.0
23.016,8119.0,-62.24618308443905,0.0
23.024,8123.5,-60.59477095050397,0.0
23.032,8133.0,-47.57103449203623,0.0
23.04,8130.0,-31.3285325311233,0.0
23.048,8137.5,-16.053614622313262,0.0
23.056,8140.5,-2.4409772329959196,0.0
23.064,8135.0,5.4688429770228595,0.0
23.072,8144.0,10.032609347493917,0.0
23.08,8143.0,12.84495785286208,0.0
23.088,8137.5,11.232773538952642,0.0
23.096,8135.5,7.044053157070266,0.0
23.104,8142.5,4.5203933473574125,0.0
23.112,8161.0,7.55223112826161,0.0
23.12,8144.0,8.506698848456836,0.0
23.128,8139.0,3.2868353960313925,0.0
23.136,8142.0,-0.7071079349714182,0.0
23.144,8154.0,0.10259883726484986,0.0
23.152,8147.0,1.5874070142317578,0.0
23.16,8249.5,21.735579202638064,0.0
23.168,8382.5,78.46864877886765,0.0
23.176,8044.0,58.139899845008586,0.0
23.184,8131.5,-13.976690729034317,0.0
23.192,8156.5,-31.523449481295984,0.0
23.2,8168.0,-29.664266565313028,0.0
23.208,8180.0,-19.266226530155564,0.0
23.216,8203.5,-2.9431761825828744,0.0
23.224,8207.5,12.774741800016272,0.0
23.232,8231.0,25.751763607426255,0.0
23.24,8260.5,40.350025275213284,0.0
23.248,8259.5,48.688446549285345,0.0
23.256,8221.0,38.168149394602324,0.0
23.264,8165.0,6.853293139814014,0.0
23.272,8138.0,-29.66226977315,1.0
23.28,8131.5,-53.604440878981904,0.0
23.288,8128.0,-61.67974368713135,0.0
23.296,8127.5,-57.92129057403167,0.0
23.304,8124.5,-47.63204916083305,0.0
23.312,8128.5,-34.12112705127902,0.0
23.32,8142.0,-17.382359955808397,0.0
23.328,8144.0,-1.6810469729352917,0.0
23.336,8147.0,8.881054324732077,0.0
23.344,8137.0,12.350885186480355,0.0
23.352,8128.0,8.648681798451435,0.0
23.36,8134.0,4.535060100206692,0.0
23.368,8146.5,5.194267618492631,0.0
23.376,8149.0,7.861121941185729,0.0
23.384,8143.0,7.531403431182298,0.0
23.392,8155.5,7.522514149015933,0.0
23.4,8141.0,5.96815345682171,0.0
23.408,8134.0,-0.24840312546371024,0.0
23.416,8134.5,-5.215158951720923,0.0
23.424,8145.0,-5.114501437807121,0.0
23.432,8129.5,-5.301058084678289,0.0
23.44,8213.0,9.28477165086474,0.0
23.448,8414.0,74.6267108488712,0.0
23.456,8024.5,63.44483036824204,0.0
23.464,8113.0,-14.281648581026502,0.0
23.472,8143.0,-33.87404591420682,0.0
23.48,8141.5,-34.50267871251208,0.0
23.488,8154.5,-27.293978289396136,0.0
23.496,8163.0,-14.500207748598314,0.0
23.504,8180.0,0.4740807245518681,0.0
23.512,8210.5,18.962263161575038,0.0
23.52,8239.0,39.074989493083194,0.0
23.528,8236.5,50.35721449180005,0.0
23.536,8201.0,41.63132432582506,0.0
23.544,8151.0,12.691326627539638,0.0
23.552,8107.0,-25.552172703408132,0.0
23.56,8094.0,-55.94045115840299,0.0
23.568,8094.5,-67.98455655515,0.0
23.576,8084.5,-66.74101723415538,0.0
23.584,8106.0,-53.537404661945175,0.0
23.592,8116.5,-31.07428110261094,0.0
23.6,8114.0,-11.443992468375654,0.0
23.608,8115.5,1.6960713801558995,0.0
23.616,8110.0,8.392735739497539,0.0
23.624,8108.5,9.650588429857635,0.0
23.632,8118.0,10.565743915226221,0.0
23.64,8112.0,10.220126755588353,0.0
23.648,8112.0,7.2404325422353395,0.0
23.656,8114.0,4.789112909739288,0.0
23.664,8131.0,6.49503613675688,0.0
23.672,8144.5,12.750367319678162,0.0
23.68,8121.0,12.473645441446934,0.0
23.688,8111.5,3.676913495708959,0.0
23.696,8117.5,-2.7979756460490535,0.0
23.704,8128.0,-2.8320446752566113,0.0
23.712,8141.0,2.3782477288211794,0.0
23.72,8192.5,18.27643880699975,0.0
23.728,8411.5,80.1710519255164,0.0
23.736,8029.5,71.31951195470378,0.0
23.744,8130.0,-2.2388360620955154,0.0
23.752,8150.0,-20.783438509665302,0.0
23.76,8156.0,-23.287849797911804,0.0
23.768,8169.0,-17.356525936457274,0.0
23.776,8183.0,-5.70117432783627,0.0
23.784,8199.5,8.287321861392456,0.0
23.792,8235.0,25.927282496515772,0.0
23.8,8260.0,44.78884394662259,1.0
23.808,8272.0,56.71215338597585,0.0
23.816,8239.0,50.875029767705655,0.0
23.824,8186.5,22.241988990503614,0.0
23.832,8152.5,-15.735713486312989,0.0
23.84,8143.0,-44.69703007752605,0.0
23.848,8147.0,-56.17176215768677,0.0
23.856,8151.5,-52.7050406211697,0.0
23.864,8147.5,-42.56197054692598,0.0
23.872,8154.0,-29.599726452200002,0.0
23.88,8164.0,-14.075245153493825,0.0
23.888,8167.0,-0.10420848917306103,0.0
23.896,8165.0,8.378339622728845,0.0
23.904,8165.5,11.818198175021735,0.0
23.912,8161.0,11.243543215590307,0.0
23.92,8173.5,10.833445950031091,0.0
23.928,8167.0,10.174241770767821,0.0
23.936,8176.0,8.752606422841154,0.0
23.944,8186.5,10.568721250794397,0.0
23.952,8199.5,14.841495047829312,0.0
23.96,8183.0,14.40320771182678,0.0
23.968,8171.5,6.239885926497436,0.0
23.976,8174.0,-1.372636896767517,0.0
23.984,8189.5,-1.9891475516014907,0.0
23.992,8184.5,0.09298596633220768,0.0
24.0,8203.5,4.17047006638245,0.0
24.008,8531.5,76.8419809851116,0.0
24.016,8091.0,85.18579868286929,0.0
24.024,8150.0,-0.7356183253555173,0.0
24.032,8185.0,-32.233596788727255,0.0
24.04,8194.5,-36.88306890149397,0.0
24.048,8205.0,-29.954833964122145,0.0
24.056,8219.0,-16.310610648693455,0.0
24.064,8227.0,-1.2739402430402151,0.0
24.072,8246.0,13.327988479270289,0.0
24.08,8272.0,29.136401776414004,0.0
24.088,8280.5,41.1164273569409,0.0
24.096,8268.5,41.252606146029166,0.0
24.104,8212.5,21.18630398925734,0.0
24.112,8177.0,-12.586493205130864,1.0
24.12,8163.5,-40.66214924453675,0.0
24.128,8154.0,-55.80010311959745,0.0
24.136,8146.5,-59.76582383009304,0.0
24.144,8155.5,-52.74348894707532,0.0
24.152,8165.5,-36.71224053191122,0.0
24.16,8166.5,-19.418068584466937,0.0
24.168,8181.0,-3.0796526312428796,0.0
24.176,8173.5,8.479877087564319,0.0
24.184,8171.0,11.987506204751753,0.0
24.192,8170.0,11.529411962093036,0.0
24.2,8163.5,7.978244659403572,0.0
24.208,8166.5,3.953441224645985,0.0
24.216,8170.5,2.4038965247364104,0.0
24.224,8177.0,3.2681979114677233,0.0
24.232,8185.0,6.246208899586009,0.0
24.24,8172.0,6.038896570778888,0.0
24.248,8170.5,2.0383624488677015,0.0
24.256,8158.5,-3.3946477706037967,0.0
24.264,8169.0,-6.399503623332976,0.0
24.272,8174.5,-3.937516946366941,0.0
24.28,8195.5,3.529443804955008,0.0
24.288,8536.5,81.36718513942492,0.0
24.296,8072.5,89.93506996993483,0.0
24.304,8130.5,-1.5792498857433657,0.0
24.312,8170.5,-35.43975407309904,0.0
24.32,8185.0,-38.95732047306774,0.0
24.328,8195.0,-30.12584363223573,0.0
24.336,8205.5,-16.147322405793375,0.0
24.344,8223.5,0.39025016626987963,0.0
24.352,8249.0,18.99846264708549,0.0
24.36,8285.5,39.78958875222884,0.0
24.368,8300.5,56.57434759588136,0.0
24.376,8275.0,55.778328780243555,0.0
24.384,8217.5,29.893943127048033,0.0
24.392,8175.0,-10.376396935645062,0.0
24.4,8152.0,-46.000729397731675,0.0
24.408,8152.5,-64.69141588725847,0.0
24.416,8161.5,-63.996217001017385,0.0
24.424,8159.5,-52.45238988079336,0.0
24.432,8158.0,-38.388041011863834,0.0
24.44,8169.5,-22.207319904706765,0.0
24.448,8171.5,-6.513115168395643,0.0
24.456,8172.0,4.266628836835935,0.0
24.464,8174.0,10.50563243809097,0.0
24.472,8167.5,11.683237292345211,0.0
24.48,8174.0,10.608354185468215,0.0
24.488,8170.0,8.8750704389372,0.0
24.496,8182.5,8.241000860095937,0.0
24.504,8194.5,11.62195034904039,0.0
24.512,8194.5,14.311023342291264,0.0
24.52,8175.0,9.747750544983774,0.0
24.528,8182.5,3.1195546041474245,0.0
24.536,8178.5,-0.5582579625288417,0.0
24.544,8181.0,-2.955122991166263,0.0
24.552,8178.0,-4.026743903607439,0.0
24.56,8295.5,19.342447543175467,0.0
24.568,8388.5,73.23572899796523,0.0
24.576,8068.5,47.62843873371344,0.0
24.584,8165.5,-20.295787824301897,0.0
24.592,8191.0,-32.362131459088005,0.0
24.6,8192.5,-29.075543821305246,0.0
24.608,8207.5,-19.35270207396161,0.0
24.616,8224.0,-4.233055464718291,0.0
24.624,8240.5,12.092386988842236,0.0
24.632,8271.0,29.516016884198507,0.0
24.64,8297.0,46.888342901550686,0.0
24.648,8295.0,54.956701422279366,0.0
24.656,8258.5,43.530648998878405,0.0
24.664,8201.0,10.969262747427365,0.0
24.672,8156.5,-30.789241187483867,1.0
24.68,8149.0,-61.440782051146016,0.0
24.688,8138.5,-73.93031984967502,0.0
24.696,8139.5,-72.0487606206541,0.0
24.704,8144.5,-58.78676211313518,0.0
24.712,8163.0,-37.22980166422303,0.0
24.72,8164.0,-14.852707346483157,0.0
24.728,8173.0,2.6759233323821263,0.0
24.736,8162.5,12.33017381932791,0.0
24.744,8165.0,14.535875157032706,0.0
24.752,8156.5,12.41070809842904,0.0
24.76,8171.0,10.49808291215777,0.0
24.768,8181.5,12.8828468543486,0.0
24.776,8186.0,15.404513037300603,0.0
24.784,8152.0,8.533441940628563,0.0
24.792,8157.5,-2.6464421932907953,0.0
24.8,8170.5,-5.077410115663724,0.0
24.808,8159.5,-5.3366835840570275,0.0
24.816,8164.0,-6.008868621040392,0.0
24.824,8549.0,74.07978872966692,0.0
24.832,8078.5,92.74499780487645,0.0
24.84,8129.0,3.91598909417462,0.0
24.848,8167.5,-31.028277020004452,0.0
24.856,8175.5,-37.49001702320311,0.0
24.864,8183.5,-32.35873712638181,0.0
24.872,8198.5,-19.719221202121844,0.0
24.88,8215.5,-2.7169392549035365,0.0
24.888,8248.5,17.96514353408338,0.0
24.896,8273.0,39.220062785428354,0.0
24.904,8282.0,52.68804015268074,0.0
24.912,8267.0,51.43904602960902,0.0
24.92,8214.5,29.1113207866249,0.0
24.928,8166.5,-9.039111800662567,0.0
24.936,8149.0,-43.61248268774557,0.0
24.944,8137.0,-63.473824395369775,0.0
24.952,8143.0,-66.8222130938002,0.0
24.96,8149.5,-56.117648107007426,0.0
24.968,8151.0,-39.64448159086169,0.0
24.976,8152.5,-23.278804246283244,0.0
24.984,8154.5,-9.355775265664306,0.0
24.992,8158.0,1.420381614517737,0.0
25.0,8150.5,6.760833112483169,0.0
25.008,8157.5,8.791994810802407,0.0
25.016,8162.0,11.009709780685853,0.0
25.024,8164.5,12.08216657229832,0.0
25.032,8176.5,13.846978639284544,0.0
25.04,8165.0,12.893470594241307,0.0
25.048,8164.0,7.821004874798064,0.0
25.056,8155.5,1.6945425259057174,0.0
25.064,8160.0,-3.0027531527534848,0.0
25.072,8161.5,-4.099668306476815,0.0
25.08,8284.0,21.20647819880037,0.0
25.088,8380.5,77.69921963904449,0.0
25.096,8056.5,52.85037744669512,0.0
25.104,8150.0,-16.949267900121868,0.0
25.112,8178.0,-30.83640386014872,0.0
25.12,8174.5,-29.36870017538672,0.0
25.128,8191.5,-21.28999990860575,0.0
25.136,8201.0,-7.870482763363498,0.0
25.144,8217.5,6.570877070664892,0.0
25.152,8246.0,23.30878803891187,0.0
25.16,8273.5,41.114519760895064,0.0
25.168,8275.5,51.438227973764015,0.0
25.176,8245.0,43.922435988124334,0.0
25.184,8183.0,13.920623017541857,0.0
25.192,8145.0,-26.363012903424533,1.0
25.2,8137.5,-55.485432349880966,0.0
25.208,8143.5,-64.60258797074516,0.0
25.216,8148.0,-58.054785248026064,0.0
25.224,8153.0,-43.43977699004063,0.0
25.232,8143.0,-29.232006390201832,0.0
25.24,8148.5,-17.316990781825325,0.0
25.248,8155.0,-5.193400099390374,0.0
25.256,8155.0,4.091807556415006,0.0
25.264,8157.5,9.473449794122871,0.0
25.272,8165.0,13.262865575940168,0.0
25.28,8165.5,15.127519447302348,0.0
25.288,8173.0,15.571168761696526,0.0
25.296,8178.0,16.02652956045563,0.0
25.304,8155.0,10.188603298672206,0.0
25.312,8158.0,1.1053343248847796,0.0
25.32,8157.0,-4.0254760533657645,0.0
25.328,8166.5,-4.712962161570431,0.0
25.336,8151.5,-5.528654153213438,0.0
25.344,8372.5,36.913125980475115,0.0
25.352,8233.0,73.06717636078292,0.0
25.36,8077.5,23.102032600873372,0.0
25.368,8159.0,-25.068072870879632,0.0
25.376,8176.0,-29.631546902517357,0.0
25.384,8181.0,-23.343267521323014,0.0
25.392,8193.5,-12.51001014905546,0.0
25.4,8207.0,1.1052470331469522,0.0
25.408,8208.0,11.952081140957716,0.0
25.416,8244.0,24.1139348723068,0.0
25.424,8268.0,39.90852742220909,0.0
25.432,8255.0,45.44612866816101,0.0
25.44,8218.0,31.615846172514694,0.0
25.448,8160.0,-0.7652738598301312,0.0
25.456,8145.0,-34.713350487307935,0.0
25.464,8132.5,-55.14550603430507,0.0
25.472,8126.0,-62.75005517880936,0.0
25.48,8122.5,-59.77673221538657,0.0
25.488,8122.5,-49.67050862485826,0.0
25.496,8128.5,-34.93726431676146,0.0
25.504,8135.0,-18.373385966994647,0.0
25.512,8134.0,-4.668258902167963,0.0
25.52,8126.5,2.4081367943701935,0.0
25.528,8134.5,6.330153992901842,0.0
25.536,8127.0,7.7920528473052855,0.0
25.544,8134.5,7.475250234783971,0.0
25.552,8149.5,10.751326069276274,0.0
25.56,8139.0,11.97811769112809,0.0
25.568,8111.0,3.022034472891164,0.0
25.576,8119.0,-6.81877095996515,0.0
25.584,8126.0,-8.540288542193366,0.0
25.592,8133.0,-5.403371113972071,0.0
25.6,8111.5,-5.691350431382261,0.0
25.608,8269.5,22.888277495142802,0.0
25.616,8249.0,64.41145264638203,0.0
25.624,8021.5,28.53604904926692,0.0
25.632,8109.5,-25.506972344067208,0.0
25.64,8135.5,-30.31047405230902,0.0
25.648,8142.5,-21.813904206439474,0.0
25.656,8145.5,-11.438793206536957,0.0
25.664,8170.0,2.0495590702346362,0.0
25.672,8193.5,19.522250589264786,0.0
25.68,8234.0,39.97102068367872,0.0
25.688,8250.5,57.64945805831121,0.0
25.696,8239.0,60.385622593089465,0.0
25.704,8207.5,44.063677198090545,0.0
25.712,8165.0,12.612071034029668,1.0
25.72,8143.0,-21.07789900261355,0.0
25.728,8135.5,-43.833307776654465,0.0
25.736,8143.5,-50.54302175473504,0.0
25.744,8153.0,-43.27295243332355,0.0
25.752,8159.0,-29.246092285456143,0.0
25.76,8180.5,-10.8983048545349,0.0
25.768,8197.0,9.368289361132838,0.0
25.776,8189.0,21.67013352982508,0.0
25.784,8200.0,26.272878337329757,0.0
25.792,8202.0,27.667566277182914,0.0
25.8,8201.0,24.50195362886643,0.0
25.808,8208.0,20.14083509502666,0.0
25.816,8231.0,20.63711318067658,0.0
25.824,8243.5,25.054460537248815,0.0
25.832,8251.0,27.954337020421463,0.0
25.84,8237.5,24.20530679550211,0.0
25.848,8232.5,14.538761034725894,0.0
25.856,8241.0,7.332786912404117,0.0
25.864,8251.0,5.739013897525865,0.0
25.872,8244.0,4.539259389768404,0.0
25.88,8433.0,40.324271271935004,0.0
25.888,8332.0,73.35230535105347,0.0
25.896,8159.0,25.785529094041067,0.0
25.904,8243.0,-24.4375478978925,0.0
25.912,8262.0,-29.391387220972774,0.0
25.92,8273.5,-21.63382326546912,0.0
25.928,8283.5,-9.373602047581926,0.0
25.936,8287.5,2.1584328201349763,0.0
25.944,8301.5,12.328630174055206,0.0
25.952,8333.5,25.87194018535638,0.0
25.96,8352.0,40.276131514875715,0.0
25.968,8350.0,46.059373185507866,0.0
25.976,8307.0,33.302891046311515,0.0
25.984,8257.5,1.8117909193995274,0.0
25.992,8236.5,-31.48989078138493,0.0
26.0,8223.5,-53.35643933176834,0.0
26.008,8230.0,-59.52676945928397,0.0
26.016,8224.0,-54.04878123955814,0.0
26.024,8226.0,-43.43187813543909,0.0
26.032,8221.5,-31.079025831159242,0.0
26.04,8219.0,-20.491727957016337,0.0
26.048,8229.0,-9.59137343440193,0.0
26.056,8240.5,2.70171140655998,0.0
26.064,8224.0,8.54070605480797,0.0
26.072,8215.5,5.59148540821252,0.0
26.08,8227.5,3.7146388781275164,0.0
26.088,8233.5,5.718906672250341,0.0
26.096,8241.0,8.795234715043762,0.0
26.104,8221.5,6.829498759206217,0.0
26.112,8221.0,0.5455166459396423,0.0
26.12,8219.5,-3.6621284271855075,0.0
26.128,8220.5,-5.697451303464504,0.0
26.136,8225.0,-4.913682496098318,0.0
26.144,8303.0,13.149627354150198,0.0
26.152,8456.5,69.13424112776966,0.0
26.16,8110.5,52.433973760379786,0.0
26.168,8199.0,-17.999608410953442,1.0
26.176,8220.5,-34.45186902423711,0.0
26.184,8231.0,-32.42077245437599,0.0
26.192,8235.0,-23.341851557312566,0.0
26.2,8256.5,-9.224021475668678,0.0
26.208,8260.5,5.733381510799973,0.0
26.216,8286.0,19.736790984228037,0.0
26.224,8298.0,32.68733469617791,0.0
26.232,8299.0,38.046389849077514,0.0
26.24,8263.0,28.296915600437387,0.0
26.248,8194.5,-3.1084899434724775,0.0
26.256,8152.5,-43.78555232594772,0.0
26.264,8152.0,-69.88627843732729,0.0
26.272,8145.5,-76.15672588820416,0.0
26.28,8153.0,-68.11449879046245,0.0
26.288,8160.0,-50.069014986716184,0.0
26.296,8168.5,-28.639229178121923,0.0
26.304,8178.0,-7.9462291569300305,0.0
26.312,8184.0,8.66298185104938,0.0
26.32,8184.5,18.500186915283848,0.0
26.328,8188.0,22.330250367057943,0.0
26.336,8178.0,19.881858690111812,0.0
26.344,8187.0,15.215258612103753,0.0
26.352,8193.0,13.213138585360184,0.0
26.36,8213.0,15.337641763596139,0.0
26.368,8215.5,18.865470458718846,0.0
26.376,8196.0,14.618480520337243,0.0
26.384,8195.5,5.804466990655328,0.0
26.392,8191.5,-1.2075054980089135,0.0
26.4,8193.0,-5.682054442358776,0.0
26.408,8192.5,-7.262527965571508,0.0
26.416,8306.5,16.09201111907555,0.0
26.424,8408.0,71.49093584088405,0.0
26.432,8098.5,50.920327421478305,0.0
26.44,8184.0,-14.728603802052476,0.0
26.448,8206.5,-29.255754289304832,0.0
26.456,8215.5,-26.976093502806634,0.0
26.464,8226.0,-17.554145611479044,0.0
