Time_Seconds,ECG_Raw,ECG_Filtered,R_Peak_Marker
0.0,8150.5,42.682081775251845,0.0
0.008,8177.5,109.65129120891129,0.0
0.016,8198.0,142.3366304035585,0.0
0.024,8207.0,146.1136471994639,0.0
0.032,8208.5,128.33997379715265,0.0
0.04,8224.0,101.84391177689258,0.0
0.048,8253.0,79.82483192376458,0.0
0.056,8284.5,67.06059753965292,0.0
0.064,8284.0,55.677997786429614,0.0
0.072,8229.0,29.166209650962628,0.0
0.08,8170.5,-14.122903348707041,0.0
0.088,8152.5,-53.21182762227022,0.0
0.096,8157.5,-70.9173225596885,0.0
0.104,8161.0,-68.89986289916305,0.0
0.112,8157.5,-57.26070810880333,0.0
0.12,8161.0,-41.69593192964658,0.0
0.128,8167.5,-24.126345277092923,0.0
0.136,8174.5,-7.319820849302687,0.0
0.144,8178.0,5.874459885254282,0.0
0.152,8171.5,12.173995829045225,0.0
0.16,8166.5,11.704350058230602,0.0
0.168,8167.5,8.834881405633041,0.0
0.176,8172.5,7.024215017527467,0.0
0.184,8181.5,7.748647534089287,0.0
0.192,8199.0,12.4162611469294,0.0
0.2,8180.0,12.987777161218219,0.0
0.208,8162.0,3.7975399722536167,0.0
0.216,8170.5,-4.154160865072754,0.0
0.224,8181.0,-4.345248148718156,0.0
0.232,8191.5,0.4908513654261242,0.0
0.24,8248.5,17.066799424814008,0.0
0.248,8485.5,84.34670188400742,0.0
0.256,8051.5,71.10070730399684,0.0
0.264,8140.5,-17.996442899346903,0.0
0.272,8181.0,-41.50292073306173,0.0
0.28,8203.5,-36.24132837852062,0.0
0.288,8205.0,-22.731798395416945,0.0
0.296,8203.0,-11.39802609648882,0.0
0.304,8215.5,-0.8220178961041711,0.0
0.312,8247.0,14.546479802916792,0.0
0.32,8277.0,33.994466662982404,0.0
0.328,8277.5,46.57318677238095,0.0
0.336,8232.5,37.859789586437955,0.0
0.344,8179.5,6.945229095889317,0.0
0.352,8156.5,-27.917432368033815,1.0
0.36,8153.0,-49.71651245753014,0.0
0.368,8154.0,-55.58159442921374,0.0
0.376,8155.5,-50.11261640608154,0.0
0.384,8158.5,-38.36125395998761,0.0
0.392,8158.5,-24.982596213451416,0.0
0.4,8163.0,-12.363469901528788,0.0
0.408,8164.5,-1.8002864898128337,0.0
0.416,8163.0,4.719707446892926,0.0
0.424,8165.0,7.962208166462233,0.0
0.432,8164.0,8.876953830990942,0.0
0.44,8167.0,8.480683577889977,0.0
0.448,8180.5,10.331521872533358,0.0
0.456,8193.5,15.273695768945117,0.0
0.464,8192.0,18.23027618185438,0.0
0.472,8163.0,10.98369277294887,0.0
0.48,8164.0,-0.6876052588524999,0.0
0.488,8173.0,-5.442734357177869,0.0
0.496,8175.5,-5.080267615455568,0.0
0.504,8159.5,-6.853737974718115,0.0
0.512,8452.5,49.72787048460259,0.0
0.52,8109.5,65.43576710497337,0.0
0.528,8107.0,-5.781378187881046,0.0
0.536,8174.5,-33.74300175231656,0.0
0.544,8191.5,-27.900202827179328,0.0
0.552,8201.0,-14.800809263476594,0.0
0.56,8204.0,-2.2561118165369862,0.0
0.568,8222.5,9.897322476183263,0.0
0.576,8248.0,24.573528839794108,0.0
0.584,8273.5,39.9467181022751,0.0
0.592,8281.0,49.72393011549707,0.0
0.6,8263.0,45.82226380572479,0.0
0.608,8211.0,22.266571026644215,0.0
0.616,8173.0,-13.42717602648554,0.0
0.624,8156.5,-43.63507574043024,0.0
0.632,8154.5,-58.66395055241196,0.0
0.64,8156.5,-58.65785499756839,0.0
0.648,8162.0,-48.22877073025552,0.0
0.656,8162.0,-33.62532204466129,0.0
0.664,8167.0,-18.869366728237765,1.0
0.672,8172.0,-5.238892117737123,0.0
0.68,8173.5,4.944381335822072,0.0
0.688,8167.0,9.195621775228801,0.0
0.696,8163.0,8.17047490595587,0.0
0.704,8165.0,5.916862653210956,0.0
0.712,8167.0,4.504217161696033,0.0
0.72,8179.5,5.948250412142215,0.0
0.728,8184.5,9.475688748589164,0.0
0.736,8187.5,11.759590299516958,0.0
0.744,8168.5,8.058580029289487,0.0
0.752,8166.0,0.2555650828455782,0.0
0.76,8167.5,-4.602172599841879,0.0
0.768,8170.5,-5.857933259811944,0.0
0.776,8155.5,-8.164066109335408,0.0
0.784,8451.0,49.01624072807272,0.0
0.792,8106.5,65.39039887732201,0.0
0.8,8107.0,-5.119390850487434,0.0
0.808,8172.5,-32.558749769699716,0.0
0.816,8188.0,-27.301683858283923,0.0
0.824,8197.5,-14.945885609993184,0.0
0.832,8204.0,-2.103901035109402,0.0
0.84,8224.0,11.223775545390481,0.0
0.848,8247.5,26.291170507944344,0.0
0.856,8276.0,41.83959413620005,0.0
0.864,8288.0,52.96571329744961,0.0
0.872,8268.0,49.88104791728165,0.0
0.88,8214.0,25.375965264803426,0.0
0.888,8174.5,-12.065723147492008,0.0
0.896,8160.5,-43.309464001616334,0.0
0.904,8163.5,-57.46804395691356,0.0
0.912,8162.0,-56.82211977787233,0.0
0.92,8166.0,-47.31446516588721,0.0
0.928,8168.0,-33.2924175627727,0.0
0.936,8168.5,-19.441526197663052,0.0
0.944,8174.0,-7.076762084048141,0.0
0.952,8180.5,3.760269582094452,0.0
0.96,8175.0,9.803471814933346,0.0
0.968,8168.5,9.439479718856774,0.0
0.976,8169.5,6.669424315650758,0.0
0.984,8173.5,5.041558789795545,0.0
0.992,8185.5,6.583295169878511,0.0
1.0,8194.0,10.685137168014307,0.0
1.008,8196.0,13.636125502178174,0.0
1.016,8174.5,9.330071484391965,0.0
1.024,8170.0,0.057107841158540396,0.0
1.032,8161.5,-8.091476508730693,0.0
1.04,8162.5,-13.216028695507475,0.0
1.048,8158.0,-14.958027350216298,0.0
1.056,8481.5,51.45153397198192,0.0
1.064,8093.5,69.74797603083607,0.0
1.072,8105.0,-6.925415082682321,0.0
1.08,8169.5,-35.693094866126785,0.0
1.088,8188.5,-30.235639950424,0.0
1.096,8195.0,-17.214359188772278,0.0
1.104,8199.0,-4.758536515846117,0.0
1.112,8214.5,7.313132855156255,0.0
1.12,8241.5,22.026325991367685,0.0
1.128,8270.0,38.72692889719815,1.0
1.136,8281.5,50.90421136206123,0.0
1.144,8261.5,48.65159984083698,0.0
1.152,8215.0,26.3572474912105,0.0
1.16,8174.5,-8.597837274698577,0.0
1.168,8156.0,-40.020431796826415,0.0
1.176,8154.5,-56.62214903947029,0.0
1.184,8157.5,-57.5493398783899,0.0
1.192,8160.0,-48.24886527072704,0.0
1.2,8163.0,-34.309827907702584,0.0
1.208,8163.0,-20.25162683231565,0.0
1.216,8171.0,-7.232837630999484,0.0
1.224,8173.5,3.7081950524843705,0.0
1.232,8172.5,9.922948841021935,0.0
1.24,8163.0,9.948749161216938,0.0
1.248,8162.5,6.412651382421245,0.0
1.256,8168.5,4.472829878179937,0.0
1.264,8179.5,6.120602847212922,0.0
1.272,8193.0,11.172507623934507,0.0
1.28,8180.0,12.568462162296555,0.0
1.288,8165.5,5.870227491360993,0.0
1.296,8168.5,-1.3305527065258502,0.0
1.304,8168.5,-4.774452275994463,0.0
1.312,8169.0,-5.985155071459076,0.0
1.32,8211.0,2.8890424784726747,0.0
1.328,8503.0,75.93569065531551,0.0
1.336,8057.0,76.16028401197855,0.0
1.344,8146.0,-8.189084134339737,0.0
1.352,8175.5,-32.62195190368766,0.0
1.36,8190.5,-33.03424998018704,0.0
1.368,8203.0,-22.651427498818293,0.0
1.376,8214.0,-8.275750255098046,0.0
1.384,8234.5,7.916178953805911,0.0
1.392,8257.0,25.076808471047116,0.0
1.4,8277.0,40.10642135166631,0.0
1.408,8282.5,48.123973779162725,0.0
1.416,8249.0,39.84895553174147,0.0
1.424,8195.0,11.037229241503383,0.0
1.432,8160.0,-25.858125780877117,1.0
1.44,8150.5,-52.84896751273027,0.0
1.448,8155.0,-61.82028366109989,0.0
1.456,8160.0,-55.81236271327157,0.0
1.464,8163.0,-42.1630686079975,0.0
1.472,8165.0,-26.676975583301783,0.0
1.48,8166.5,-12.75892843446627,0.0
1.488,8172.0,-1.1633083755245934,0.0
1.496,8175.0,7.60725049814755,0.0
1.504,8168.5,10.925742704351478,0.0
1.512,8166.0,9.39311454985318,0.0
1.52,8166.5,6.654012100252203,0.0
1.528,8176.5,6.170443307553796,0.0
1.536,8183.0,8.319913083638767,0.0
1.544,8195.0,12.109274187813071,0.0
1.552,8170.5,9.960626895575388,0.0
1.56,8167.0,1.4593487414508672,0.0
1.568,8172.5,-3.380945989672,0.0
1.576,8176.5,-3.7900391641576334,0.0
1.584,8174.0,-3.1509102837596856,0.0
1.592,8292.0,21.301529879818872,0.0
1.6,8339.0,66.24273532800657,0.0
1.608,8062.0,35.78851998091682,0.0
1.616,8162.0,-23.80926072756074,0.0
1.624,8186.0,-30.1122228141503,0.0
1.632,8197.0,-22.123886943182015,0.0
1.64,8202.5,-10.674392278447158,0.0
1.648,8215.0,1.3925986923409255,0.0
1.656,8237.0,15.366241297918123,0.0
1.664,8267.5,32.02632021790373,0.0
1.672,8286.0,47.03423564927584,0.0
1.68,8279.5,51.23055669322548,0.0
1.688,8235.0,35.525754908116596,0.0
1.696,8186.5,1.8518605921021845,0.0
1.704,8160.0,-33.66615073825551,0.0
1.712,8152.0,-56.61563669299153,0.0
1.72,8152.5,-63.136582250604306,0.0
1.728,8155.5,-56.70575471782399,0.0
1.736,8162.0,-42.364454345945205,0.0
1.744,8162.0,-26.132126264647013,0.0
1.752,8168.0,-11.344610460651666,0.0
1.76,8172.0,1.163687101753112,0.0
1.768,8173.0,9.406149080300793,0.0
1.776,8167.0,11.83314015859537,0.0
1.784,8161.5,9.124955481526513,0.0
1.792,8166.0,5.935587746766942,0.0
1.8,8178.0,6.520459364424823,0.0
1.808,8183.0,9.350886884286865,0.0
1.816,8197.0,13.488807890405269,0.0
1.824,8179.0,13.07370176349309,0.0
1.832,8174.0,6.147162223058331,0.0
1.84,8175.0,0.3016325098685684,0.0
1.848,8175.0,-2.9968343500752326,0.0
1.856,8172.5,-5.003938813420973,0.0
1.864,8286.5,17.347261013315347,0.0
1.872,8353.5,64.91412341346813,0.0
1.88,8063.5,37.644256277690374,0.0
1.888,8163.5,-23.00756839096107,0.0
1.896,8189.5,-29.646834710281155,0.0
1.904,8198.0,-22.030097350010465,0.0
1.912,8209.0,-10.201682568351316,0.0
1.92,8223.0,3.4478385333334245,0.0
1.928,8243.0,17.943637818352272,0.0
1.936,8266.0,32.580897772154,1.0
1.944,8284.5,44.776184716328316,0.0
1.952,8279.5,47.95792032057602,0.0
1.96,8245.0,34.49872416109156,0.0
1.968,8198.5,4.7601971853455325,0.0
1.976,8171.0,-28.667081719531097,0.0
1.984,8164.0,-51.138029834229656,0.0
1.992,8164.5,-58.00213793242915,0.0
2.0,8163.5,-53.369901820519544,0.0
2.008,8170.0,-41.41524342086359,0.0
2.016,8176.0,-25.512478101744364,0.0
2.024,8182.5,-9.685855789527977,0.0
2.032,8184.0,2.7768792129600115,0.0
2.04,8181.0,9.419861245409038,0.0
2.048,8179.0,10.898843594402706,0.0
2.056,8178.5,9.610365923490008,0.0
2.064,8185.0,8.617122389213364,0.0
2.072,8195.0,10.094225935291433,0.0
2.08,8187.5,9.94813079933624,0.0
2.088,8172.0,3.65455736621675,0.0
2.096,8173.5,-3.481737159928798,0.0
2.104,8173.5,-6.867806291309989,0.0
2.112,8178.0,-6.909727786260646,0.0
2.12,8188.5,-2.822411433583511,0.0
2.128,8485.5,62.845235078954374,0.0
2.136,8062.0,66.30883926283218,0.0
2.144,8128.5,-14.631387914884044,0.0
2.152,8186.0,-34.9477115073787,0.0
2.16,8195.0,-28.07826140166071,0.0
2.168,8204.0,-16.081269247251612,0.0
2.176,8215.5,-2.3599907345328575,0.0
2.184,8231.5,11.730825876678864,0.0
2.192,8252.5,25.844710422153412,0.0
2.2,8271.0,38.34315787673768,0.0
2.208,8274.0,44.31391150238687,0.0
2.216,8251.5,37.14262723758134,0.0
2.224,8208.5,13.888576853116092,0.0
2.232,8172.0,-18.211417923847193,0.0
2.24,8159.0,-44.547126802522826,0.0
2.248,8155.0,-56.84126539538988,0.0
2.256,8157.0,-55.90279358146768,0.0
2.264,8164.0,-45.03355212517204,0.0
2.272,8168.0,-29.530573525209093,0.0
2.28,8174.0,-13.841945786689848,0.0
2.288,8174.0,-1.2393098963273133,0.0
2.296,8176.0,6.810363849564283,0.0
2.304,8174.0,10.538396086655894,0.0
2.312,8176.0,11.145402969236784,0.0
2.32,8176.5,10.325363255046568,0.0
2.328,8188.5,10.828706479145467,0.0
2.336,8173.5,8.871720640593367,0.0
2.344,8164.0,1.3639346803856824,0.0
2.352,8163.5,-5.325954398854947,0.0
2.36,8167.0,-7.861963746842775,0.0
2.368,8167.0,-7.454736106835753,0.0
2.376,8238.5,8.523832571142066,0.0
2.384,8391.0,62.444602759676854,0.0
2.392,8049.0,46.15091230898406,1.0
2.4,8150.0,-19.718671065171975,0.0
2.408,8179.0,-29.12514363872333,0.0
2.416,8190.5,-21.99821707359979,0.0
2.424,8201.0,-9.953556954139458,0.0
2.432,8210.5,2.7647283904591404,0.0
2.44,8228.0,15.38325817460236,0.0
2.448,8248.5,28.27698369431414,0.0
2.456,8268.0,39.787220187438606,0.0
2.464,8266.0,44.137407291193085,0.0
2.472,8234.0,33.0721208264315,0.0
2.48,8188.0,5.578540474851479,0.0
2.488,8161.0,-26.440850375194714,0.0
2.496,8154.0,-48.31454835222189,0.0
2.504,8152.5,-55.66211847178624,0.0
2.512,8155.0,-51.3641243364134,0.0
2.52,8160.5,-39.400483571627774,0.0
2.528,8164.5,-24.410769943785226,0.0
2.536,8170.5,-9.801908918010668,0.0
2.544,8174.5,2.366840739986401,0.0
2.552,8172.0,9.511029469648975,0.0
2.56,8169.0,11.170452042038505,0.0
2.568,8173.0,10.66256026023484,0.0
2.576,8178.5,10.68648173795691,0.0
2.584,8187.5,12.04279404373733,0.0
2.592,8166.5,8.567475289943786,0.0
2.6,8162.0,0.003576108796551125,0.0
2.608,8164.5,-5.470243577389738,0.0
2.616,8163.5,-7.571646785009079,0.0
2.624,8162.5,-8.075063801893748,0.0
2.632,8311.0,22.985862774698944,0.0
2.64,8246.5,55.0315846766282,0.0
2.648,8065.0,15.381931200229019,0.0
2.656,8163.5,-27.35585924634347,0.0
2.664,8182.0,-24.580250459909394,0.0
2.672,8191.0,-13.593831229206899,0.0
2.68,8199.5,-1.4602313143784613,0.0
2.688,8214.0,10.635866933756915,0.0
2.696,8233.0,23.02103414281487,0.0
2.704,8256.0,35.435975728488984,0.0
2.712,8271.0,45.16907085040407,0.0
2.72,8263.5,45.6092991489902,0.0
2.728,8222.5,29.046151361382044,0.0
2.736,8177.5,-2.722877215835524,1.0
2.744,8157.0,-34.479912008306655,0.0
2.752,8153.0,-53.038778582134,0.0
2.76,8152.5,-56.89251051230417,0.0
2.768,8155.0,-50.137423451126324,0.0
2.776,8162.0,-36.600193077872746,0.0
2.784,8166.0,-20.797967005355986,0.0
2.792,8170.0,-6.66493267699434,0.0
2.8,8172.5,4.0317583462008315,0.0
2.808,8169.5,9.644351216567202,0.0
2.816,8168.5,10.684228608716921,0.0
2.824,8169.5,9.679355216017939,0.0
2.832,8176.0,9.149826429716768,0.0
2.84,8184.0,10.411804244369023,0.0
2.848,8186.5,11.724742079724365,0.0
2.856,8165.5,6.944036809538829,0.0
2.864,8163.0,-1.737131720901516,0.0
2.872,8165.5,-6.60779080495081,0.0
2.88,8168.5,-7.362816942931204,0.0
2.888,8157.0,-8.429605207397344,0.0
2.896,8351.0,29.502426054553098,0.0
2.904,8190.0,54.20437798908483,0.0
2.912,8078.0,4.820923102545294,0.0
2.92,8170.0,-29.201296035746054,0.0
2.928,8183.5,-23.34098222570833,0.0
2.936,8194.0,-11.433214106516516,0.0
2.944,8205.0,1.7348982606458776,0.0
2.952,8218.5,14.264837346848253,0.0
2.96,8239.0,26.458532975383832,0.0
2.968,8262.5,38.64767483515925,0.0
2.976,8275.5,47.45384964120967,0.0
2.984,8265.5,46.080145650755185,0.0
2.992,8222.5,27.453501701215828,0.0
3.0,8178.5,-5.498711441310661,0.0
3.008,8156.0,-37.73893122634354,0.0
3.016,8153.0,-56.293747651296826,0.0
3.024,8154.0,-59.14084053852821,0.0
3.032,8158.0,-50.83665296392519,0.0
3.04,8161.5,-36.6858773020042,0.0
3.048,8169.0,-20.5078108175112,0.0
3.056,8171.0,-5.890044955594476,0.0
3.064,8171.5,4.158630075285373,0.0
3.072,8171.0,9.470902516610295,0.0
3.08,8170.0,10.870219833094325,0.0
3.088,8169.0,9.641118505515351,0.0
3.096,8168.0,7.043920993974098,0.0
3.104,8173.0,5.257204399180409,0.0
3.112,8177.0,5.242196329123544,0.0
3.12,8187.0,7.298753281825839,0.0
3.128,8183.0,8.634225470860656,0.0
3.136,8167.0,4.028954540570112,0.0
3.144,8172.0,-1.5527412266567353,0.0
3.152,8174.0,-3.1882272336076767,0.0
3.16,8171.0,-3.8763789053898563,0.0
3.168,8160.5,-6.453707000861641,0.0
3.176,8446.0,49.18325025251329,0.0
3.184,8099.0,62.06559308318174,0.0
3.192,8109.5,-8.472914482532587,0.0
3.2,8176.5,-33.07136383844431,0.0
3.208,8189.0,-26.36292158782021,0.0
3.216,8199.0,-13.8018612668684,0.0
3.224,8210.5,0.11172189916669595,0.0
3.232,8225.0,13.635075118806299,0.0
3.24,8246.5,26.920355263865986,0.0
3.248,8268.0,39.480739872786216,1.0
3.256,8279.5,47.66511165083489,0.0
3.264,8266.5,44.97229085108961,0.0
3.272,8221.5,24.711983137893412,0.0
3.28,8181.5,-8.382127838962788,0.0
3.288,8163.0,-38.63469921467481,0.0
3.296,8159.0,-55.265312174089786,0.0
3.304,8161.0,-57.1303572614986,0.0
3.312,8164.0,-48.55020123256577,0.0
3.32,8171.5,-33.96996887935802,0.0
3.328,8176.5,-17.64323495321196,0.0
3.336,8180.5,-3.4740013365135383,0.0
3.344,8179.0,5.943111733638943,0.0
3.352,8178.5,10.202729341496934,0.0
3.36,8180.5,11.481457213026488,0.0
3.368,8177.5,10.292669509284906,0.0
3.376,8176.5,7.211928937084167,0.0
3.384,8178.0,4.398720901082697,0.0
3.392,8185.5,3.9068037163672216,0.0
3.4,8194.5,6.394530748006446,0.0
3.408,8199.0,9.654343202241307,0.0
3.416,8179.5,7.053966164814483,0.0
3.424,8181.0,0.7692281025811099,0.0
3.432,8179.5,-3.064179686314901,0.0
3.44,8180.5,-4.968835336655957,0.0
3.448,8176.5,-5.954813934606591,0.0
3.456,8353.5,29.708942631961463,0.0
3.464,8215.5,54.26393524617674,0.0
3.472,8085.0,5.70389298607256,0.0
3.48,8177.0,-31.744795188431226,0.0
3.488,8197.0,-26.197309665911234,0.0
3.496,8203.5,-13.53074266496219,0.0
3.504,8215.5,-0.20877027540564086,0.0
3.512,8226.0,12.298242817888877,0.0
3.52,8242.0,23.24428281299606,0.0
3.528,8264.0,33.957076506175554,0.0
3.536,8276.5,42.19268986382849,0.0
3.544,8273.0,42.505015641423824,0.0
3.552,8237.0,28.175579953534452,0.0
3.56,8191.5,-1.2210923598622685,1.0
3.568,8166.5,-32.82431200091946,0.0
3.576,8159.0,-53.177627645130315,0.0
3.584,8161.5,-58.17369305249463,0.0
3.592,8164.0,-51.287035258081914,0.0
3.6,8171.0,-37.49769945075582,0.0
3.608,8173.0,-21.818907728929844,0.0
3.616,8180.5,-7.297634371283493,0.0
3.624,8178.5,3.5202847944099176,0.0
3.632,8177.5,8.771365155257854,0.0
3.64,8174.5,9.729799636429334,0.0
3.648,8171.5,7.595658792417453,0.0
3.656,8171.5,4.569037414637933,0.0
3.664,8176.0,3.0057322282962105,0.0
3.672,8188.0,4.9964552354281295,0.0
3.68,8176.0,5.41624395072904,0.0
3.688,8164.0,-0.059879991726347725,0.0
3.696,8166.0,-5.3323803928190046,0.0
3.704,8166.0,-7.233474981024074,0.0
3.712,8170.5,-6.341745289749724,0.0
3.72,8213.5,4.85139477436519,0.0
3.728,8438.5,65.48809155664117,0.0
3.736,8045.5,57.097227918708086,0.0
3.744,8142.0,-17.096923106613986,0.0
3.752,8176.5,-31.619718377123718,0.0
3.76,8187.0,-26.22101593587331,0.0
3.768,8196.0,-15.068950623662886,0.0
3.776,8205.0,-2.511591965434718,0.0
3.784,8219.5,10.096665601494578,0.0
3.792,8240.5,23.275073922360207,0.0
3.8,8261.0,36.01847115253895,0.0
3.808,8260.5,42.18008638196284,0.0
3.816,8232.0,33.50433259892361,0.0
3.824,8188.0,8.482044063271587,0.0
3.832,8155.0,-23.333237593636113,0.0
3.84,8146.5,-47.08963269089213,0.0
3.848,8140.5,-56.96214340186134,0.0
3.856,8142.5,-54.98179996692102,0.0
3.864,8147.5,-44.04463250307322,0.0
3.872,8152.0,-28.957865698072283,0.0
3.88,8155.5,-14.010815844062108,0.0
3.888,8152.5,-2.944799731733383,0.0
3.896,8151.0,3.126736642498372,0.0
3.904,8150.0,5.73263100257941,0.0
3.912,8148.0,5.791715633211652,0.0
3.92,8148.0,4.539964085412521,0.0
3.928,8154.0,4.337173086796838,0.0
3.936,8158.0,5.60268443388054,0.0
3.944,8160.0,6.727477612720122,0.0
3.952,8139.5,2.593148181114884,0.0
3.96,8137.5,-4.8418078480435724,0.0
3.968,8138.5,-8.709054190809411,0.0
3.976,8141.0,-8.960689004922415,0.0
3.984,8135.5,-8.363861671657105,0.0
3.992,8417.5,49.74633910035891,0.0
4.0,8047.5,58.59201131086729,0.0
4.008,8079.0,-14.215742256345266,0.0
4.016,8142.5,-35.71027505539246,0.0
4.024,8154.0,-27.685445290704592,0.0
4.032,8162.5,-14.656117421154477,0.0
4.04,8174.0,-0.6425375191365674,0.0
4.048,8187.0,12.747856999552823,0.0
4.056,8206.0,25.27181502999838,0.0
4.064,8229.5,37.52974274125427,1.0
4.072,8235.5,45.11598331728419,0.0
4.08,8223.0,41.43440253317408,0.0
4.088,8181.0,21.84078230870705,0.0
4.096,8143.5,-9.300088316921801,0.0
4.104,8126.5,-37.44113962825077,0.0
4.112,8124.0,-52.39105835119108,0.0
4.12,8126.0,-53.39146320721761,0.0
4.128,8131.0,-44.45821919285095,0.0
4.136,8140.0,-29.57451107892348,0.0
4.144,8144.5,-13.530404548106617,0.0
4.152,8148.0,-0.35617076645894485,0.0
4.16,8148.0,8.204101950256245,0.0
4.168,8147.0,11.818493605605454,0.0
4.176,8144.5,11.449162856972862,0.0
4.184,8148.5,9.801364268571433,0.0
4.192,8153.5,9.17956380541159,0.0
4.2,8166.0,10.995366238229963,0.0
4.208,8160.0,11.73015685620544,0.0
4.216,8143.5,5.789512033566325,0.0
4.224,8147.5,-1.1552941851768992,0.0
4.232,8149.0,-3.9636303651238904,0.0
4.24,8152.0,-4.104188894816389,0.0
4.248,8162.5,-0.8070103693657984,0.0
4.256,8485.5,69.39961277651355,0.0
4.264,8034.5,74.24738799857664,0.0
4.272,8118.5,-9.120828642880724,0.0
4.28,8162.5,-30.89132373361349,0.0
4.288,8174.0,-27.744173587870364,0.0
4.296,8184.0,-17.284142264120646,0.0
4.304,8195.0,-4.187299693234081,0.0
4.312,8212.5,10.01556896245279,0.0
4.32,8232.0,24.45577409648422,0.0
4.328,8252.0,37.35778615041113,0.0
4.336,8257.0,44.43165408436403,0.0
4.344,8236.5,38.71210193489628,0.0
4.352,8195.5,16.895855937953,0.0
4.36,8157.0,-14.809762700190277,0.0
4.368,8146.5,-41.325818851634494,0.0
4.376,8144.0,-53.397799535067634,0.0
4.384,8145.0,-52.747863556882976,0.0
4.392,8153.5,-42.42543593686719,0.0
4.4,8157.0,-27.436962512875652,0.0
4.408,8161.5,-12.778630077161552,0.0
4.416,8165.5,-0.4357682819636466,0.0
4.424,8166.0,7.849201159743416,0.0
4.432,8165.0,11.456736473171304,0.0
4.44,8164.0,11.444648782947297,0.0
4.448,8165.0,9.70235630079128,0.0
4.456,8173.0,9.039683081200792,0.0
4.464,8183.0,10.95467141426775,0.0
4.472,8181.5,12.162891874385878,0.0
4.48,8163.5,7.049527416262208,0.0
4.488,8163.0,-0.8228647091359562,0.0
4.496,8166.0,-4.843076370350445,0.0
4.504,8169.0,-5.2605504304069655,0.0
4.512,8160.0,-5.935687309068726,0.0
4.52,8466.5,55.34445334102361,0.0
4.528,8079.5,66.74833875564445,0.0
4.536,8110.5,-9.358351678992221,0.0
4.544,8177.0,-33.02955598765402,0.0
4.552,8192.0,-25.370479459800208,0.0
4.56,8200.0,-12.295531123231285,0.0
4.568,8207.5,0.4677821925411081,0.0
4.576,8223.5,12.746132715096792,0.0
4.584,8243.5,25.429894478622373,0.0
4.592,8268.5,38.269115204622494,1.0
4.6,8275.5,46.59778597939385,0.0
4.608,8259.5,42.61986635610583,0.0
4.616,8218.0,22.05835904964715,0.0
4.624,8181.5,-9.3814543662495,0.0
4.632,8164.0,-37.58481348527562,0.0
4.64,8163.0,-52.3454974660915,0.0
4.648,8162.5,-53.4451975998561,0.0
4.656,8168.5,-44.86898111731966,0.0
4.664,8177.5,-29.92984131665412,0.0
4.672,8183.0,-13.594779495214198,0.0
4.68,8187.0,0.06773600391898071,0.0
4.688,8187.5,9.056809277713,0.0
4.696,8180.5,11.671857846196644,0.0
4.704,8181.5,10.22299689469628,0.0
4.712,8182.0,8.122667156929538,0.0
4.72,8190.0,7.385600402506952,0.0
4.728,8201.0,9.711671804027901,0.0
4.736,8198.5,11.35145952574112,0.0
4.744,8184.0,7.127098017166645,0.0
4.752,8183.5,0.483753036872713,0.0
4.76,8186.0,-3.109851254005889,0.0
4.768,8186.5,-4.1507102771636255,0.0
4.776,8187.5,-3.830524680237886,0.0
4.784,8487.5,58.43413342331996,0.0
4.792,8082.0,64.8443082599099,0.0
4.8,8127.0,-14.846334589967455,0.0
4.808,8189.5,-37.76203121893832,0.0
4.816,8204.5,-29.755852887345554,0.0
4.824,8210.0,-16.321506802780505,0.0
4.832,8224.0,-1.918057520634875,0.0
4.84,8235.0,11.99843940666483,0.0
4.848,8255.0,24.74285326274071,0.0
4.856,8279.0,37.51780626978302,0.0
4.864,8285.0,45.513774875489844,0.0
4.872,8272.5,42.01419667710729,0.0
4.88,8230.0,22.338158433835588,0.0
4.888,8191.5,-9.233313400025054,0.0
4.896,8175.0,-37.74129583374042,0.0
4.904,8172.0,-52.862709793899285,0.0
4.912,8173.0,-54.19947996110113,0.0
4.92,8180.0,-45.13835613563924,0.0
4.928,8182.5,-30.99525703309996,0.0
4.936,8186.5,-16.60384936436344,0.0
4.944,8192.0,-3.634597217195278,0.0
4.952,8189.0,5.097197021267675,0.0
4.96,8187.0,8.46686638410688,0.0
4.968,8185.0,8.358803110599865,0.0
4.976,8188.5,7.334052690786621,0.0
4.984,8199.0,8.476299566908665,0.0
4.992,8191.0,8.377467482981956,0.0
5.0,8172.0,1.5327731417528412,0.0
5.008,8176.0,-5.812066672321862,0.0
5.016,8178.0,-8.048809973767447,0.0
5.024,8179.0,-7.5384192059198085,0.0
5.032,8189.5,-3.7442021366553035,0.0
5.04,8488.0,62.19631153024284,0.0
5.048,8058.5,65.00031965954486,0.0
5.056,8141.5,-13.98644586535147,1.0
5.064,8190.0,-31.713020101859,0.0
5.072,8200.5,-25.33467007639024,0.0
5.08,8207.5,-14.146224940777302,0.0
5.088,8218.0,-1.80939783200688,0.0
5.096,8232.0,10.766277645485616,0.0
5.104,8252.5,23.61959505845698,0.0
5.112,8271.5,35.70989894227364,0.0
5.12,8272.0,41.42990862049851,0.0
5.128,8251.0,34.343282852403945,0.0
5.136,8208.0,11.870164250551625,0.0
5.144,8175.0,-18.746920697743008,0.0
5.152,8161.5,-43.511548134254326,0.0
5.16,8164.0,-53.807752756042646,0.0
5.168,8168.5,-50.30891498882329,0.0
5.176,8175.0,-38.364973702001635,0.0
5.184,8179.0,-23.339605007497312,0.0
5.192,8185.0,-8.872058881886687,0.0
5.2,8184.5,2.152787426838586,0.0
5.208,8181.5,7.631422488925864,0.0
5.216,8179.0,8.590809972309899,0.0
5.224,8176.0,6.732067421498414,0.0
5.232,8183.0,5.429352555605647,0.0
5.24,8183.5,5.368031381184892,0.0
5.248,8196.0,7.173819936834889,0.0
5.256,8175.0,5.417567526663561,0.0
5.264,8172.5,-1.2435138075575196,0.0
5.272,8173.0,-5.4029366047479925,0.0
5.28,8172.0,-7.145813839239736,0.0
5.288,8167.5,-8.216813372619754,0.0
5.296,8339.5,26.615953233499113,0.0
5.304,8237.0,57.379608597053675,0.0
5.312,8087.0,15.287799584352342,0.0
5.32,8178.5,-23.874635960846945,0.0
5.328,8190.5,-22.270423848729024,0.0
5.336,8198.5,-13.859219840532205,0.0
5.344,8207.0,-3.412662741108761,0.0
5.352,8222.5,8.18603364131809,0.0
5.36,8236.5,19.831258553484076,0.0
5.368,8260.5,31.47500381721352,0.0
5.376,8271.0,40.63749191564443,0.0
5.384,8261.5,40.09934965816774,0.0
5.392,8225.0,24.30372057673958,0.0
5.4,8186.5,-4.045081151571367,1.0
5.408,8166.0,-32.250982342980706,0.0
5.416,8163.5,-48.741195169462344,0.0
5.424,8164.0,-51.512340994851684,0.0
5.432,8166.5,-44.72841067528384,0.0
5.44,8173.0,-32.09634304066776,0.0
5.448,8174.0,-18.22731843128804,0.0
5.456,8176.0,-6.648821049056778,0.0
5.464,8178.5,2.1260766740383588,0.0
5.472,8173.5,6.482446341554578,0.0
5.48,8174.5,7.258777503056308,0.0
5.488,8180.5,8.047487893970583,0.0
5.496,8184.5,9.336844008868184,0.0
5.504,8193.0,11.237551634418196,0.0
5.512,8176.5,9.023474926355902,0.0
5.52,8169.0,1.4427885209613578,0.0
5.528,8170.0,-4.587116049308634,0.0
5.536,8170.0,-7.25342990999161,0.0
5.544,8164.5,-8.854232475153594,0.0
5.552,8374.5,33.32098025021537,0.0
5.56,8215.0,63.5286692438965,0.0
5.568,8080.5,11.69730825383158,0.0
5.576,8164.0,-31.148465225927566,0.0
5.584,8184.5,-30.51762431077941,0.0
5.592,8201.0,-17.95858347501985,0.0
5.6,8205.5,-3.518136890838605,0.0
5.608,8216.0,8.619822855903521,0.0
5.616,8234.0,20.313898843245624,0.0
5.624,8266.5,34.46712089129278,0.0
5.632,8284.0,47.826731933698284,0.0
5.64,8267.5,48.680787621179206,0.0
5.648,8222.0,29.13864163446192,0.0
5.656,8181.0,-4.508334595785982,0.0
5.664,8162.5,-35.87948317507539,0.0
5.672,8159.5,-53.38504329701732,0.0
5.68,8155.0,-57.176256183022815,0.0
5.688,8161.0,-50.4433266814799,0.0
5.696,8167.0,-36.36206965127303,0.0
5.704,8174.5,-19.76345737212182,0.0
5.712,8181.0,-4.090480479481357,0.0
5.72,8182.0,7.330913521161165,0.0
5.728,8174.5,11.646098725833326,0.0
5.736,8168.0,9.572194570420379,0.0
5.744,8173.5,6.690132565642671,0.0
5.752,8180.5,6.525143087396145,0.0
5.76,8195.0,9.830747593026217,0.0
5.768,8179.0,9.988768039528168,0.0
5.776,8165.5,2.5409316172836043,0.0
5.784,8168.0,-4.496250856622737,0.0
5.792,8172.5,-6.546238498851608,0.0
5.8,8177.0,-4.927403367384613,0.0
5.808,8208.5,4.131855246324903,0.0
5.816,8503.0,75.46511655168024,0.0
5.824,8047.5,73.31765455565369,0.0
5.832,8150.5,-11.084213327846328,1.0
5.84,8184.0,-31.431778759496183,0.0
5.848,8192.0,-30.221382538248236,0.0
5.856,8198.5,-21.96127594606969,0.0
5.864,8214.5,-9.14990532558727,0.0
5.872,8234.0,7.066631049202897,0.0
5.88,8252.5,23.34911057223303,0.0
5.888,8268.0,36.38476938173608,0.0
5.896,8270.5,42.25509084361215,0.0
5.904,8245.0,34.621499790774806,0.0
5.912,8195.5,9.535416782167204,0.0
5.92,8163.5,-23.39665026786588,0.0
5.928,8155.5,-47.49744505913009,0.0
5.936,8153.5,-56.592450303380474,0.0
5.944,8158.0,-52.88038589665871,0.0
5.952,8163.0,-40.72692862129884,0.0
5.96,8163.5,-26.24105639304844,0.0
5.968,8166.5,-12.980628668868349,0.0
5.976,8171.0,-1.6381608689980567,0.0
5.984,8171.0,6.237474121724063,0.0
5.992,8166.0,8.92793284925574,0.0
6.0,8166.0,8.143981583172945,0.0
6.008,8169.0,7.0585328344679965,0.0
6.016,8172.0,6.57224828685753,0.0
6.024,8174.0,6.3097341129553115,0.0
6.032,8185.0,7.853764210900636,0.0
6.04,8171.5,7.065425648527935,0.0
6.048,8171.0,2.667790057322236,0.0
6.056,8168.5,-0.9503353161483119,0.0
6.064,8171.0,-2.946006645991247,0.0
6.072,8160.5,-5.314000594158642,0.0
6.08,8349.5,30.55893404009953,0.0
6.088,8224.0,60.11413568372882,0.0
6.096,8073.5,12.091993179011297,0.0
6.104,8168.5,-29.480207371053893,0.0
6.112,8189.0,-25.99964562747823,0.0
6.12,8197.0,-14.176820494613366,0.0
6.128,8201.5,-2.481687575713522,0.0
6.136,8218.0,9.10136519123489,0.0
6.144,8237.0,21.82436837374098,0.0
6.152,8264.5,35.539887961909244,0.0
6.16,8278.5,46.74144133430514,0.0
6.168,8264.5,46.27946731428233,0.0
6.176,8220.0,27.038144915648218,0.0
6.184,8180.0,-5.703862996218504,1.0
6.192,8162.5,-35.94995693845681,0.0
6.2,8158.0,-52.88162736059871,0.0
6.208,8156.0,-56.20546579797406,0.0
6.216,8159.0,-49.44546551124586,0.0
6.224,8163.5,-36.41884010429453,0.0
6.232,8166.0,-21.763283515655758,0.0
6.24,8176.0,-7.2426805432608035,0.0
6.248,8172.5,3.7708113330263586,0.0
6.256,8166.0,7.669464522058888,0.0
6.264,8163.0,6.871482412025216,0.0
6.272,8162.5,4.642706381641574,0.0
6.28,8173.5,4.765881479275549,0.0
6.288,8187.5,9.223683750249847,0.0
6.296,8193.5,14.547617822144275,0.0
6.304,8167.0,11.302426182831368,0.0
6.312,8162.0,1.234168014720808,0.0
6.32,8168.5,-4.600846469412772,0.0
6.328,8170.5,-5.617564778444148,0.0
6.336,8169.5,-5.1628603587626,0.0
6.344,8319.5,26.329624476216168,0.0
6.352,8272.0,61.90318072829518,0.0
6.36,8060.5,20.642156884557608,0.0
6.368,8163.0,-29.15792907522996,0.0
6.376,8188.5,-28.038426088364304,0.0
6.384,8194.0,-16.79207196846596,0.0
6.392,8199.0,-5.4499617123813096,0.0
6.4,8219.0,7.191542726031685,0.0
6.408,8240.5,22.055869056140182,0.0
6.416,8262.0,36.287612502599586,0.0
6.424,8277.5,46.76174223827661,0.0
6.432,8269.0,47.29659899216813,0.0
6.44,8226.5,30.022847684050248,0.0
6.448,8182.0,-2.5188101589196776,0.0
6.456,8157.0,-35.58091889712887,0.0
6.464,8155.0,-55.25543047162137,0.0
6.472,8153.5,-59.22858160099736,0.0
6.48,8156.0,-52.394243730860126,0.0
6.488,8159.0,-39.285187264319575,0.0
6.496,8165.0,-23.73770737202699,0.0
6.504,8180.0,-6.653719460041202,0.0
6.512,8175.0,6.50151347657129,0.0
6.52,8164.0,10.026977175275533,0.0
6.528,8163.0,8.140112610089545,0.0
6.536,8165.0,5.994387687944709,0.0
6.544,8170.0,5.246695348454068,0.0
6.552,8175.5,6.154209042631237,0.0
6.56,8180.0,7.800868656346211,0.0
6.568,8188.5,10.247907387480609,0.0
6.576,8179.5,10.039227925904925,0.0
6.584,8166.0,3.7969812382900727,0.0
6.592,8169.5,-2.513348578083196,0.0
6.6,8174.0,-4.229807323194109,0.0
6.608,8173.0,-3.8885765936388452,0.0
6.616,8176.0,-2.6886175438321516,0.0
6.624,8535.5,72.48771122348307,0.0
6.632,8065.0,83.27948399526485,0.0
6.64,8134.0,-4.991213096114734,1.0
6.648,8176.5,-33.658089104344526,0.0
6.656,8193.5,-33.35276967899085,0.0
6.664,8202.0,-22.905859692714785,0.0
6.672,8215.5,-8.760157516919435,0.0
6.68,8231.5,6.960605025929908,0.0
6.688,8254.0,23.068109930836954,0.0
6.696,8272.5,37.47299782376626,0.0
6.704,8277.5,45.11174536523458,0.0
6.712,8254.0,39.01024974587153,0.0
6.72,8208.0,15.288513688779176,0.0
6.728,8167.0,-18.832572754602552,0.0
6.736,8152.0,-47.59733286665073,0.0
6.744,8155.5,-59.74190657840427,0.0
6.752,8161.5,-55.925751419929384,0.0
6.76,8165.5,-43.14687127422212,0.0
6.768,8167.0,-27.92423312161236,0.0
6.776,8176.5,-12.440637602767538,0.0
6.784,8178.0,0.8497918314126309,0.0
6.792,8173.0,7.865838530990459,0.0
6.8,8163.5,7.860201064606372,0.0
6.808,8161.5,4.315708337770957,0.0
6.816,8169.0,2.6888433918763894,0.0
6.824,8177.0,4.4857205256828365,0.0
6.832,8185.5,8.239266122468052,0.0
6.84,8179.0,9.618538452797793,0.0
6.848,8191.5,10.201758819294355,0.0
6.856,8183.0,9.817170626565257,0.0
6.864,8169.0,3.5045583129767692,0.0
6.872,8167.5,-3.9267053851606306,0.0
6.88,8173.0,-6.909004302705853,0.0
6.888,8174.0,-6.2972890054422805,0.0
6.896,8201.5,0.8417952485419846,0.0
6.904,8527.0,77.0544027890578,0.0
6.912,8057.0,80.92258716068454,0.0
6.92,8141.0,-7.918712539973058,0.0
6.928,8178.5,-34.43619027728528,0.0
6.936,8192.5,-34.376157530299,0.0
6.944,8203.5,-24.021302415591208,0.0
6.952,8217.0,-9.25017499544424,0.0
6.96,8229.0,6.09755214228926,0.0
6.968,8250.0,20.99163899412588,0.0
6.976,8272.0,35.40233260308287,1.0
6.984,8280.5,44.788556694034696,0.0
6.992,8245.0,38.03295803589572,0.0
7.0,8200.0,11.825246411390708,0.0
7.008,8170.0,-20.789359794744996,0.0
7.016,8158.0,-45.506306425699904,0.0
7.024,8155.5,-56.186936680683175,0.0
7.032,8156.0,-54.39344265226737,0.0
7.04,8163.5,-43.45167870865862,0.0
7.048,8167.0,-28.14564111080108,0.0
7.056,8169.0,-13.702809766636392,0.0
7.064,8173.0,-1.8580304730030548,0.0
7.072,8178.5,7.369509655712363,0.0
7.08,8173.5,11.811507437851105,0.0
7.088,8165.5,9.991822942850149,0.0
7.096,8162.5,5.153477168798872,0.0
7.104,8168.0,2.021511547561886,0.0
7.112,8178.0,3.0294500077116027,0.0
7.12,8180.0,5.6178526637625055,0.0
7.128,8187.0,8.13560437201886,0.0
7.136,8181.0,8.595445754639286,0.0
7.144,8167.0,3.478207671715154,0.0
7.152,8169.0,-2.527065723806345,0.0
7.16,8169.5,-5.184689456992146,0.0
7.168,8173.0,-5.153140335220996,0.0
7.176,8189.5,-0.267188850845514,0.0
7.184,8542.0,78.04986795237369,0.0
7.192,8059.0,85.87190742006737,0.0
7.2,8134.5,-5.773931988044524,0.0
7.208,8176.5,-35.09238722950977,0.0
7.216,8197.0,-34.34205169012421,0.0
7.224,8207.5,-22.35831854416142,0.0
7.232,8216.0,-7.999657859242916,0.0
7.24,8228.0,5.893039851476033,0.0
7.248,8253.0,20.774834473381816,0.0
7.256,8276.0,36.23263272371514,0.0
7.264,8283.5,46.11222947460806,0.0
7.272,8251.5,39.95847823746476,0.0
7.28,8201.5,13.508315358698383,0.0
7.288,8170.0,-20.832804595922653,1.0
7.296,8157.5,-46.972823515342725,0.0
7.304,8156.5,-58.06841425056291,0.0
7.312,8156.5,-56.030772134193285,0.0
7.32,8158.0,-46.02433629619077,0.0
7.328,8162.0,-32.00505947509646,0.0
7.336,8169.5,-16.51227800859033,0.0
7.344,8172.0,-2.8034080993916177,0.0
7.352,8174.0,6.64837843162627,0.0
7.36,8166.5,10.10652222601584,0.0
7.368,8159.5,7.65703275105102,0.0
7.376,8166.0,4.945361757005912,0.0
7.384,8175.0,5.7585715634431835,0.0
7.392,8180.5,8.328797034510217,0.0
7.4,8177.0,8.994681850271263,0.0
7.408,8187.0,9.352740453510478,0.0
7.416,8177.5,8.248660285759115,0.0
7.424,8166.0,2.0547975222812056,0.0
7.432,8169.0,-3.65633126950911,0.0
7.44,8171.0,-5.458036322241469,0.0
7.448,8173.0,-4.878855692704519,0.0
7.456,8185.5,-0.8342751604297973,0.0
7.464,8535.0,75.64106745682034,0.0
7.472,8057.0,83.14772442711819,0.0
7.48,8136.0,-6.535056366913295,0.0
7.488,8181.0,-33.2492111826125,0.0
7.496,8190.0,-32.97470091601849,0.0
7.504,8201.0,-23.726985636082645,0.0
7.512,8214.5,-9.655240786721606,0.0
7.52,8233.5,6.770391176893554,0.0
7.528,8250.5,22.812841299140246,0.0
7.536,8274.5,37.2179576384749,0.0
7.544,8285.0,47.142816452523675,0.0
7.552,8257.0,42.289689744656926,0.0
7.56,8204.5,16.561726123865128,0.0
7.568,8164.5,-20.06252856035826,0.0
7.576,8154.0,-48.99752789176296,0.0
7.584,8160.0,-59.6003889341157,0.0
7.592,8160.5,-55.50682566280011,0.0
7.6,8156.5,-45.38546203410692,0.0
7.608,8162.0,-32.212281283335415,0.0
7.616,8171.5,-16.47340948082683,0.0
7.624,8178.0,-1.3990901344118356,0.0
7.632,8180.5,9.566663472727441,0.0
7.64,8172.5,13.477718441881734,0.0
7.648,8167.5,11.091417987308432,0.0
7.656,8166.0,6.670618590461345,0.0
7.664,8173.5,4.270625546326755,0.0
7.672,8180.5,5.166158327977428,0.0
7.68,8179.5,6.138329303345472,0.0
7.688,8190.5,7.825634682474401,0.0
7.696,8177.5,7.228444065875692,0.0
7.704,8171.0,1.7954830047697214,0.0
7.712,8175.5,-2.0983792750428165,0.0
7.72,8172.0,-3.8787631173429418,0.0
7.728,8170.5,-5.365117036578113,0.0
7.736,8210.0,2.332702099153721,0.0
7.744,8515.5,77.01529885677269,0.0
7.752,8057.0,78.24800898491549,0.0
7.76,8140.5,-9.499099150436678,1.0
7.768,8177.0,-35.43631977216705,0.0
7.776,8197.0,-33.85998836571184,0.0
7.784,8204.0,-22.278052412904117,0.0
7.792,8214.5,-8.475634454982355,0.0
7.8,8228.5,5.977469191304181,0.0
7.808,8256.5,22.19939059664307,0.0
7.816,8284.0,39.7660142766224,0.0
7.824,8287.0,50.35706456040657,0.0
7.832,8251.0,42.24394166036177,0.0
7.84,8202.5,13.777754318311736,0.0
7.848,8166.0,-22.51154219192017,0.0
7.856,8155.0,-50.26424596512925,0.0
7.864,8155.0,-61.30380530985667,0.0
7.872,8161.0,-57.31239707798477,0.0
7.88,8161.0,-45.036844001799864,0.0
7.888,8163.0,-30.540383359630596,0.0
7.896,8171.0,-15.293909591844113,0.0
7.904,8176.5,-1.2003717975103427,0.0
7.912,8175.5,8.235867461853104,0.0
7.92,8169.5,11.137683314102333,0.0
7.928,8166.0,9.224350340584579,0.0
7.936,8168.0,6.387836746924677,0.0
7.944,8177.0,5.989164901729509,0.0
7.952,8185.5,8.420627362944515,0.0
7.96,8189.0,11.033533644739009,0.0
7.968,8180.0,9.782333643955326,0.0
7.976,8167.0,3.0646406456910427,0.0
7.984,8171.0,-3.211535032679194,0.0
7.992,8174.0,-5.006242593641218,0.0
8.0,8175.5,-4.389270508847403,0.0
8.008,8161.0,-6.014839733172039,0.0
8.016,8467.0,53.48941229054458,0.0
8.024,8105.0,69.12965641379196,0.0
8.032,8105.5,-5.9563488630690244,0.0
8.04,8173.5,-35.46442933917069,0.0
8.048,8189.0,-30.479514565413865,0.0
8.056,8200.5,-17.394267758029173,0.0
8.064,8208.0,-3.1367824019134787,0.0
8.072,8225.5,10.878164777355323,0.0
8.08,8246.5,25.382904989326335,0.0
8.088,8272.5,39.71477517748781,1.0
8.096,8283.0,49.626370977056695,0.0
8.104,8262.5,45.92112054605877,0.0
8.112,8216.5,23.18165283023768,0.0
8.12,8179.0,-10.840161910724646,0.0
8.128,8159.5,-40.9622575480505,0.0
8.136,8154.0,-57.67357411502758,0.0
8.144,8154.0,-59.9362791318531,0.0
8.152,8151.5,-52.69814383668131,0.0
8.16,8159.5,-39.304207395557114,0.0
8.168,8164.0,-22.870313394498908,0.0
8.176,8172.0,-7.130165811738152,0.0
8.184,8171.0,4.68965458736443,0.0
8.192,8168.0,10.151666598379734,0.0
8.2,8162.0,10.004071597089933,0.0
8.208,8156.5,6.050589340302395,0.0
8.216,8165.5,3.510218574450846,0.0
8.224,8176.0,5.459522996784926,0.0
8.232,8181.0,8.95127306754398,0.0
8.24,8183.0,11.089275419851901,0.0
8.248,8178.0,10.059518967793792,0.0
8.256,8165.5,4.3501164616820915,0.0
8.264,8169.0,-1.5246511886791723,0.0
8.272,8169.5,-3.9506206783755715,0.0
8.28,8172.5,-4.071321424194593,0.0
8.288,8170.5,-3.321142438348261,0.0
8.296,8517.0,68.00767054324183,0.0
8.304,8072.0,79.75701617327422,0.0
8.312,8120.5,-6.391822087726041,0.0
8.32,8181.0,-34.10223748734052,0.0
8.328,8195.0,-30.099418333014,0.0
8.336,8199.0,-19.491315749866317,0.0
8.344,8211.0,-6.993774649034094,0.0
8.352,8232.0,8.199516544070093,0.0
8.36,8249.5,23.80724215271971,0.0
8.368,8273.0,37.804500224614685,0.0
8.376,8287.0,48.0121280252979,0.0
8.384,8263.5,44.82883912902912,0.0
8.392,8211.5,20.72495394117277,0.0
8.4,8169.0,-15.978619561516325,1.0
8.408,8156.0,-46.60120084142727,0.0
8.416,8159.0,-59.68906106544,0.0
8.424,8156.5,-58.27748341744086,0.0
8.432,8153.0,-49.8329293066206,0.0
8.44,8162.0,-36.15991910906109,0.0
8.448,8170.5,-19.01618844477798,0.0
8.456,8173.5,-3.644876288356727,0.0
8.464,8172.5,6.406900295907917,0.0
8.472,8166.0,9.847886505698398,0.0
8.48,8163.5,8.551116825138706,0.0
8.488,8164.5,6.181307893902385,0.0
8.496,8169.0,4.966302094879211,0.0
8.504,8177.5,6.150710367108559,0.0
8.512,8180.0,8.165956242601169,0.0
8.52,8179.0,8.42616521446871,0.0
8.528,8186.5,8.630501624884346,0.0
8.536,8173.5,6.319205391267587,0.0
8.544,8162.5,-0.9089772999750494,0.0
8.552,8173.5,-5.045900939425792,0.0
8.56,8175.0,-4.173692314342134,0.0
8.568,8174.0,-2.922938140326778,0.0
8.576,8180.5,-0.616437727264838,0.0
8.584,8533.5,74.28722838602607,0.0
8.592,8061.5,83.01051427693574,0.0
8.6,8132.5,-6.340553149457719,0.0
8.608,8182.5,-33.50092468287903,0.0
8.616,8191.0,-32.53278980042796,0.0
8.624,8199.0,-23.65691789244397,0.0
8.632,8208.5,-11.245809467314302,0.0
8.64,8225.5,3.2130688931458735,0.0
8.648,8248.0,19.346769108898343,0.0
8.656,8275.5,36.17005547752592,0.0
8.664,8287.0,48.6032441061368,0.0
8.672,8264.5,46.340076802915746,0.0
8.68,8209.0,22.040476478311803,0.0
8.688,8163.0,-16.408397148059294,0.0
8.696,8151.5,-48.406588337426456,0.0
8.704,8152.5,-62.1364143519761,0.0
8.712,8153.0,-60.529145744350444,0.0
8.72,8154.5,-49.993075142028374,0.0
8.728,8163.5,-34.03736141904369,0.0
8.736,8163.0,-17.70415587114985,0.0
8.744,8166.0,-4.849813975733241,0.0
8.752,8165.5,3.9982637336563585,0.0
8.76,8163.5,8.114066267877206,0.0
8.768,8159.0,7.990001522985722,0.0
8.776,8159.0,5.785897587395539,0.0
8.784,8167.0,5.239590380047957,0.0
8.792,8170.5,6.471580930744949,0.0
8.8,8173.0,7.444815000943663,0.0
8.808,8173.5,7.504564669677848,0.0
8.816,8164.5,4.665562934870195,0.0
8.824,8156.0,-1.2960368467372518,0.0
8.832,8164.0,-4.727373057733757,0.0
8.84,8172.0,-2.7711208922426067,0.0
8.848,8169.0,-0.17255782903635009,0.0
8.856,8153.5,-2.3891753633402004,0.0
8.864,8462.0,56.52228938681333,0.0
8.872,8090.0,69.81988394521886,0.0
8.88,8104.0,-6.041154177991075,0.0
8.888,8172.5,-33.13451877476086,0.0
8.896,8174.0,-29.83284808152098,0.0
8.904,8188.0,-20.190570799677744,0.0
8.912,8206.5,-4.787238269633917,0.0
8.92,8232.5,14.139455703762678,0.0
8.928,8249.5,31.973898382624384,0.0
8.936,8264.0,44.10901394867233,1.0
8.944,8278.5,50.5229780390564,0.0
8.952,8274.0,48.69931425377422,0.0
8.96,8232.0,30.73742330582877,0.0
8.968,8176.5,-4.46469593955544,0.0
8.976,8147.5,-41.86969027706573,0.0
8.984,8149.0,-63.26127567691651,0.0
8.992,8156.0,-64.58451091434563,0.0
9.0,8159.0,-53.532287633196574,0.0
9.008,8160.5,-37.96054062402868,0.0
9.016,8169.0,-20.953160846616356,0.0
9.024,8175.0,-4.755916027883586,0.0
9.032,8176.0,6.974266631378896,0.0
9.04,8170.0,11.832592054302722,0.0
9.048,8165.5,10.76667842372899,0.0
9.056,8162.5,6.97168714439772,0.0
9.064,8165.0,3.568195084871377,0.0
9.072,8167.0,1.9337487092604988,0.0
9.08,8175.5,2.819119343153716,0.0
9.088,8186.5,6.899180382452641,0.0
9.096,8184.5,10.10483199314399,0.0
9.104,8172.0,7.5062753162526406,0.0
9.112,8167.5,1.358339230362617,0.0
9.12,8165.5,-3.8114356537355434,0.0
9.128,8167.0,-6.393123776167386,0.0
9.136,8159.5,-8.176461795878822,0.0
9.144,8479.0,55.750380339850835,0.0
9.152,8104.5,73.86764834501082,0.0
9.16,8090.0,-6.090057261494621,0.0
9.168,8152.5,-42.64714840779084,0.0
9.176,8168.0,-41.86567646521007,0.0
9.184,8188.5,-27.70135485943092,0.0
9.192,8211.5,-6.2376601871658295,0.0
9.2,8231.5,16.18657181228582,0.0
9.208,8245.5,33.94037832988147,0.0
9.216,8265.0,46.1382658803991,0.0
9.224,8285.0,54.426853328997595,0.0
9.232,8275.5,53.222115546170926,0.0
9.24,8229.5,33.101838936327795,0.0
9.248,8176.0,-4.14382099768477,1.0
9.256,8158.0,-40.15009964219007,0.0
9.264,8155.5,-59.545091354406395,0.0
9.272,8162.0,-61.17031549307467,0.0
9.28,8159.5,-52.04012522128528,0.0
9.288,8149.5,-41.30440881263576,0.0
9.296,8159.5,-28.69308791604294,0.0
9.304,8170.5,-12.594245412393093,0.0
9.312,8180.5,3.1263370743513406,0.0
9.32,8181.0,14.094632693100493,0.0
9.328,8177.0,17.72929907276466,0.0
9.336,8170.5,15.04570511571751,0.0
9.344,8165.5,8.828066107140785,0.0
9.352,8180.0,5.753383455051107,0.0
9.36,8194.0,8.885313854400465,0.0
9.368,8200.0,13.476430357399067,0.0
9.376,8197.0,14.761325650407116,0.0
9.384,8190.0,11.240211161915795,0.0
9.392,8177.5,3.4698150988149337,0.0
9.4,8172.0,-5.329064084874062,0.0
9.408,8178.5,-9.5204568872457,0.0
9.416,8523.0,61.15376328730895,0.0
9.424,8064.0,70.28630386151985,0.0
9.432,8080.5,-25.372074739490472,0.0
9.44,8144.5,-61.65135977642467,0.0
9.448,8154.0,-58.74368470894956,0.0
9.456,8166.5,-43.62323635172402,0.0
9.464,8187.0,-21.32530338236461,0.0
9.472,8198.5,1.6324514983248264,0.0
9.48,8209.0,19.456749105461995,0.0
9.488,8227.0,32.870709996154346,0.0
9.496,8241.0,42.357743106335874,0.0
9.504,8229.5,42.057177084768,0.0
9.512,8189.0,24.879415504752842,0.0
9.52,8154.0,-4.476209663074087,0.0
9.528,8140.5,-31.067021750453705,0.0
9.536,8147.0,-43.51276275531745,0.0
9.544,8149.0,-42.53954802560679,0.0
9.552,8140.0,-36.944598613957396,0.0
9.56,8134.5,-30.99687948369001,0.0
9.568,8137.0,-23.392817867839767,0.0
9.576,8156.0,-10.956693336597027,0.0
9.584,8173.0,5.414003920638152,0.0
9.592,8178.0,18.769398526020723,0.0
9.6,8172.5,23.71994410517027,0.0
9.608,8155.0,18.352546136263072,0.0
9.616,8156.5,9.12700001932194,0.0
9.624,8175.5,6.475433219940896,0.0
9.632,8190.5,10.87177690363319,0.0
9.64,8179.5,12.640680904251212,0.0
9.648,8175.5,8.705819020490026,0.0
9.656,8176.0,4.3437903820015435,0.0
9.664,8179.0,1.8205768277737207,0.0
9.672,8163.5,-2.50142874839662,0.0
9.68,8434.5,47.52065101163544,0.0
9.688,8150.5,67.24302419735409,0.0
9.696,8095.5,-0.5460124221831393,0.0
9.704,8182.5,-34.015928616282054,0.0
9.712,8198.5,-27.60978068773693,0.0
9.72,8208.5,-14.323405288635513,0.0
9.728,8219.0,-0.10610057570761455,0.0
9.736,8231.5,13.016995051400272,0.0
9.744,8253.5,25.85282051336071,0.0
9.752,8280.5,39.535054178262044,1.0
9.76,8293.0,49.70260630668099,0.0
9.768,8283.0,48.69093015453609,0.0
9.776,8237.5,29.371811063888572,0.0
9.784,8191.0,-5.302273199067258,0.0
9.792,8166.5,-39.50994079157317,0.0
9.8,8160.0,-60.083451185831336,0.0
9.808,8161.5,-64.16273504389596,0.0
9.816,8162.5,-56.33663675599951,0.0
9.824,8168.0,-41.8390406725764,0.0
9.832,8174.5,-24.47028394607696,0.0
9.84,8179.0,-8.241136904329096,0.0
9.848,8176.0,2.912658765954802,0.0
9.856,8176.5,8.5566496280519,0.0
9.864,8181.5,11.72086197107501,0.0
9.872,8189.5,14.471061628439884,0.0
9.88,8190.0,15.640098426735904,0.0
9.888,8164.5,8.85272072551129,0.0
9.896,8162.0,-2.2239232925537635,0.0
9.904,8161.0,-9.152512167760051,0.0
9.912,8164.5,-11.3516872692785,0.0
9.92,8159.5,-11.237677255860945,0.0
9.928,8417.5,42.221621141680544,0.0
9.936,8117.5,58.85543133354963,0.0
9.944,8092.0,-6.730457139820373,0.0
9.952,8169.5,-33.87378384926865,0.0
9.96,8186.0,-25.58635957270326,0.0
9.968,8195.0,-11.59632537943935,0.0
9.976,8206.5,2.6236644810585403,0.0
9.984,8223.0,16.355987618203244,0.0
9.992,8245.5,29.965232249745668,0.0
10.0,8276.0,44.298577873707245,0.0
10.008,8294.0,55.96769754164575,0.0
10.016,8282.5,55.71138747303962,0.0
10.024,8226.5,33.32299655204065,0.0
10.032,8172.0,-7.544861618647701,0.0
10.04,8150.0,-46.19916854804114,0.0
10.048,8155.0,-65.52803669120658,0.0
10.056,8158.0,-65.38986703036221,0.0
10.064,8158.5,-54.67922516641238,0.0
10.072,8165.5,-38.522697103463315,0.0
10.08,8166.5,-21.49285086583518,0.0
10.088,8169.0,-7.447805109742376,0.0
10.096,8170.0,2.702639845387239,0.0
10.104,8169.0,8.295844156727753,0.0
10.112,8170.0,10.345908071571557,0.0
10.12,8181.0,12.441360601391125,0.0
10.128,8177.5,13.326606836792962,0.0
10.136,8165.0,8.560855915500724,0.0
10.144,8164.5,1.7885611569522553,0.0
10.152,8164.0,-2.6920306053702916,0.0
10.16,8167.0,-4.422949511069419,0.0
10.168,8157.5,-6.10399610421905,0.0
10.176,8463.0,54.30031756259086,0.0
10.184,8093.0,68.61335684042956,0.0
10.192,8100.5,-7.383578908826621,1.0
10.2,8170.5,-35.375289824633455,0.0
10.208,8187.5,-28.792058310314815,0.0
10.216,8195.5,-15.426009552263622,0.0
10.224,8201.0,-2.4245240953798657,0.0
10.232,8219.5,10.535339223433311,0.0
10.24,8247.0,26.000337162500955,0.0
10.248,8276.5,42.84950042509195,0.0
10.256,8292.0,55.51111485724164,0.0
10.264,8276.0,54.48088211007757,0.0
10.272,8212.0,29.267593426375925,0.0
10.28,8164.5,-12.86035846665959,0.0
10.288,8147.0,-49.104531203128545,0.0
10.296,8150.0,-66.05681062531835,0.0
10.304,8153.5,-64.73941317960544,0.0
10.312,8148.0,-54.5536489627998,0.0
10.32,8149.0,-41.17818140136433,0.0
10.328,8153.0,-26.00334946887824,0.0
10.336,8167.0,-9.409149334549966,0.0
10.344,8170.5,5.406435792687034,0.0
10.352,8170.5,14.06372181612005,0.0
10.36,8169.5,16.847099445602453,0.0
10.368,8165.5,14.917461135280746,0.0
10.376,8176.0,12.842568391768964,0.0
10.384,8170.5,10.689899410338967,0.0
10.392,8171.0,6.774595473576483,0.0
10.4,8164.0,2.10402718465366,0.0
10.408,8160.5,-3.122293212686145,0.0
10.416,8162.5,-6.046205211065171,0.0
10.424,8244.0,10.200392958739485,0.0
10.432,8458.5,78.73514835249307,0.0
10.44,8047.0,67.08204948042248,0.0
10.448,8143.5,-14.334764138117635,0.0
10.456,8171.5,-34.8757614196129,0.0
10.464,8187.0,-32.84901040464479,0.0
10.472,8198.0,-21.256123642022203,0.0
10.48,8214.5,-5.559157614200103,0.0
10.488,8238.0,12.738869100311604,0.0
10.496,8267.5,32.45687270256008,0.0
10.504,8280.5,47.880007553086216,0.0
10.512,8286.5,53.62376544343192,0.0
10.52,8248.0,42.25084181302759,0.0
10.528,8193.0,10.017060129859601,0.0
10.536,8160.5,-28.440971894984386,1.0
10.544,8147.5,-56.16868909671439,0.0
10.552,8153.0,-65.58323526753384,0.0
10.56,8158.0,-59.06263112054398,0.0
10.568,8156.5,-45.53671167085213,0.0
10.576,8157.0,-30.837903050844034,0.0
10.584,8159.5,-16.85675929570357,0.0
10.592,8164.0,-4.602544480618917,0.0
10.6,8172.5,5.9982887438870875,0.0
10.608,8173.5,13.299050492967126,0.0
10.616,8167.0,14.476761391979153,0.0
10.624,8159.5,10.118198232805753,0.0
10.632,8167.0,6.006512884038102,0.0
10.64,8185.0,7.87388171603402,0.0
10.648,8189.0,12.279085292044556,0.0
10.656,8166.0,9.14094549665856,0.0
10.664,8162.5,0.48520771906214577,0.0
10.672,8163.0,-5.320247023000775,0.0
10.68,8164.5,-7.538369491907133,0.0
10.688,8155.5,-9.239513851566699,0.0
10.696,8387.0,36.61218494368677,0.0
10.704,8185.0,64.20483894856284,0.0
10.712,8075.0,7.04702043148427,0.0
10.72,8162.5,-32.42119923258292,0.0
10.728,8187.5,-27.86336005443036,0.0
10.736,8195.5,-14.201520007978615,0.0
10.744,8200.0,-1.4150519632180476,0.0
10.752,8217.0,10.75385046128099,0.0
10.76,8243.5,25.207194487830066,0.0
10.768,8272.0,41.169715437087916,0.0
10.776,8290.5,53.97024794692834,0.0
10.784,8279.0,54.78804091532493,0.0
10.792,8228.0,34.19636711798853,0.0
10.8,8177.5,-3.902621375734725,0.0
10.808,8156.5,-40.45012583333573,0.0
10.816,8159.0,-59.71110843862266,0.0
10.824,8159.5,-61.43621048713544,0.0
10.832,8154.5,-54.06133203353784,0.0
10.84,8156.5,-42.116407499510615,0.0
10.848,8161.0,-27.3388989677851,0.0
10.856,8168.5,-12.002995115285557,0.0
10.864,8170.5,0.8272867076491366,0.0
10.872,8172.0,9.004720681039316,0.0
10.88,8167.0,11.760566824316129,0.0
10.888,8160.0,9.155719052470886,0.0
10.896,8160.5,4.899145938975835,0.0
10.904,8169.0,3.477754684465708,0.0
10.912,8175.0,5.072239532463755,0.0
10.92,8172.0,5.859106332643705,0.0
10.928,8169.0,4.210343437413712,0.0
10.936,8185.0,5.252840733447101,0.0
10.944,8184.0,8.137491623214828,0.0
10.952,8170.0,5.545217258549201,0.0
10.96,8166.0,-0.505984753706116,0.0
10.968,8163.5,-5.335897744652129,0.0
10.976,8170.5,-6.463961535340786,0.0
10.984,8169.5,-4.925278789679851,0.0
10.992,8520.5,68.23671455442877,0.0
11.0,8075.5,81.95482796241345,0.0
11.008,8120.0,-4.180101786661453,0.0
11.016,8176.0,-33.95417162542503,0.0
11.024,8190.5,-32.01144613382826,0.0
11.032,8199.5,-21.208139029726226,0.0
11.04,8207.0,-8.232713211163855,0.0
11.048,8227.0,6.307381392309026,0.0
11.056,8253.5,23.450084231884148,0.0
11.064,8276.5,40.14583167063847,1.0
11.072,8292.0,51.79866897539432,0.0
11.08,8274.5,50.42824647714838,0.0
11.088,8223.0,27.875506599919845,0.0
11.096,8175.5,-9.914184017047774,0.0
11.104,8157.0,-44.243691832858985,0.0
11.112,8161.0,-60.80060220080327,0.0
11.12,8157.0,-61.37424274483169,0.0
11.128,8151.5,-54.34929101845114,0.0
11.136,8155.5,-42.26120335653172,0.0
11.144,8165.5,-25.84481944371919,0.0
11.152,8176.0,-8.029650477317091,0.0
11.16,8172.5,5.153706639533311,0.0
11.168,8170.5,11.0453050125127,0.0
11.176,8165.0,11.322731782304118,0.0
11.184,8164.0,8.442186372896913,0.0
11.192,8166.0,5.663002289701353,0.0
11.2,8173.0,4.999526833159052,0.0
11.208,8180.5,6.811523214638328,0.0
11.216,8187.5,9.812789520778551,0.0
11.224,8186.0,11.223653283656631,0.0
11.232,8165.0,5.759628924437493,0.0
11.24,8168.0,-2.0224286395789477,0.0
11.248,8170.5,-5.1944460663428345,0.0
11.256,8172.0,-5.46562930978439,0.0
11.264,8162.0,-6.533909722669705,0.0
11.272,8394.0,39.17971183375312,0.0
11.28,8184.0,64.76918362270112,0.0
11.288,8081.5,6.238974719594125,0.0
11.296,8170.5,-32.07965766987695,0.0
11.304,8190.0,-27.710939502222118,0.0
11.312,8199.0,-15.103407773751542,0.0
11.32,8204.5,-2.3951174508135864,0.0
11.328,8218.0,9.365388233227804,0.0
11.336,8245.0,23.17481189030036,0.0
11.344,8269.0,38.247449288372536,0.0
11.352,8284.0,49.33034957973382,0.0
11.36,8273.0,49.222898572286795,0.0
11.368,8221.5,28.9277782802003,0.0
11.376,8174.5,-7.58414623106637,1.0
11.384,8146.5,-43.34995392808469,0.0
11.392,8142.0,-64.56920573086882,0.0
11.4,8141.0,-68.45243706901056,0.0
11.408,8135.0,-61.80088201451167,0.0
11.416,8138.0,-49.11032261556352,0.0
11.424,8143.0,-32.52503553345309,0.0
11.432,8147.0,-15.94663738168856,0.0
11.44,8147.5,-2.805147883789232,0.0
11.448,8146.0,5.187700045568363,0.0
11.456,8136.0,6.778681094744115,0.0
11.464,8134.0,4.24024670679637,0.0
11.472,8141.0,3.117653465746571,0.0
11.48,8146.5,4.534840912908521,0.0
11.488,8139.0,4.276826174919279,0.0
11.496,8136.0,1.3306606995674883,0.0
11.504,8143.5,0.30591313537502174,0.0
11.512,8156.0,3.739515559156416,0.0
11.52,8139.0,4.283833964555697,0.0
11.528,8132.0,-0.9469566042016595,0.0
11.536,8125.5,-6.654928852561397,0.0
11.544,8127.5,-9.9410021741121,0.0
11.552,8131.0,-9.25355271746821,0.0
11.56,8269.5,21.566668624516524,0.0
11.568,8304.5,71.97012820698478,0.0
11.576,8013.0,38.46396874230254,0.0
11.584,8113.0,-26.306718250046742,0.0
11.592,8145.5,-33.55372753923098,0.0
11.6,8158.0,-23.558918646491065,0.0
11.608,8164.0,-10.29662975137444,0.0
11.616,8175.5,2.6830210685241127,0.0
11.624,8196.5,16.592164291959534,0.0
11.632,8224.5,32.31318110258485,0.0
11.64,8246.0,46.824395666697455,0.0
11.648,8245.5,52.597490273512676,0.0
11.656,8204.5,39.55880433953166,0.0
11.664,8150.0,6.339436583975385,0.0
11.672,8116.5,-32.24604869310883,0.0
11.68,8114.0,-57.531389151528856,0.0
11.688,8119.0,-63.251908086954245,0.0
11.696,8117.5,-56.33022481136027,0.0
11.704,8118.5,-43.79857617178595,0.0
11.712,8125.5,-28.112592108715262,0.0
11.72,8133.0,-11.611364251510167,0.0
11.728,8136.0,2.0530132294015857,0.0
11.736,8139.0,11.048647452053274,0.0
11.744,8133.0,14.080642862090144,0.0
11.752,8131.0,12.10456169626923,0.0
11.76,8134.0,9.305016947863123,0.0
11.768,8138.5,7.770876580436152,0.0
11.776,8143.5,7.626289714259201,0.0
11.784,8144.5,7.610350688391691,0.0
11.792,8159.5,9.71591857065414,0.0
11.8,8150.5,10.713904953902329,0.0
11.808,8141.0,5.900192753831561,0.0
11.816,8143.0,0.6265762481057209,0.0
11.824,8144.0,-1.9743257413808806,0.0
11.832,8144.0,-3.008862979522746,0.0
11.84,8143.5,-3.2666578660457617,0.0
11.848,8517.0,73.28035401746092,0.0
11.856,8055.0,89.35934106770105,0.0
11.864,8107.0,1.5571586819417007,1.0
11.872,8159.0,-29.357705139105747,0.0
11.88,8173.0,-29.705875610858357,0.0
11.888,8188.0,-19.48329777407662,0.0
11.896,8204.0,-4.150458627934768,0.0
11.904,8221.0,12.288542885092284,0.0
11.912,8246.0,28.728087750310124,0.0
11.92,8266.5,43.390577792895556,0.0
11.928,8281.0,52.633955329131595,0.0
11.936,8267.0,50.22269508626482,0.0
11.944,8215.0,27.698471972771813,0.0
11.952,8170.5,-9.536761277285677,0.0
11.96,8151.0,-43.18698401403071,0.0
11.968,8156.0,-59.50237568424063,0.0
11.976,8157.0,-58.9042039862868,0.0
11.984,8153.5,-50.130625692574995,0.0
11.992,8157.0,-37.34155138337269,0.0
12.0,8161.0,-22.58443778906053,0.0
12.008,8166.0,-8.594330375668278,0.0
12.016,8174.0,3.6383087283054465,0.0
12.024,8178.0,12.772670671377455,0.0
12.032,8167.5,14.910274272004017,0.0
12.04,8160.5,10.338611519465758,0.0
12.048,8162.0,4.943827632947205,0.0
12.056,8163.5,1.6167211857191433,0.0
12.064,8162.5,-0.49388768463018096,0.0
12.072,8164.5,-1.4629182641244824,0.0
12.08,8174.0,0.5352538045158326,0.0
12.088,8154.0,-0.5093399780482741,0.0
12.096,8150.0,-5.953108849492992,0.0
12.104,8153.0,-8.474284040829161,0.0
12.112,8155.0,-7.658997284509951,0.0
12.12,8143.5,-7.9565014806662475,0.0
12.128,8305.5,23.82112862419308,0.0
12.136,8271.0,65.05115750642221,0.0
12.144,8050.0,27.37314469932312,0.0
12.152,8152.5,-23.26930947294659,0.0
12.16,8173.5,-24.460119605427963,0.0
12.168,8183.5,-15.122594354781313,0.0
12.176,8197.5,-2.4044137288888123,0.0
12.184,8217.0,12.32571244185283,0.0
12.192,8238.5,27.54469507906083,0.0
12.2,8266.5,42.4819662265254,0.0
12.208,8286.0,54.579365397168885,0.0
12.216,8288.0,57.85133902514667,0.0
12.224,8254.5,44.579957026229295,0.0
12.232,8207.0,13.424069139508447,1.0
12.24,8180.0,-22.257130335627153,0.0
12.248,8172.0,-47.13501806139334,0.0
12.256,8176.0,-55.51873805094442,0.0
12.264,8177.0,-51.038056107469856,0.0
12.272,8185.5,-38.709358629946564,0.0
12.28,8191.5,-22.58702964135523,0.0
12.288,8198.0,-7.074090254029443,0.0
12.296,8203.5,5.624361997934784,0.0
12.304,8202.0,13.09868935638633,0.0
12.312,8203.0,15.430927905404133,0.0
12.32,8201.5,14.36854871723017,0.0
12.328,8202.5,11.459667420339201,0.0
12.336,8208.5,9.432044742256949,0.0
12.344,8229.0,12.216874563334613,0.0
12.352,8210.5,12.420197591711258,0.0
12.36,8199.0,4.5283692101297675,0.0
12.368,8203.5,-2.255505077101361,0.0
12.376,8202.5,-5.210463069140587,0.0
12.384,8206.0,-5.657300590500654,0.0
12.392,8272.5,9.23721168235079,0.0
12.4,8454.5,67.4140862018171,0.0
12.408,8075.5,51.351760306582264,0.0
12.416,8170.0,-24.056590252464503,0.0
12.424,8199.5,-39.672399208044,0.0
12.432,8207.5,-35.23147797689353,0.0
12.44,8211.5,-24.812006675435214,0.0
12.448,8225.0,-11.312891020224015,0.0
12.456,8249.0,6.046912444936197,0.0
12.464,8278.5,26.32678239370125,0.0
12.472,8308.0,46.382561723390154,0.0
12.48,8307.0,57.03394621502662,0.0
12.488,8283.0,49.578617391215175,0.0
12.496,8234.5,22.841034857576688,0.0
12.504,8204.0,-12.574262980867616,0.0
12.512,8192.5,-40.193039669596374,0.0
12.52,8190.5,-53.19106056770829,0.0
12.528,8193.5,-52.609375252753125,0.0
12.536,8199.0,-42.55260824830248,0.0
12.544,8204.0,-28.008416487349905,0.0
12.552,8208.0,-13.321891502742574,0.0
12.56,8209.0,-1.595044721169188,0.0
12.568,8209.0,5.786321563662568,0.0
12.576,8207.5,8.967923531401766,0.0
12.584,8209.5,9.592025042087926,0.0
12.592,8212.5,9.528357552536363,0.0
12.6,8224.5,11.110605596016512,0.0
12.608,8214.5,10.770447176959124,0.0
12.616,8198.0,3.522379284059298,0.0
12.624,8201.5,-3.9540611103050196,0.0
12.632,8201.5,-7.061080412845968,0.0
12.64,8201.5,-7.82802337028329,0.0
12.648,8219.0,-3.5195070048857815,0.0
12.656,8530.0,66.67496205756743,0.0
12.664,8073.5,68.35337415880554,0.0
12.672,8166.5,-15.280543654306939,1.0
12.68,8208.0,-34.94633312021415,0.0
12.688,8219.0,-30.552578724471005,0.0
12.696,8225.0,-19.848874044134845,0.0
12.704,8236.0,-7.036283138494355,0.0
12.712,8251.0,6.919667008430224,0.0
12.72,8272.0,21.478919397770824,0.0
12.728,8294.0,35.617714996823,0.0
12.736,8300.0,44.29973247906696,0.0
12.744,8277.5,39.346937369458146,0.0
12.752,8227.5,15.640592609366422,0.0
12.76,8188.0,-19.03552282720875,0.0
12.768,8174.5,-47.48485407138696,0.0
12.776,8174.5,-59.86853843230119,0.0
12.784,8175.5,-57.91115104034816,0.0
12.792,8178.5,-47.156338016134214,0.0
12.8,8182.0,-32.31854651429512,0.0
12.808,8186.0,-17.111371776823034,0.0
12.816,8189.0,-4.0934820025738645,0.0
12.824,8189.0,4.838799210408297,0.0
12.832,8185.5,8.67266363402291,0.0
12.84,8185.5,8.910073674127261,0.0
12.848,8193.0,9.231861423900455,0.0
12.856,8203.5,11.699921846141251,0.0
12.864,8195.5,11.896434520185494,0.0
12.872,8176.0,4.5907392308961334,0.0
12.88,8176.5,-4.30756283478695,0.0
12.888,8179.5,-8.201873751684843,0.0
12.896,8180.5,-8.44425863923243,0.0
12.904,8175.0,-8.226709090206214,0.0
12.912,8494.0,57.19752397437355,0.0
12.92,8069.5,65.66375082277978,0.0
12.928,8128.0,-14.058837955368062,0.0
12.936,8188.0,-34.865512071348576,0.0
12.944,8199.0,-27.379163152217643,0.0
12.952,8205.5,-15.225480015128142,0.0
12.96,8216.0,-2.256335347497952,0.0
12.968,8231.0,10.965353518928168,0.0
12.976,8253.5,24.78344240579736,0.0
12.984,8278.0,38.80011373571028,1.0
12.992,8284.5,47.54032038725063,0.0
13.0,8268.0,43.45858223731557,0.0
13.008,8218.0,20.869810179299975,0.0
13.016,8178.5,-13.938185710223024,0.0
13.024,8161.0,-44.05553060726811,0.0
13.032,8157.5,-59.477857589935184,0.0
13.04,8160.0,-59.78535191067226,0.0
13.048,8162.0,-49.98368481128932,0.0
13.056,8168.5,-34.87232144278414,0.0
13.064,8173.0,-18.40112144675618,0.0
13.072,8174.0,-4.746599181434249,0.0
13.08,8177.0,4.865506534881206,0.0
13.088,8176.0,10.221023437030453,0.0
13.096,8170.5,10.510684149284998,0.0
13.104,8173.0,8.47554276447977,0.0
13.112,8180.5,8.029979423717577,0.0
13.12,8199.5,11.963006180231787,0.0
13.128,8183.0,12.986010838864331,0.0
13.136,8164.5,4.471652733758219,0.0
13.144,8168.5,-4.204041900645279,0.0
13.152,8173.5,-6.8587436115460605,0.0
13.16,8175.5,-5.9587575682303395,0.0
13.168,8179.0,-3.399434790908117,0.0
13.176,8525.0,70.03267701267669,0.0
13.184,8043.0,75.05761430440407,0.0
13.192,8133.5,-13.33403904792658,0.0
13.2,8181.5,-35.29145524476053,0.0
13.208,8195.5,-30.259782701137055,0.0
13.216,8203.5,-18.201701491462472,0.0
13.224,8211.0,-5.144316576987649,0.0
13.232,8228.0,8.363108644244903,0.0
13.24,8254.5,23.970517524609477,0.0
13.248,8277.0,39.577240404726126,0.0
13.256,8281.0,48.22062563653026,0.0
13.264,8259.5,42.44622897057661,0.0
13.272,8209.0,17.88625162757512,0.0
13.28,8173.0,-17.02226665206672,0.0
13.288,8154.0,-46.322875602659906,0.0
13.296,8156.0,-60.10122673202113,0.0
13.304,8155.0,-58.9333646749119,0.0
13.312,8160.0,-48.49049597944281,0.0
13.32,8167.0,-32.511259210766866,0.0
13.328,8172.5,-15.5783139833095,0.0
13.336,8172.0,-2.180837691890929,0.0
13.344,8175.0,6.583800496065123,0.0
13.352,8171.0,10.564710379827375,0.0
13.36,8166.5,9.580722121757844,0.0
13.368,8171.5,7.648392940846179,0.0
13.376,8182.5,8.614843190274541,0.0
13.384,8191.5,11.96630484779621,0.0
13.392,8181.5,11.929819863663624,0.0
13.4,8164.0,4.481268531314299,0.0
13.408,8168.5,-3.2591163667293586,0.0
13.416,8167.0,-6.729744251643979,0.0
13.424,8169.5,-7.557658373906861,0.0
13.432,8162.5,-7.820808914172176,0.0
13.44,8447.5,50.0049203897056,0.0
13.448,8107.0,65.28292945707358,0.0
13.456,8098.5,-6.880331519527999,0.0
13.464,8173.0,-35.03057121872234,0.0
13.472,8186.0,-28.491206362930825,0.0
13.48,8195.0,-15.809615453635615,0.0
13.488,8208.0,-1.4182010510269265,0.0
13.496,8225.5,13.53904886117266,0.0
13.504,8247.0,28.299794333291175,0.0
13.512,8266.0,41.012875398335154,1.0
13.52,8278.0,48.646660130007604,0.0
13.528,8266.5,45.88801037221151,0.0
13.536,8217.5,24.939185572927272,0.0
13.544,8176.0,-9.720214378131914,0.0
13.552,8152.5,-42.02358071719823,0.0
13.56,8154.0,-59.25108558849888,0.0
13.568,8157.5,-59.4347355028699,0.0
13.576,8156.0,-50.12373667239649,0.0
13.584,8160.5,-36.404974727617855,0.0
13.592,8165.0,-20.933590237727913,0.0
13.6,8167.0,-7.28210422950383,0.0
13.608,8170.5,3.019069578869903,0.0
13.616,8169.5,9.164192263712494,0.0
13.624,8162.0,9.672450965658754,0.0
13.632,8161.5,6.872169994775049,0.0
13.64,8174.0,6.625796250068788,0.0
13.648,8190.0,11.298115797268565,0.0
13.656,8182.5,14.08494716938776,0.0
13.664,8160.0,7.468605677321875,0.0
13.672,8160.0,-2.1733850962968972,0.0
13.68,8162.0,-7.137530061334701,0.0
13.688,8166.5,-7.663228046880249,0.0
13.696,8160.5,-7.118740380712325,0.0
13.704,8410.0,44.02980451209942,0.0
13.712,8144.5,64.33471838079049,0.0
13.72,8082.0,-0.4215620820136792,0.0
13.728,8166.5,-34.15978766834246,0.0
13.736,8181.0,-28.70771003889945,0.0
13.744,8195.0,-15.308359132041005,0.0
13.752,8202.5,-0.6706094372416374,0.0
13.76,8219.5,13.093174102022886,0.0
13.768,8243.0,27.52215664154437,0.0
13.776,8265.0,41.178436829590055,0.0
13.784,8277.0,49.957829373369805,0.0
13.792,8266.0,47.78005186551104,0.0
13.8,8222.5,28.11370307997231,0.0
13.808,8178.5,-5.655634522344144,0.0
13.816,8152.0,-39.17251227166412,0.0
13.824,8154.5,-57.95854306784281,0.0
13.832,8156.0,-59.464168171720985,0.0
13.84,8153.5,-51.543423421808484,0.0
13.848,8160.0,-38.227313355556134,0.0
13.856,8167.5,-21.696264355394987,0.0
13.864,8171.5,-6.2809599828181035,0.0
13.872,8171.5,4.6050965771760275,0.0
13.88,8168.5,9.732003009869231,0.0
13.888,8162.0,9.347702663370455,0.0
13.896,8161.5,6.273100242794271,0.0
13.904,8175.0,6.159620114789732,0.0
13.912,8179.0,8.733901465120653,0.0
13.92,8187.0,11.38377455087516,0.0
13.928,8169.0,9.181982292229804,0.0
13.936,8167.0,2.401732599565321,0.0
13.944,8166.5,-2.4829789623813667,0.0
13.952,8165.5,-5.301791645159483,0.0
13.96,8168.0,-5.858567389253039,0.0
13.968,8230.0,7.877787488604099,0.0
13.976,8469.5,76.40377807562095,0.0
13.984,8050.0,68.57207297663763,0.0
13.992,8144.5,-12.853688056929968,0.0
14.0,8172.0,-34.13527750142043,0.0
14.008,8191.0,-32.04587510008537,0.0
14.016,8205.0,-19.209745844857252,0.0
14.024,8215.0,-3.8028361699825837,0.0
14.032,8230.5,11.095010681594886,0.0
14.04,8254.5,26.29332072990337,0.0
14.048,8276.5,40.693036379216664,0.0
14.056,8280.0,48.24913086029687,0.0
14.064,8246.0,39.1714797925863,0.0
14.072,8191.5,9.783490269971253,0.0
14.08,8161.5,-26.343230542100855,1.0
14.088,8158.0,-50.5586465941235,0.0
14.096,8163.0,-56.90786489805714,0.0
14.104,8158.5,-51.93272769459804,0.0
14.112,8155.0,-42.7512318438944,0.0
14.12,8162.5,-30.022515676707144,0.0
14.128,8171.0,-14.674192984686897,0.0
14.136,8176.0,-0.6143782569220093,0.0
14.144,8170.0,7.589419165305799,0.0
14.152,8162.5,8.532424781016744,0.0
14.16,8163.0,6.366394668368457,0.0
14.168,8163.0,4.222337865531472,0.0
14.176,8177.0,5.174401488569629,0.0
14.184,8186.0,9.651868962998151,0.0
14.192,8183.0,12.062303531266707,0.0
14.2,8165.0,7.368725658390531,0.0
14.208,8167.0,0.20695246704394776,0.0
14.216,8167.5,-3.549132767426272,0.0
14.224,8171.0,-4.415181665975979,0.0
14.232,8163.5,-5.075171198975795,0.0
14.24,8454.5,53.223251626797264,0.0
14.248,8112.0,69.11007715790652,0.0
14.256,8102.0,-3.988424415861118,0.0
14.264,8180.0,-32.72160946524082,0.0
14.272,8196.5,-25.44695761399589,0.0
14.28,8204.0,-12.3834615822268,0.0
14.288,8214.5,0.897162215586377,0.0
14.296,8231.5,14.233553521914928,0.0
14.304,8254.0,28.032581194684553,0.0
14.312,8275.5,40.932469489588584,0.0
14.32,8287.0,49.09752384246531,0.0
14.328,8271.5,45.66535609288076,0.0
14.336,8222.0,23.43261717110363,0.0
14.344,8179.5,-12.064125159332661,0.0
14.352,8167.5,-42.36217120525157,0.0
14.36,8164.0,-57.02444328867318,0.0
14.368,8162.0,-58.17376267125269,0.0
14.376,8167.5,-49.31858630095485,0.0
14.384,8174.5,-34.050609476682666,0.0
14.392,8175.5,-18.224272247122826,0.0
14.4,8181.0,-4.7736323605679445,0.0
14.408,8180.0,4.824146614257643,0.0
14.416,8178.0,9.155957235764845,0.0
14.424,8182.0,10.738233355473312,0.0
14.432,8184.0,11.27175086480338,0.0
14.44,8188.0,11.104146709166343,0.0
14.448,8202.5,13.101071428796331,0.0
14.456,8188.5,12.397922761270365,0.0
14.464,8166.0,2.645430282405414,0.0
14.472,8169.0,-7.507122221560849,0.0
14.48,8180.5,-9.41079474365415,0.0
14.488,8188.5,-5.125969897780124,0.0
14.496,8191.5,0.432535060153441,0.0
14.504,8534.5,74.34233351587795,0.0
14.512,8039.0,75.62541551041727,0.0
14.52,8126.5,-18.43621386165728,0.0
14.528,8173.0,-43.892648313254995,0.0
14.536,8190.0,-39.31979576744061,0.0
14.544,8205.0,-24.116446784595155,0.0
14.552,8211.5,-7.0764055475867735,0.0
14.56,8221.5,7.444876955881682,0.0
14.568,8243.0,21.33948423218976,1.0
14.576,8269.0,36.025703533401156,0.0
14.584,8269.0,44.56100896419207,0.0
14.592,8242.0,37.33667733495599,0.0
14.6,8196.0,12.489578359141433,0.0
14.608,8162.0,-20.442588455868872,0.0
14.616,8153.0,-45.60421535976138,0.0
14.624,8156.0,-54.796427638438445,0.0
14.632,8148.0,-52.94640572918115,0.0
14.64,8155.0,-44.029306586336816,0.0
14.648,8163.5,-28.91372350016627,0.0
14.656,8167.0,-13.139120926011401,0.0
14.664,8171.0,-0.2857449677940167,0.0
14.672,8169.5,7.8697947544642375,0.0
14.68,8168.0,10.88691125240166,0.0
14.688,8169.0,10.918494313896645,0.0
14.696,8188.0,13.367816356274261,0.0
14.704,8207.5,20.655204363486746,0.0
14.712,8190.0,22.241982480931938,0.0
14.72,8177.0,13.577078225742753,0.0
14.728,8177.5,3.840462514752062,0.0
14.736,8177.0,-2.5000154129659222,0.0
14.744,8180.0,-5.359979700285066,0.0
14.752,8219.0,2.341912944677233,0.0
14.76,8460.5,63.84811912867099,0.0
14.768,8049.5,55.9136698584382,0.0
14.776,8143.0,-22.121434400545468,0.0
14.784,8181.5,-37.94968703810673,0.0
14.792,8191.0,-31.750429494039736,0.0
14.8,8203.0,-18.877991203522924,0.0
14.808,8216.0,-3.2956055202200787,0.0
14.816,8231.5,12.242017872765928,0.0
14.824,8252.0,26.929737999027793,0.0
14.832,8269.5,39.29659664586711,0.0
14.84,8280.0,46.37293165421738,0.0
14.848,8262.5,42.09707494162831,0.0
14.856,8215.5,20.00852371082283,0.0
14.864,8177.5,-13.453707502009138,0.0
14.872,8161.5,-42.23571952987686,0.0
14.88,8163.5,-55.714131924462436,0.0
14.888,8168.0,-53.910367416210875,0.0
14.896,8169.5,-43.444371084111026,0.0
14.904,8168.5,-30.565968244638725,0.0
14.912,8162.5,-19.745646236383436,0.0
14.92,8164.0,-11.272206311824448,0.0
14.928,8167.5,-3.5305242602132694,0.0
14.936,8174.0,3.626171135463437,0.0
14.944,8174.0,8.636814006341183,0.0
14.952,8179.5,11.41431152552832,0.0
14.96,8161.0,8.670463907712701,0.0
14.968,8164.0,2.5665495034045307,0.0
14.976,8170.0,0.4062928074042702,0.0
14.984,8168.0,-0.11567492927702006,0.0
14.992,8157.0,-3.062738819493461,0.0
15.0,8318.5,26.405993867540246,0.0
15.008,8254.0,59.6474734008832,0.0
15.016,8066.0,18.67721044431346,0.0
15.024,8161.5,-27.282047331666035,0.0
15.032,8173.0,-28.465808013435208,0.0
15.04,8181.0,-20.866263565027793,0.0
15.048,8199.5,-7.794361812081206,0.0
15.056,8220.5,9.18793914536991,0.0
15.064,8244.0,26.929630591917885,0.0
15.072,8264.0,42.22627366063284,0.0
15.08,8276.5,51.51045843958832,0.0
15.088,8268.5,50.11087021961066,0.0
15.096,8235.0,33.20727243767442,0.0
15.104,8183.5,0.8103280485358937,1.0
15.112,8150.0,-35.83759681594597,0.0
15.12,8137.0,-61.577704807609734,0.0
15.128,8135.0,-70.5289677236849,0.0
15.136,8143.5,-63.80175050364255,0.0
15.144,8158.5,-45.349117500624516,0.0
15.152,8174.0,-21.329624132372373,0.0
15.16,8172.0,-1.132651442796714,0.0
15.168,8171.0,10.370625764125407,0.0
15.176,8166.0,14.37553071895718,0.0
15.184,8164.0,13.134418998487263,0.0
15.192,8160.0,9.18328967538082,0.0
15.2,8166.0,5.862904846640504,0.0
15.208,8145.5,0.047987203174443493,0.0
15.216,8149.0,-6.871334944216187,0.0
15.224,8163.0,-6.346370746578032,0.0
15.232,8171.0,-0.5791049365550407,0.0
15.24,8169.0,4.145250645207398,0.0
15.248,8309.0,34.50427157496006,0.0
15.256,8282.0,70.31328480788284,0.0
15.264,8033.5,24.545475186594558,0.0
15.272,8136.0,-36.070836078553384,0.0
15.28,8168.0,-38.97199724968414,0.0
15.288,8189.5,-23.849030295443754,0.0
15.296,8203.0,-4.1390092257793185,0.0
15.304,8216.0,13.558959238133639,0.0
15.312,8236.0,28.711737549424697,0.0
15.32,8256.5,41.59421073532371,0.0
15.328,8267.5,49.342186801296975,0.0
15.336,8266.0,48.38432697605572,0.0
15.344,8239.0,34.65964168936398,0.0
15.352,8193.5,6.476264891353821,0.0
15.36,8158.0,-27.721582652120787,0.0
15.368,8139.0,-54.87760909412259,0.0
15.376,8143.0,-65.68205744200009,0.0
15.384,8155.0,-58.844802009383784,0.0
15.392,8167.0,-40.976474077640205,0.0
15.4,8167.5,-21.64289695795719,0.0
15.408,8171.0,-6.1105293853681815,0.0
15.416,8175.5,5.6361221650777225,0.0
15.424,8173.0,12.137171529040188,0.0
15.432,8165.5,12.098734697685813,0.0
15.44,8169.0,9.424488934544343,0.0
15.448,8182.5,9.88719464792257,0.0
15.456,8186.0,12.134936645252537,0.0
15.464,8170.0,9.07068762328754,0.0
15.472,8168.5,2.308008068868503,0.0
15.48,8163.0,-3.4714565065085026,0.0
15.488,8165.0,-7.0781614317829735,0.0
15.496,8162.5,-8.240178370786907,0.0
15.504,8429.0,46.25733264618293,0.0
15.512,8138.0,66.4685429953488,0.0
15.52,8077.0,-3.569886355735207,1.0
15.528,8158.5,-40.26109420183661,0.0
15.536,8171.0,-36.65187944695822,0.0
15.544,8189.0,-22.72936310632963,0.0
15.552,8199.5,-5.226996670273593,0.0
15.56,8226.0,13.475478876631087,0.0
15.568,8254.0,33.62744535139018,0.0
15.576,8278.5,51.17276074190636,0.0
15.584,8272.5,57.57020204347873,0.0
15.592,8252.0,47.21134428039204,0.0
15.6,8212.5,21.669286368221037,0.0
15.608,8175.0,-12.45272762974264,0.0
15.616,8157.0,-42.08314570914308,0.0
15.624,8152.0,-57.92514345474888,0.0
15.632,8155.0,-58.92054098743074,0.0
15.64,8161.5,-48.635310135747886,0.0
15.648,8166.0,-32.931645416899755,0.0
15.656,8164.0,-18.14094577753849,0.0
15.664,8168.0,-6.234767240155861,0.0
15.672,8174.5,3.8969500789805807,0.0
15.68,8175.5,10.830263551101098,0.0
15.688,8168.5,12.062812973388645,0.0
15.696,8161.5,8.10266429970443,0.0
15.704,8166.5,4.123577706784545,0.0
15.712,8183.0,5.537637125229367,0.0
15.72,8193.0,10.948310226506237,0.0
15.728,8171.0,10.036670428549314,0.0
15.736,8162.5,1.7446753092838208,0.0
15.744,8158.0,-6.07962102007923,0.0
15.752,8161.5,-9.989455487145733,0.0
15.76,8160.0,-10.378604134504712,0.0
15.768,8401.0,39.89482030726458,0.0
15.776,8168.5,65.31447199191257,0.0
15.784,8071.0,3.025895180765019,0.0
15.792,8161.0,-35.802484064091914,0.0
15.8,8179.5,-31.17080492270361,0.0
15.808,8193.5,-17.065998774514355,0.0
15.816,8203.0,-1.335963448356324,0.0
15.824,8218.5,13.276821946273458,0.0
15.832,8241.0,27.669307541771786,0.0
15.84,8269.5,42.405348217576375,1.0
15.848,8275.5,51.73944549764042,0.0
15.856,8266.5,48.80240212543754,0.0
15.864,8224.0,29.144926865664956,0.0
15.872,8178.0,-4.979809470374448,0.0
15.88,8151.0,-39.32008456061885,0.0
15.888,8148.0,-59.79650243169817,0.0
15.896,8154.0,-62.22746415533766,0.0
15.904,8159.0,-51.98340377763543,0.0
15.912,8166.0,-35.59217586968634,0.0
15.92,8165.5,-19.17428137646766,0.0
15.928,8166.0,-6.557718259963394,0.0
15.936,8165.5,1.8979238595184142,0.0
15.944,8167.0,6.8151298341101665,0.0
15.952,8170.5,9.711407337431865,0.0
15.96,8168.5,10.258348333863523,0.0
15.968,8163.5,7.59641587582405,0.0
15.976,8170.0,5.176898334196721,0.0
15.984,8188.5,8.068641363564439,0.0
15.992,8187.5,12.130776580359907,0.0
16.0,8166.5,8.19932960126539,0.0
16.008,8163.0,-0.37420700425059295,0.0
16.016,8165.5,-5.592149043929794,0.0
16.024,8168.0,-6.80869144055896,0.0
16.032,8158.5,-7.9259803898482915,0.0
16.04,8468.0,53.90517623877258,0.0
16.048,8104.0,71.1649644236652,0.0
16.056,8103.0,-3.986874768168491,0.0
16.064,8169.5,-34.445387305371014,0.0
16.072,8182.5,-30.994258583425562,0.0
16.08,8195.5,-18.942349873884723,0.0
16.088,8207.5,-3.835466497963125,0.0
16.096,8222.0,11.094193262210183,0.0
16.104,8245.5,26.00499010619228,0.0
16.112,8268.0,40.27838524631875,0.0
16.12,8275.5,48.741993701939464,0.0
16.128,8265.5,45.84674415876566,0.0
16.136,8225.5,26.96854957180335,0.0
16.144,8178.0,-6.161056148200714,1.0
16.152,8152.0,-39.83587210567475,0.0
16.16,8147.5,-59.94268947494561,0.0
16.168,8152.0,-62.74580886276908,0.0
16.176,8154.5,-53.46045803541324,0.0
16.184,8161.5,-37.92302257591291,0.0
16.192,8171.0,-19.61366741339384,0.0
16.2,8177.5,-2.5430682770454496,0.0
16.208,8175.5,8.857368786778352,0.0
16.216,8169.5,12.622280221375604,0.0
16.224,8165.0,10.789997313517915,0.0
16.232,8168.5,7.866196446053664,0.0
16.24,8168.5,5.659510088615207,0.0
16.248,8175.5,4.926536653569656,0.0
16.256,8194.5,9.057957697352776,0.0
16.264,8189.0,12.886041117368677,0.0
16.272,8166.5,7.475864327160707,0.0
16.28,8166.0,-1.5560535394065482,0.0
16.288,8172.0,-5.5379442586099685,0.0
16.296,8170.5,-6.133856439473675,0.0
16.304,8174.0,-5.147711235188353,0.0
16.312,8526.0,68.84489023572996,0.0
16.32,8062.0,79.28460247129442,0.0
16.328,8129.5,-7.567127326789887,0.0
16.336,8172.0,-35.31074065142411,0.0
16.344,8186.5,-34.71959577627035,0.0
16.352,8206.5,-22.057714701850728,0.0
16.36,8220.0,-4.381211588347242,0.0
16.368,8235.0,12.559460094345013,0.0
16.376,8256.0,28.028812678360964,0.0
16.384,8278.0,41.71279889933385,0.0
16.392,8286.0,49.61035785100853,0.0
16.4,8273.0,45.73794124892902,0.0
16.408,8225.0,24.051038412368598,0.0
16.416,8177.0,-12.0338606140308,0.0
16.424,8153.5,-46.15744403570602,0.0
16.432,8152.0,-64.44758228872615,0.0
16.44,8154.0,-65.39117530608178,0.0
16.448,8166.0,-53.17492910143096,0.0
16.456,8172.0,-34.21089949774637,0.0
16.464,8169.5,-17.093774597935635,0.0
16.472,8174.5,-3.8683650958025737,0.0
16.48,8175.5,5.765415034805983,0.0
16.488,8174.0,10.486561338451565,0.0
16.496,8165.5,9.645744759399122,0.0
16.504,8166.0,6.051671867513733,0.0
16.512,8182.0,6.379601799543707,0.0
16.52,8192.0,10.918137518266121,0.0
16.528,8191.0,13.785608959089814,0.0
16.536,8168.5,8.59029643457552,0.0
16.544,8164.5,-1.198565006188801,0.0
16.552,8167.0,-7.112416158618316,0.0
16.56,8172.5,-7.897125145333803,0.0
16.568,8169.5,-6.6531513001277744,0.0
16.576,8389.5,39.42450792165232,0.0
16.584,8146.5,55.99861991585908,0.0
16.592,8080.5,-5.818484041020611,0.0
16.6,8177.0,-35.263691409319335,0.0
16.608,8188.5,-25.266657627473933,0.0
16.616,8192.0,-12.459192434892884,0.0
16.624,8198.5,-0.9529097565341544,0.0
16.632,8219.5,11.614631885174958,0.0
16.64,8252.5,28.318384518666562,0.0
16.648,8275.0,45.24225068867645,0.0
16.656,8282.0,54.41861233774421,0.0
16.664,8273.5,51.28854229343324,0.0
16.672,8231.5,31.34428400774641,0.0
16.68,8174.5,-5.428662494970467,1.0
16.688,8148.0,-43.412191950547594,0.0
16.696,8152.0,-63.89055648337353,0.0
16.704,8161.5,-63.55680388612177,0.0
16.712,8162.0,-51.68045324724312,0.0
16.72,8162.0,-36.719281925557425,0.0
16.728,8162.5,-22.202042903830034,0.0
16.736,8168.0,-9.024674968296267,0.0
16.744,8173.0,2.2818046074066842,0.0
16.752,8176.0,10.256896071311985,0.0
16.76,8175.5,13.929037564680584,0.0
16.768,8169.5,12.6609741262032,0.0
16.776,8175.5,9.991490378232811,0.0
16.784,8175.5,8.123739160781042,0.0
16.792,8182.0,7.115454782805955,0.0
16.8,8165.0,3.2952114766328577,0.0
16.808,8162.0,-3.5496835573817407,0.0
16.816,8163.0,-7.468170918711849,0.0
16.824,8165.0,-8.040392549658918,0.0
16.832,8161.0,-7.568386712360507,0.0
16.84,8311.5,23.788284280491325,0.0
16.848,8269.5,60.892622566350155,0.0
16.856,8061.0,22.426670245739842,0.0
16.864,8163.5,-25.378065839334113,0.0
16.872,8181.0,-25.285994702571543,0.0
16.88,8191.5,-15.67746564423328,0.0
16.888,8205.5,-2.612738364210145,0.0
16.896,8221.5,11.63886651508551,0.0
16.904,8241.0,25.555331865435846,0.0
16.912,8265.0,38.79810243556017,0.0
16.92,8280.5,48.81748739700993,0.0
16.928,8278.5,50.099688968073224,0.0
16.936,8239.0,34.78379245706901,0.0
16.944,8186.0,1.5545367564727712,0.0
16.952,8162.0,-34.06403987542376,0.0
16.96,8161.0,-55.07181746317724,0.0
16.968,8162.0,-59.146244929072736,0.0
16.976,8162.0,-52.38428492871117,0.0
16.984,8162.0,-40.443197020639445,0.0
16.992,8167.5,-26.125936745768968,0.0
17.0,8168.0,-12.471927289432642,0.0
17.008,8170.5,-1.8931747449400973,0.0
17.016,8176.0,6.284516301505846,0.0
17.024,8170.5,10.167982454208186,0.0
17.032,8161.0,7.85855941257455,0.0
17.04,8160.5,3.2583118248339815,0.0
17.048,8170.0,1.8824418720801077,0.0
17.056,8188.5,6.503777323531722,0.0
17.064,8178.5,9.98733508793589,0.0
17.072,8163.0,5.323636502592308,0.0
17.08,8163.5,-1.306105647894583,0.0
17.088,8163.0,-5.028903193093811,0.0
17.096,8166.5,-5.855215968427274,0.0
17.104,8182.5,-1.472310054953823,0.0
17.112,8539.0,77.4450099111632,0.0
17.12,8044.0,84.07934104787091,0.0
17.128,8134.0,-7.486380827847142,1.0
17.136,8169.0,-34.96557105352895,0.0
17.144,8183.5,-35.802634761075524,0.0
17.152,8206.0,-23.310440333452107,0.0
17.16,8217.0,-5.544361630856201,0.0
17.168,8229.0,10.501977649553055,0.0
17.176,8248.5,24.83500843997149,0.0
17.184,8275.0,38.94409671897051,0.0
17.192,8285.0,48.84078361573188,0.0
17.2,8261.5,44.530767515776915,0.0
17.208,8204.0,18.682074358381215,0.0
17.216,8162.0,-19.765155164680436,0.0
17.224,8151.5,-50.231945775840586,0.0
17.232,8155.5,-61.96215498268657,0.0
17.24,8155.5,-58.68798400805349,0.0
17.248,8155.0,-47.9560040060137,0.0
17.256,8159.0,-33.62337958584612,0.0
17.264,8164.0,-18.21068049599785,0.0
17.272,8166.0,-4.904575781094309,0.0
17.28,8166.5,4.218976251035656,0.0
17.288,8167.5,9.28143451997039,0.0
17.296,8161.5,9.846684846366543,0.0
17.304,8158.5,6.8493918910455704,0.0
17.312,8168.5,5.46845489142197,0.0
17.32,8183.0,8.828058913521318,0.0
17.328,8195.5,14.992607516617682,0.0
17.336,8176.0,14.935149363167966,0.0
17.344,8155.5,4.464790803860524,0.0
17.352,8160.5,-5.570939749227591,0.0
17.36,8172.5,-7.188320017894966,0.0
17.368,8174.0,-4.296940752470846,0.0
17.376,8176.0,-1.2204639996834885,0.0
17.384,8535.0,74.53659360049369,0.0
17.392,8047.5,81.78590926910488,0.0
17.4,8134.5,-8.1490467308397,0.0
17.408,8177.5,-33.541832611917016,0.0
17.416,8186.0,-32.95225413391631,0.0
17.424,8196.5,-23.725912054592982,0.0
17.432,8206.5,-10.484173345665113,0.0
17.44,8231.0,5.984871963665,0.0
17.448,8259.5,25.64520466468025,1.0
17.456,8277.0,42.78201520021935,0.0
17.464,8277.0,50.0057026437687,0.0
17.472,8254.5,42.09955618045092,0.0
17.48,8209.5,17.250778917968773,0.0
17.488,8172.0,-16.914986697176346,0.0
17.496,8158.0,-45.07754496887492,0.0
17.504,8154.5,-58.473812038386086,0.0
17.512,8151.0,-58.96112796928628,0.0
17.52,8153.5,-50.51442368556968,0.0
17.528,8163.0,-35.40886392950392,0.0
17.536,8170.0,-17.7360954726023,0.0
17.544,8173.5,-2.4502892662219438,0.0
17.552,8173.0,7.574106571623815,0.0
17.56,8168.5,11.332689665387988,0.0
17.568,8164.5,10.100782985728756,0.0
17.576,8163.0,6.717182947704032,0.0
17.584,8168.5,4.5149265396698866,0.0
17.592,8184.0,6.818316885682407,0.0
17.6,8199.0,13.377975960420372,0.0
17.608,8175.0,13.390381042097488,0.0
17.616,8159.5,3.297695008121309,0.0
17.624,8159.5,-6.337735137700292,0.0
17.632,8168.5,-9.236529768107403,0.0
17.64,8169.0,-7.609647366758509,0.0
17.648,8323.0,26.07067791877057,0.0
17.656,8266.0,61.85372422735554,0.0
17.664,8063.0,20.519789822670873,0.0
17.672,8165.0,-27.6704564373199,0.0
17.68,8177.0,-28.684626855429542,0.0
17.688,8185.0,-20.849461073261637,0.0
17.696,8202.0,-7.947211944504716,0.0
17.704,8220.5,8.140727317726714,0.0
17.712,8242.5,24.69506110877228,0.0
17.72,8264.5,39.73044033897463,0.0
17.728,8279.5,50.15786561496657,0.0
17.736,8275.0,50.86526192349493,0.0
17.744,8236.0,34.684754982790764,0.0
17.752,8182.5,0.9591853495537634,1.0
17.76,8158.5,-34.964798635531,0.0
17.768,8155.5,-56.42522961695295,0.0
17.776,8152.0,-61.89011765409646,0.0
17.784,8151.0,-56.65812478457019,0.0
17.792,8160.5,-43.23733534052076,0.0
17.8,8165.5,-25.78265024818029,0.0
17.808,8170.5,-9.50801591495815,0.0
17.816,8171.0,2.681957973296676,0.0
17.824,8170.5,9.484471949245744,0.0
17.832,8164.0,10.639403832687776,0.0
17.84,8165.5,8.687865320093124,0.0
17.848,8167.0,6.829448204452547,0.0
17.856,8174.0,6.431515433607046,0.0
17.864,8184.5,8.796349420269053,0.0
17.872,8189.5,12.027940718392074,0.0
17.88,8167.5,8.642406687025414,0.0
17.888,8160.5,-0.5948073265969924,0.0
17.896,8161.0,-7.295456012225259,0.0
17.904,8173.0,-7.598371051295999,0.0
17.912,8167.5,-5.297556409529079,0.0
17.92,8369.0,36.909275220582686,0.0
17.928,8201.5,63.22067210960108,0.0
17.936,8067.0,7.4973397988603665,0.0
17.944,8168.0,-33.43810988640257,0.0
17.952,8186.5,-28.163706695612063,0.0
17.96,8200.0,-14.236856601777845,0.0
17.968,8210.0,0.9590044601259251,0.0
17.976,8224.0,14.703635027700102,0.0
17.984,8245.0,27.753471112325087,0.0
17.992,8273.0,41.274109241573115,0.0
18.0,8283.0,50.77598152567725,0.0
18.008,8277.5,49.61648870689146,0.0
18.016,8233.5,31.295430427742986,0.0
18.024,8184.5,-3.2843465419437052,0.0
18.032,8161.5,-37.94648328074595,0.0
18.04,8160.0,-57.69784923380212,0.0
18.048,8159.5,-61.039701166140276,0.0
18.056,8158.5,-54.06817894881124,0.0
18.064,8164.0,-40.828504372515226,0.0
18.072,8165.5,-25.378393703948177,0.0
18.08,8169.0,-11.37205556544086,0.0
18.088,8173.5,0.26981416667717895,0.0
18.096,8175.5,8.44184507899854,0.0
18.104,8168.0,10.871232797421953,0.0
18.112,8160.5,7.595249114123362,0.0
18.12,8164.5,3.791255463547259,0.0
18.128,8178.0,4.542045236865988,0.0
18.136,8193.5,10.222157305949622,0.0
18.144,8192.5,14.993928467195246,0.0
18.152,8167.5,10.23086809736401,0.0
18.16,8165.0,0.24460901544762237,0.0
18.168,8170.5,-5.08543128332235,0.0
18.176,8173.5,-5.73003991405858,0.0
18.184,8162.0,-6.979075716789339,0.0
18.192,8468.0,53.50694958105419,0.0
18.2,8101.0,68.70364981832472,0.0
18.208,8102.5,-7.397282250447461,0.0
18.216,8172.5,-36.6742237756323,0.0
18.224,8183.0,-31.982097163917842,0.0
18.232,8195.5,-19.659398832450734,0.0
18.24,8213.5,-3.160003301108418,0.0
18.248,8231.0,14.329485077332947,0.0
18.256,8251.0,30.161501507024923,0.0
18.264,8272.0,43.32802408028397,1.0
18.272,8279.0,50.26606703249399,0.0
18.28,8269.0,46.13538264723206,0.0
18.288,8222.0,25.05268715950774,0.0
18.296,8175.5,-10.315994349135053,0.0
18.304,8157.0,-42.948501356157976,0.0
18.312,8149.0,-61.1497842990766,0.0
18.32,8154.5,-63.15371600612252,0.0
18.328,8159.0,-52.72098089134238,0.0
18.336,8162.0,-37.025699367876996,0.0
18.344,8166.5,-20.597746511924015,0.0
18.352,8171.0,-5.92071336121262,0.0
18.36,8172.0,4.780564411738624,0.0
18.368,8171.0,10.384492452452378,0.0
18.376,8165.0,10.694128858133126,0.0
18.384,8164.0,7.8257853851412165,0.0
18.392,8167.5,5.453722408891281,0.0
18.4,8178.5,6.186401537627944,0.0
18.408,8198.0,11.912950413504632,0.0
18.416,8185.0,14.821433438995427,0.0
18.424,8163.0,7.143872401109547,0.0
18.432,8162.0,-3.178638876876448,0.0
18.44,8169.0,-7.5756309104690445,0.0
18.448,8172.5,-6.882291030325632,0.0
18.456,8196.0,0.08730784298404615,0.0
18.464,8536.0,78.45922986018923,0.0
18.472,8046.0,82.26778635401138,0.0
18.48,8137.0,-9.46863596691037,0.0
18.488,8177.0,-35.52243993209231,0.0
18.496,8188.0,-35.12565342364496,0.0
18.504,8200.5,-24.764461501947153,0.0
18.512,8214.0,-9.570463578793579,0.0
18.52,8235.5,8.016765837878893,0.0
18.528,8263.5,27.315278796753546,0.0
18.536,8278.5,43.37200430929056,0.0
18.544,8278.5,49.35672987725911,0.0
18.552,8259.5,41.53130821986156,0.0
18.56,8211.5,16.91857498479203,0.0
18.568,8168.0,-18.895935962956628,1.0
18.576,8153.5,-49.061179573415075,0.0
18.584,8155.5,-62.016361302371934,0.0
18.592,8156.5,-59.66271956423793,0.0
18.6,8159.5,-48.408003910146135,0.0
18.608,8159.0,-33.90200679080294,0.0
18.616,8163.5,-19.366036320946023,0.0
18.624,8170.0,-5.586058589057075,0.0
18.632,8178.5,6.474822305394127,0.0
18.64,8172.0,13.034549544517404,0.0
18.648,8161.0,11.3625054302222,0.0
18.656,8161.5,6.505812702172534,0.0
18.664,8177.0,5.91602782152745,0.0
18.672,8196.0,11.718668806380947,0.0
18.68,8192.0,16.438164971064907,0.0
18.688,8167.0,10.812323480555278,0.0
18.696,8161.0,-0.4873913180838372,0.0
18.704,8163.0,-7.913333041753049,0.0
18.712,8171.5,-8.960109385632677,0.0
18.72,8167.0,-7.403509549224509,0.0
18.728,8489.0,59.50503217792925,0.0
18.736,8096.5,75.6497600925918,0.0
18.744,8104.5,-4.825337938191069,0.0
18.752,8175.0,-35.64898534756571,0.0
18.76,8187.5,-31.516264232178173,0.0
18.768,8199.5,-19.288571923449354,0.0
18.776,8207.5,-5.046743188929895,0.0
18.784,8223.5,9.044216465318186,0.0
18.792,8250.5,24.791312250091323,0.0
18.8,8277.0,41.275557275927895,0.0
18.808,8282.0,51.20192689581904,0.0
18.816,8269.0,47.675142452090085,0.0
18.824,8219.5,25.592492099618994,0.0
18.832,8175.5,-10.449401868002269,0.0
18.84,8155.0,-43.35766904672437,0.0
18.848,8151.5,-61.14924938832792,0.0
18.856,8152.0,-63.013115163325665,0.0
18.864,8158.0,-53.233914919642075,0.0
18.872,8164.0,-36.92801227908171,0.0
18.88,8164.5,-20.35805044115773,0.0
18.888,8168.0,-6.654878287700058,0.0
18.896,8171.0,3.7860685898340307,0.0
18.904,8170.5,9.897566734034854,0.0
18.912,8165.5,10.8876541849138,0.0
18.92,8161.5,7.983785965849165,0.0
18.928,8167.5,5.46460854819702,0.0
18.936,8174.5,5.802182735158112,0.0
18.944,8192.0,10.127514359607403,0.0
18.952,8181.0,12.47801299276648,0.0
18.96,8164.5,6.358007287546798,0.0
18.968,8164.5,-1.5962665493823351,0.0
18.976,8166.0,-5.751946896298023,0.0
18.984,8170.5,-6.111741414183143,0.0
18.992,8206.5,2.8762722234162084,0.0
19.0,8530.0,81.2018381879252,0.0
19.008,8049.0,83.03491181156846,0.0
19.016,8140.0,-8.147405677401593,0.0
19.024,8172.0,-35.70823365986098,0.0
19.032,8184.5,-37.502485506561925,0.0
19.04,8198.0,-27.565962196559894,0.0
19.048,8211.5,-11.99407119321586,0.0
19.056,8232.5,6.081940677267312,0.0
19.064,8257.5,25.247808220470688,0.0
19.072,8279.0,42.25459328060515,1.0
19.08,8280.5,50.605001794434884,0.0
19.088,8256.0,43.172185077366066,0.0
19.096,8206.5,17.11275568701467,0.0
19.104,8169.0,-18.667415359055667,0.0
19.112,8151.0,-48.33624476841169,0.0
19.12,8149.0,-62.64001281266337,0.0
19.128,8151.5,-61.500121928652334,0.0
19.136,8156.5,-49.96959175747497,0.0
19.144,8161.0,-33.633617467520025,0.0
19.152,8162.0,-17.749641268749656,0.0
19.16,8171.0,-3.621820564390873,0.0
19.168,8178.0,8.551273245457423,0.0
19.176,8175.5,15.373300606658859,0.0
19.184,8165.0,14.421151795080505,0.0
19.192,8163.5,9.220025834228636,0.0
19.2,8172.0,6.176329540876395,0.0
19.208,8186.5,8.13880706920395,0.0
19.216,8187.5,11.232136602897299,0.0
19.224,8168.5,7.681187264845903,0.0
19.232,8162.5,-0.6909175811160821,0.0
19.24,8159.0,-7.478273155090619,0.0
19.248,8165.0,-9.84775751125153,0.0
19.256,8162.0,-9.143127903816094,0.0
19.264,8458.0,52.51993651521775,0.0
19.272,8114.5,71.32043970730842,0.0
19.28,8094.5,-2.637343820989827,0.0
19.288,8166.5,-35.35235975609476,0.0
19.296,8179.0,-32.07671157314144,0.0
19.304,8198.0,-18.840814581467157,0.0
19.312,8216.5,-0.4953561324614384,0.0
19.32,8234.0,17.784049261360906,0.0
19.328,8255.0,33.76376942984189,0.0
19.336,8274.5,46.36934700219899,0.0
19.344,8286.0,53.12745002541874,0.0
19.352,8278.5,49.88663579692161,0.0
19.36,8234.0,29.782977919064933,0.0
19.368,8181.0,-6.541073571348079,0.0
19.376,8159.0,-42.35391560065318,0.0
19.384,8158.5,-61.70898635415756,0.0
19.392,8159.0,-63.79973257742222,0.0
19.4,8156.0,-55.8741559907171,0.0
19.408,8163.0,-41.898598209024385,0.0
19.416,8172.0,-24.01234115082366,0.0
19.424,8179.0,-6.525070677633039,0.0
19.432,8182.5,6.95130863905888,0.0
19.44,8180.5,14.173767946977023,0.0
19.448,8171.0,13.946748474843162,0.0
19.456,8165.5,8.633485479943602,0.0
19.464,8171.5,4.284442612495241,0.0
19.472,8186.5,5.353171069473774,0.0
19.48,8198.5,10.689733652995073,0.0
19.488,8175.0,9.875618689811517,0.0
19.496,8170.0,2.0743185902142613,0.0
19.504,8169.0,-4.079653555699224,0.0
19.512,8173.5,-6.385526019179451,0.0
19.52,8173.5,-5.8617403673833905,0.0
19.528,8298.5,20.87433766969184,0.0
19.536,8323.5,64.16633780836173,0.0
19.544,8058.5,31.00858328977938,0.0
19.552,8159.0,-26.9096109016848,0.0
19.56,8182.0,-31.851369021936534,0.0
19.568,8195.5,-22.48789303984313,0.0
19.576,8211.0,-7.616194855902677,0.0
19.584,8224.5,8.258331874994838,0.0
19.592,8242.5,22.829916189115238,0.0
19.6,8265.0,36.26042574738062,0.0
19.608,8282.0,46.77558097623387,0.0
19.616,8279.5,48.86485820538746,0.0
19.624,8249.0,35.950036833498416,0.0
19.632,8193.5,5.2919119565133315,1.0
19.64,8159.5,-31.92649264315014,0.0
19.648,8156.0,-56.75824354820861,0.0
19.656,8160.0,-62.73633001743019,0.0
19.664,8157.5,-56.453741126248815,0.0
19.672,8160.0,-44.179174908595996,0.0
19.68,8167.0,-28.281074468686256,0.0
19.688,8177.0,-11.118105360714935,0.0
19.696,8176.5,2.6585401106406152,0.0
19.704,8166.5,8.257800814285929,0.0
19.712,8164.0,7.763453985558272,0.0
19.72,8163.5,5.681164353206668,0.0
19.728,8171.0,5.018475894189805,0.0
19.736,8178.5,6.930215215541011,0.0
19.744,8198.0,12.52623452732405,0.0
19.752,8179.5,14.140886939612756,0.0
19.76,8160.0,5.188433019306331,0.0
19.768,8156.0,-5.693730528449123,0.0
19.776,8169.0,-9.427479937647377,0.0
19.784,8170.0,-7.34608440704028,0.0
19.792,8266.5,14.917932953055015,0.0
19.8,8335.0,59.53273740580221,0.0
19.808,8043.5,31.332909704494114,0.0
19.816,8158.0,-26.256106757276484,0.0
19.824,8172.0,-30.080764531278874,0.0
19.832,8184.0,-22.470240441283067,0.0
19.84,8201.5,-8.535761046565085,0.0
19.848,8211.5,6.617461889613423,0.0
19.856,8214.5,17.231678336870573,0.0
19.864,8241.0,26.923256932532468,0.0
19.872,8272.0,40.32025439485142,0.0
19.88,8274.0,48.87211732442847,0.0
19.888,8235.0,38.960954616216895,0.0
19.896,8182.0,8.396892900152125,0.0
19.904,8156.0,-27.0914760066737,0.0
19.912,8150.0,-50.50947771354731,0.0
19.92,8145.0,-58.948321374789884,0.0
19.928,8144.0,-56.22758323429434,0.0
19.936,8151.5,-44.76582252644516,0.0
19.944,8148.0,-30.3831257553486,0.0
19.952,8150.0,-17.577233341811507,0.0
19.96,8159.5,-4.989474153794845,0.0
19.968,8166.5,6.582332653599451,0.0
19.976,8164.0,13.34727450689229,0.0
19.984,8157.0,13.38358777596568,0.0
19.992,8156.5,9.843697321539139,0.0
20.0,8164.0,7.687897009008111,0.0
20.008,8182.5,10.559205759595443,0.0
20.016,8177.0,13.312303508511832,0.0
20.024,8164.5,9.244763797766609,0.0
20.032,8164.0,2.7817014906252098,0.0
20.04,8159.5,-2.483785804025729,0.0
20.048,8159.0,-6.242719185712076,0.0
20.056,8164.5,-6.497772154845961,0.0
20.064,8521.0,68.29342729133032,0.0
20.072,8052.0,79.18688693229137,0.0
20.08,8117.5,-8.811788339295845,1.0
20.088,8171.0,-35.206290606584844,0.0
20.096,8186.5,-31.381509644330208,0.0
20.104,8194.5,-19.560663844884175,0.0
20.112,8204.5,-5.926792766908875,0.0
20.12,8224.0,9.061702168851525,0.0
20.128,8248.0,25.43909821253601,0.0
20.136,8272.5,41.17638565284847,0.0
20.144,8288.0,52.412598383275736,0.0
20.152,8272.0,51.0091570903362,0.0
20.16,8214.0,27.327312925137903,0.0
20.168,8167.0,-12.272820420408834,0.0
20.176,8154.0,-46.08961901655516,0.0
20.184,8154.0,-61.75699841139385,0.0
20.192,8158.0,-60.84236755288657,0.0
20.2,8160.0,-49.85123035303013,0.0
20.208,8166.0,-34.15864839951064,0.0
20.216,8169.0,-17.860519596282757,0.0
20.224,8175.5,-3.573109673367071,0.0
20.232,8179.5,7.563325257548513,0.0
20.24,8181.5,14.228510079419493,0.0
20.248,8175.0,15.0937256116365,0.0
20.256,8170.0,10.967566210451196,0.0
20.264,8175.5,6.966700262264794,0.0
20.272,8196.0,8.856182177133633,0.0
20.28,8191.0,11.797579691489318,0.0
20.288,8176.0,7.662448512654009,0.0
20.296,8177.0,1.1950095724521361,0.0
20.304,8183.0,-1.3808949409039997,0.0
20.312,8189.0,-0.24331075946633973,0.0
20.32,8188.5,1.589997966712417,0.0
20.328,8512.0,68.42231751471604,0.0
20.336,8082.5,75.91732278364566,0.0
20.344,8129.5,-9.305170973418626,0.0
20.352,8191.5,-36.02604968187484,0.0
20.36,8206.5,-30.63559546264264,0.0
20.368,8213.0,-18.410504123111423,0.0
20.376,8226.0,-4.405489452417669,0.0
20.384,8241.0,10.265400416621105,0.0
20.392,8261.5,24.638063890868125,0.0
20.4,8280.5,37.47249463406661,1.0
20.408,8292.0,45.61265846584024,0.0
20.416,8276.5,42.694117227717015,0.0
20.424,8235.5,22.95216806749886,0.0
20.432,8194.5,-8.955675306191779,0.0
20.44,8178.0,-38.21543258688939,0.0
20.448,8175.0,-53.709560223940116,0.0
20.456,8175.5,-55.2405105363805,0.0
20.464,8172.0,-48.38370107300284,0.0
20.472,8175.0,-37.09520549432705,0.0
20.48,8177.5,-23.67148228051019,0.0
20.488,8176.0,-11.939537558514075,0.0
20.496,8174.0,-3.906162854399554,0.0
20.504,8173.5,0.9262300360478548,0.0
20.512,8176.0,4.052273467178338,0.0
20.52,8184.0,7.431796565384502,0.0
20.528,8182.5,9.63164823181728,0.0
20.536,8164.0,5.386348835830631,0.0
20.544,8162.0,-2.129115187437492,0.0
20.552,8162.5,-6.557400463883823,0.0
20.56,8165.0,-7.56919929258288,0.0
20.568,8165.5,-6.407093023335619,0.0
20.576,8445.5,52.557946852952455,0.0
20.584,8064.0,58.724835450358796,0.0
20.592,8099.5,-17.21954021898273,0.0
20.6,8166.5,-38.58139874955896,0.0
20.608,8177.5,-29.429906927060074,0.0
20.616,8185.5,-15.674092823461024,0.0
20.624,8193.5,-1.893736370879651,0.0
20.632,8210.5,11.650577110870017,0.0
20.64,8230.5,25.45342726665649,0.0
20.648,8253.0,38.440155113724586,0.0
20.656,8262.0,46.727979275480266,0.0
20.664,8245.0,42.9104650164752,0.0
20.672,8200.0,21.48040928167302,0.0
20.68,8163.0,-11.202641533418728,0.0
20.688,8146.0,-39.865135729852454,0.0
20.696,8144.0,-54.65377808266976,0.0
20.704,8145.0,-55.31789975219499,0.0
20.712,8151.0,-45.89370789686973,0.0
20.72,8155.0,-31.319220305097588,0.0
20.728,8158.5,-16.419272714789486,0.0
20.736,8163.0,-3.4837061315540723,0.0
20.744,8164.5,5.920342535362124,0.0
20.752,8166.0,11.197190077399682,0.0
20.76,8171.5,14.050388602996463,0.0
20.768,8182.5,16.97852435262257,0.0
20.776,8170.5,15.931773485932126,0.0
20.784,8155.0,7.279009170079917,0.0
20.792,8158.5,-1.393414980730995,0.0
20.8,8158.0,-5.698111695043281,0.0
20.808,8161.0,-6.869249183941747,0.0
20.816,8188.5,-0.28922356570501506,0.0
20.824,8486.0,70.04381034107541,0.0
20.832,8032.5,69.1482536437718,0.0
20.84,8135.0,-13.574657881857092,1.0
20.848,8172.0,-31.93880802820877,0.0
20.856,8184.0,-27.94629547300042,0.0
20.864,8191.0,-17.46642621118258,0.0
20.872,8205.5,-4.228064706318946,0.0
20.88,8223.5,10.881881767967116,0.0
20.888,8242.5,25.727187981694215,0.0
20.896,8265.5,39.18676685495825,0.0
20.904,8270.5,46.92598629643135,0.0
20.912,8245.5,40.30239801713151,0.0
20.92,8195.5,14.952337758264548,0.0
20.928,8163.5,-19.059264572980055,0.0
20.936,8152.5,-45.06899609028574,0.0
20.944,8151.0,-56.171876955799235,0.0
20.952,8155.0,-53.711030765026635,0.0
20.96,8158.5,-42.580207961882934,0.0
20.968,8164.5,-27.60093775422115,0.0
20.976,8168.5,-12.514585854806455,0.0
20.984,8172.0,-0.16292709945696515,0.0
20.992,8170.0,7.472976433339227,0.0
21.0,8171.0,10.651544935418315,0.0
21.008,8175.5,12.040099703588794,0.0
21.016,8187.0,14.304680663074123,0.0
21.024,8178.0,13.985943736456647,0.0
21.032,8161.0,6.365187658577042,0.0
21.04,8162.0,-2.3755656914568135,0.0
21.048,8161.5,-7.082518601758466,0.0
21.056,8166.5,-7.873055665338825,0.0
21.064,8176.0,-4.184567860849711,0.0
21.072,8507.0,68.19565830025658,0.0
21.08,8040.5,72.97917628931305,0.0
21.088,8127.0,-12.890676825287528,0.0
21.096,8175.5,-34.13897635018566,0.0
21.104,8188.5,-28.964813191649682,0.0
21.112,8196.0,-17.325247166450936,0.0
21.12,8206.5,-4.137500202236197,0.0
21.128,8222.0,9.600826910407022,0.0
21.136,8245.5,24.237784380812627,0.0
21.144,8267.0,38.412859789688355,1.0
21.152,8275.0,46.999007385089726,0.0
21.16,8251.0,41.68242345803492,0.0
21.168,8203.0,17.50899774532604,0.0
21.176,8167.0,-16.602966335224664,0.0
21.184,8155.0,-44.065959552806135,0.0
21.192,8151.5,-56.7932716433113,0.0
21.2,8154.0,-55.91395351676988,0.0
21.208,8156.5,-45.89520677295354,0.0
21.216,8162.5,-31.275324389455363,0.0
21.224,8170.0,-15.129380587292417,0.0
21.232,8172.0,-1.3460455337997246,0.0
21.24,8170.0,7.009472484557136,0.0
21.248,8168.5,10.173140415880653,0.0
21.256,8173.0,11.11466272231678,0.0
21.264,8177.0,11.722920408388518,0.0
21.272,8191.5,14.084875145638762,0.0
21.28,8173.0,12.529094663620526,0.0
21.288,8160.5,3.376124460285382,0.0
21.296,8164.0,-4.387494765247311,0.0
21.304,8166.5,-7.087885436236093,0.0
21.312,8172.5,-5.873727926850961,0.0
21.32,8209.5,4.519784751543284,0.0
21.328,8473.0,71.37363599953801,0.0
21.336,8042.0,65.86941966777522,0.0
21.344,8147.0,-13.974415027941404,0.0
21.352,8184.5,-29.962373508761402,0.0
21.36,8193.0,-25.47713839478706,0.0
21.368,8199.5,-15.897430478902152,0.0
21.376,8211.5,-4.042203655528738,0.0
21.384,8229.0,9.608678046354271,0.0
21.392,8252.0,24.499181356568897,0.0
21.4,8271.5,38.273820429444186,0.0
21.408,8270.0,44.2947711646018,0.0
21.416,8244.0,35.52166869433313,0.0
21.424,8197.0,10.0338059297585,0.0
21.432,8166.0,-22.496381798025368,0.0
21.44,8154.5,-47.00674920772167,0.0
21.448,8151.0,-57.439874427780296,0.0
21.456,8154.5,-54.901444529670925,0.0
21.464,8161.5,-42.93135559927623,0.0
21.472,8168.0,-26.585303363781804,0.0
21.48,8172.0,-10.742470575836933,0.0
21.488,8172.5,1.1749936635492304,0.0
21.496,8171.0,7.840518634885484,0.0
21.504,8172.0,10.491633531605203,0.0
21.512,8171.5,10.57099344195285,0.0
21.52,8177.5,10.13889391552675,0.0
21.528,8188.5,11.81928898931892,0.0
21.536,8177.0,10.918977734082773,0.0
21.544,8163.5,3.6235686281493145,0.0
21.552,8165.0,-3.691909956205336,0.0
21.56,8166.0,-6.947782743224025,0.0
21.568,8168.5,-7.104881784950976,0.0
21.576,8166.0,-6.120605958363512,0.0
21.584,8493.5,61.78721714807716,0.0
21.592,8054.0,69.69842803539245,0.0
21.6,8123.0,-11.883454665127374,1.0
21.608,8177.0,-33.20017221609055,0.0
21.616,8189.0,-27.289451443901044,0.0
21.624,8196.5,-15.672591900621,0.0
21.632,8210.0,-2.1359330848479203,0.0
21.64,8222.0,11.403128309003023,0.0
21.648,8244.5,24.729636487032167,0.0
21.656,8265.0,37.646542111337794,0.0
21.664,8274.0,45.60479297561096,0.0
21.672,8255.0,41.354056263767006,0.0
21.68,8210.5,19.597312186053614,0.0
21.688,8172.5,-13.095592241827717,0.0
21.696,8154.5,-41.88552182643548,0.0
21.704,8153.0,-56.54536529006646,0.0
21.712,8154.0,-56.74437814877706,0.0
21.72,8159.5,-46.931001159345215,0.0
21.728,8168.0,-31.151880921419206,0.0
21.736,8171.5,-14.645532486533739,0.0
21.744,8174.5,-1.3353142834755545,0.0
21.752,8174.5,7.351678698200658,0.0
21.76,8171.5,10.761648287301568,0.0
21.768,8169.0,10.023051241798385,0.0
21.776,8169.0,7.5558812309282075,0.0
21.784,8177.5,6.687797180188909,0.0
21.792,8186.0,8.633578725067082,0.0
21.8,8184.5,9.905464052069192,0.0
21.808,8166.0,5.069853182461657,0.0
21.816,8167.0,-2.133833123418981,0.0
21.824,8171.0,-5.049062919064681,0.0
21.832,8171.5,-5.088273769806392,0.0
21.84,8160.0,-6.587329706795799,0.0
21.848,8416.5,43.57854997388927,0.0
21.856,8113.5,57.13955762935575,0.0
21.864,8097.5,-8.675479133444242,0.0
21.872,8177.5,-33.20782557963844,0.0
21.88,8189.5,-23.885840662744158,0.0
21.888,8196.5,-10.869743109095452,0.0
21.896,8208.0,2.2555021313883117,0.0
21.904,8220.5,14.579009565655724,0.0
21.912,8243.0,26.80729046316651,0.0
21.92,8263.5,38.759709417999375,0.0
21.928,8271.5,45.774494328770515,0.0
21.936,8261.0,42.472320861471644,0.0
21.944,8218.0,23.150021653366366,0.0
21.952,8180.0,-8.335337545156563,1.0
21.96,8160.0,-37.54143932003012,0.0
21.968,8153.0,-54.63827669636157,0.0
21.976,8154.0,-57.69131541213733,0.0
21.984,8161.5,-49.01363609455211,0.0
21.992,8166.5,-33.8968647853942,0.0
22.0,8170.0,-18.081109345965842,0.0
22.008,8173.0,-4.658432698284287,0.0
22.016,8172.0,4.394591173862636,0.0
22.024,8171.5,8.775811437189077,0.0
22.032,8170.5,9.729890042666284,0.0
22.04,8169.0,8.308212319348513,0.0
22.048,8170.0,6.105660992042658,0.0
22.056,8176.5,5.409641676061483,0.0
22.064,8185.5,7.34451424605777,0.0
22.072,8183.5,8.805385413753584,0.0
22.08,8168.0,4.759077425836722,0.0
22.088,8169.0,-1.3177967112192164,0.0
22.096,8169.0,-4.507555697238558,0.0
22.104,8172.0,-5.0976727815227605,0.0
22.112,8162.0,-6.103905458486452,0.0
22.12,8441.0,49.18335604678737,0.0
22.128,8092.0,60.12231634232421,0.0
22.136,8105.0,-11.168730347328847,0.0
22.144,8178.0,-34.0669555888594,0.0
22.152,8190.5,-24.97625519337703,0.0
22.16,8198.0,-11.727318386574098,0.0
22.168,8208.5,1.5634957266474885,0.0
22.176,8221.5,13.987686246181966,0.0
22.184,8243.0,26.263012137083706,0.0
22.192,8264.0,38.22362202990735,0.0
22.2,8273.0,45.6309794600802,0.0
22.208,8258.0,41.86767839657659,0.0
22.216,8218.0,22.057888786398962,0.0
22.224,8177.5,-9.448040786490765,0.0
22.232,8158.5,-38.804060138155364,0.0
22.24,8154.5,-54.98092700570828,0.0
22.248,8152.5,-57.437946847896,0.0
22.256,8158.0,-49.467700737536916,0.0
22.264,8166.5,-34.39401146499176,0.0
22.272,8172.0,-17.404706832655847,0.0
22.28,8176.0,-2.7776432590173954,0.0
22.288,8172.5,6.39605194029923,0.0
22.296,8171.5,9.93228947829607,0.0
22.304,8171.0,10.211310971564217,0.0
22.312,8170.5,8.623867726176286,0.0
22.32,8172.0,6.581877093344929,0.0
22.328,8178.0,5.908613125414831,0.0
22.336,8186.0,7.474841972965805,0.0
22.344,8180.5,7.778584919883315,0.0
22.352,8167.0,2.897177048071626,0.0
22.36,8167.0,-3.186986885115175,0.0
22.368,8169.0,-5.89336492695179,0.0
22.376,8171.0,-5.783205456863243,0.0
22.384,8164.0,-5.8627592401996935,0.0
22.392,8471.5,56.37145398744519,0.0
22.4,8073.0,66.03871227622267,0.0
22.408,8114.0,-11.29388006374711,0.0
22.416,8179.0,-33.66007478256461,0.0
22.424,8189.5,-26.35942858889871,0.0
22.432,8199.0,-13.959421472956592,0.0
22.44,8208.5,-0.6279489806020138,0.0
22.448,8222.0,12.050385309447165,0.0
22.456,8243.5,24.871879508286156,0.0
22.464,8266.5,37.775006213331835,1.0
22.472,8273.0,45.7056315732857,0.0
22.48,8257.0,41.525419274227716,0.0
22.488,8217.5,21.418809157307123,0.0
22.496,8177.5,-9.961466734502892,0.0
22.504,8161.0,-38.55243079950128,0.0
22.512,8157.0,-53.80424314887955,0.0
22.52,8158.0,-55.27968396281335,0.0
22.528,8161.0,-46.954001349600276,0.0
22.536,8168.5,-32.76626689788236,0.0
22.544,8175.5,-16.445549363258806,0.0
22.552,8180.0,-1.9507050421227632,0.0
22.56,8178.0,7.428023963417672,0.0
22.568,8178.5,11.541961489739833,0.0
22.576,8174.0,11.407836466303252,0.0
22.584,8173.5,8.577448366691215,0.0
22.592,8173.5,5.500968682548546,0.0
22.6,8180.5,4.277637656530715,0.0
22.608,8191.0,6.480885770076611,0.0
22.616,8184.5,7.618507589656019,0.0
22.624,8168.0,2.4373206239329193,0.0
22.632,8169.0,-4.163014157976022,0.0
22.64,8170.0,-7.0266775337111085,0.0
22.648,8174.5,-6.531261546130963,0.0
22.656,8175.0,-4.226552884362036,0.0
22.664,8478.0,59.78254349906183,0.0
22.672,8070.5,67.22424219937989,0.0
22.68,8122.0,-11.29783150541516,0.0
22.688,8186.0,-32.42602662636045,0.0
22.696,8196.0,-24.886777014463405,0.0
22.704,8202.0,-13.386134888628021,0.0
22.712,8216.0,-0.46916155738517773,0.0
22.72,8228.0,12.552867037424676,0.0
22.728,8248.0,24.888536847593286,0.0
22.736,8269.5,36.88891988795535,0.0
22.744,8275.0,43.90925321795066,0.0
22.752,8264.5,40.38240158460485,0.0
22.76,8217.5,20.426881212979197,0.0
22.768,8180.5,-11.633006177347397,1.0
22.776,8164.5,-39.65741336760561,0.0
22.784,8164.0,-53.589433218131944,0.0
22.792,8163.5,-53.908316996459234,0.0
22.8,8165.5,-45.617315938830416,0.0
22.808,8170.0,-32.469952684911505,0.0
22.816,8175.5,-17.72878740308397,0.0
22.824,8179.5,-4.382135295299577,0.0
22.832,8181.0,5.299090726776285,0.0
22.84,8176.5,9.608244661009167,0.0
22.848,8175.5,9.576293358734574,0.0
22.856,8182.0,9.229172838201748,0.0
22.864,8191.5,10.893447984872182,0.0
22.872,8194.5,12.779882571627468,0.0
22.88,8171.5,7.871919345408514,0.0
22.888,8168.0,-1.6380897480066778,0.0
22.896,8170.0,-7.320390943152688,0.0
22.904,8174.0,-8.345231883304677,0.0
22.912,8173.5,-6.971032584487148,0.0
22.92,8372.0,35.35012064897592,0.0
22.928,8163.0,52.87412670087656,0.0
22.936,8079.0,-4.63868823621533,0.0
22.944,8172.5,-36.00753445426517,0.0
22.952,8191.0,-26.218158834105225,0.0
22.96,8200.0,-10.835483218303352,0.0
22.968,8207.5,3.2755565341656165,0.0
22.976,8219.5,15.108055220644019,0.0
22.984,8236.0,25.637789430366183,0.0
22.992,8258.0,35.84364712565957,0.0
23.0,8270.0,43.39128258375035,0.0
23.008,8261.0,41.88921361604798,0.0
23.016,8225.0,25.456456188999027,0.0
23.024,8183.0,-4.056812990543904,0.0
23.032,8163.5,-33.46035168835601,0.0
23.04,8157.5,-50.9862427549333,0.0
23.048,8157.0,-54.948864980133294,0.0
23.056,8161.0,-48.246403827911536,0.0
23.064,8166.5,-35.02699722593184,0.0
23.072,8171.0,-19.855547492409414,0.0
23.08,8173.0,-6.544886409466017,0.0
23.088,8175.0,3.1365019402828693,0.0
23.096,8171.0,7.977926685222656,0.0
23.104,8170.0,8.610085323590056,0.0
23.112,8172.5,7.985003572637424,0.0
23.12,8177.0,7.8348162333586515,0.0
23.128,8188.0,9.724807846151634,0.0
23.136,8175.0,8.959548465542639,0.0
23.144,8162.5,1.9389310086457954,0.0
23.152,8165.0,-4.550023651200263,0.0
23.16,8167.0,-6.778389738389478,0.0
23.168,8168.5,-6.353504990743886,0.0
23.176,8225.0,6.710485307978388,0.0
23.184,8410.0,62.75776792214083,0.0
23.192,8048.5,50.3301245950322,0.0
23.2,8149.5,-17.870568869438557,0.0
23.208,8180.0,-28.629398977777782,0.0
23.216,8189.5,-22.479565583488238,0.0
23.224,8200.5,-11.24622987519092,0.0
23.232,8208.5,0.9839231987555195,0.0
23.24,8224.5,12.970860976615768,0.0
23.248,8247.0,25.958962327082418,1.0
23.256,8264.0,37.77430151874955,0.0
23.264,8264.5,42.610108085031925,0.0
23.272,8237.5,33.595828939156036,0.0
23.28,8195.5,9.074518021912581,0.0
23.288,8167.0,-21.20635698480828,0.0
23.296,8156.0,-43.96916507504079,0.0
23.304,8155.5,-53.11426731809843,0.0
23.312,8156.0,-50.46991584983584,0.0
23.32,8161.5,-40.02841084211332,0.0
23.328,8166.5,-25.639383781376637,0.0
23.336,8170.5,-11.403796265708934,0.0
23.344,8170.5,-0.43873986226844863,0.0
23.352,8172.5,6.521096208102563,0.0
23.36,8167.0,8.933403744355473,0.0
23.368,8167.5,7.984124870037931,0.0
23.376,8174.5,7.744491520308884,0.0
23.384,8182.5,9.493128790475794,0.0
23.392,8185.5,11.33530868003595,0.0
23.4,8165.5,7.2330902247076665,0.0
23.408,8163.0,-0.8863454072529748,0.0
23.416,8166.0,-5.451635416445924,0.0
23.424,8169.5,-5.997052766232855,0.0
23.432,8157.5,-7.146944708868887,0.0
23.44,8391.5,38.61135526325302,0.0
23.448,8115.0,51.13601619089036,0.0
23.456,8096.5,-9.478486790315628,0.0
23.464,8173.5,-31.93715522626917,0.0
23.472,8186.5,-21.99005082527856,0.0
23.48,8194.0,-8.585231519119134,0.0
23.488,8204.0,4.21924337844348,0.0
23.496,8217.0,15.851020584411117,0.0
23.504,8237.0,27.068759832101932,0.0
23.512,8261.0,38.5882051029339,0.0
23.52,8271.5,46.59873711509931,0.0
23.528,8258.0,43.658331494491904,0.0
23.536,8215.5,23.85941592274935,0.0
23.544,8174.0,-8.628268424933367,0.0
23.552,8157.0,-38.48488227376083,0.0
23.56,8154.5,-54.29113814825382,0.0
23.568,8153.0,-56.224957744228504,0.0
23.576,8157.0,-48.333496160706545,0.0
23.584,8162.5,-34.39771243819905,0.0
23.592,8168.0,-18.693704633881907,0.0
23.6,8170.5,-4.937787440527927,0.0
23.608,8171.5,4.661119053679613,0.0
23.616,8168.0,9.12046380291531,0.0
23.624,8168.5,9.762040497374073,0.0
23.632,8169.0,8.865728155700936,0.0
23.64,8176.0,8.523757661970876,0.0
23.648,8185.0,10.298027793066694,0.0
23.656,8190.0,12.646237197827077,0.0
23.664,8164.5,7.929478641691503,0.0
23.672,8164.0,-1.3740285816222695,0.0
23.68,8167.0,-6.157036403690654,0.0
23.688,8167.5,-7.337167066135862,0.0
23.696,8159.5,-8.454949445322427,0.0
23.704,8349.5,29.34861605472065,0.0
23.712,8172.5,49.91189647491046,0.0
23.72,8082.0,-0.1447165248098372,0.0
23.728,8172.0,-29.828324608317416,0.0
23.736,8189.0,-21.000647203950848,0.0
23.744,8192.5,-8.407860445498045,0.0
23.752,8205.0,3.583036957262493,0.0
23.76,8216.0,14.932272589114518,0.0
23.768,8236.0,25.713608607574315,0.0
23.776,8258.5,36.87397141277097,0.0
23.784,8275.5,45.9535448295826,0.0
23.792,8264.0,45.47974430580621,0.0
23.8,8225.0,27.987081774344233,0.0
23.808,8181.0,-3.5581903669960866,1.0
23.816,8160.0,-34.954102226713076,0.0
23.824,8154.5,-53.636110107855984,0.0
23.832,8155.5,-57.472105094276685,0.0
23.84,8157.5,-50.41435422965105,0.0
23.848,8164.0,-36.860443831541716,0.0
23.856,8168.5,-21.00889613370532,0.0
23.864,8171.5,-6.916864144037618,0.0
23.872,8172.0,3.180871474819014,0.0
23.88,8172.0,8.772548423919034,0.0
23.888,8168.5,10.034382180529064,0.0
23.896,8170.0,8.85069615621137,0.0
23.904,8169.5,7.0130970109303234,0.0
23.912,8178.0,6.497482214529555,0.0
23.92,8184.5,8.27196584191347,0.0
23.928,8185.5,9.599521056434924,0.0
23.936,8165.5,5.0475186601570385,0.0
23.944,8165.0,-2.597958357848256,0.0
23.952,8169.0,-6.010546824930088,0.0
23.96,8170.5,-5.993821640735632,0.0
23.968,8156.0,-7.7311070016387475,0.0
23.976,8388.5,36.951172072823056,0.0
23.984,8124.0,51.23633803826033,0.0
23.992,8095.5,-7.9436134935674545,0.0
24.0,8175.5,-31.21670124608363,0.0
24.008,8188.5,-21.247569940609537,0.0
24.016,8195.0,-8.146593649720671,0.0
24.024,8205.5,4.309535898926242,0.0
24.032,8218.0,15.721612827957415,0.0
24.04,8238.5,26.829041437405067,0.0
24.048,8261.5,38.21744290463357,0.0
24.056,8273.5,46.308838165080715,0.0
24.064,8261.5,44.07310951173349,0.0
24.072,8224.0,25.956008851414936,0.0
24.08,8181.5,-5.037717868153095,0.0
24.088,8160.5,-35.576681605524755,0.0
24.096,8153.5,-53.96395263390241,0.0
24.104,8153.0,-58.18883840777312,0.0
24.112,8157.0,-51.150261271301815,0.0
24.12,8161.5,-37.496117990640414,0.0
24.128,8170.0,-21.080315377024817,0.0
24.136,8170.0,-6.43945513581366,0.0
24.144,8172.0,3.6040245290264465,0.0
24.152,8170.5,9.099459598674457,0.0
24.16,8170.0,10.561263710111689,0.0
24.168,8170.5,9.824560013652217,0.0
24.176,8170.0,7.899355400108334,0.0
24.184,8176.5,6.7889619928773755,0.0
24.192,8184.5,8.065352343347513,0.0
24.2,8186.5,9.640413120948779,0.0
24.208,8165.0,5.12643497483964,0.0
24.216,8165.5,-2.6106696212450515,0.0
24.224,8167.5,-6.279820133678186,0.0
24.232,8170.0,-6.578301132470187,0.0
24.24,8159.5,-7.391880799006685,0.0
24.248,8363.0,32.67772499640955,0.0
24.256,8160.5,51.62479580928061,0.0
24.264,8084.0,-1.9967961244269645,0.0
24.272,8174.5,-30.545567791642952,0.0
24.28,8188.0,-21.5509099419221,0.0
24.288,8195.0,-8.775944897283807,0.0
24.296,8204.5,3.4806488033027563,0.0
24.304,8217.5,14.7982392160377,0.0
24.312,8239.0,26.296234230550454,0.0
24.32,8260.0,37.792095063080296,0.0
24.328,8271.5,45.500777307619046,0.0
24.336,8264.0,43.97842766872009,0.0
24.344,8227.0,27.31907718794605,0.0
24.352,8184.0,-3.01919572744373,1.0
24.36,8162.0,-33.7830081841571,0.0
24.368,8154.0,-52.98379808532127,0.0
24.376,8154.5,-57.83840057818202,0.0
24.384,8159.5,-50.81676573391883,0.0
24.392,8165.0,-36.8146023082104,0.0
24.4,8171.5,-20.500607800568105,0.0
24.408,8173.5,-6.007847216541677,0.0
24.416,8173.0,3.7804592880127075,0.0
24.424,8173.0,8.893934955041004,0.0
24.432,8172.0,10.365309691647099,0.0
24.44,8170.5,9.15322292852079,0.0
24.448,8169.0,6.4357577063804,0.0
24.456,8175.0,4.772270130799598,0.0
24.464,8176.5,4.597210022094032,0.0
24.472,8192.5,7.371952885275505,0.0
24.48,8175.5,7.690955343771293,0.0
24.488,8166.5,1.401751829919931,0.0
24.496,8169.0,-3.858150240693476,0.0
24.504,8171.5,-5.362402416218401,0.0
24.512,8171.0,-5.030409523047183,0.0
24.52,8224.5,6.756543674556042,0.0
24.528,8439.0,67.45557750437592,0.0
24.536,8050.5,57.57748085494791,0.0
24.544,8154.0,-15.219569855852342,0.0
24.552,8187.0,-28.07709668206462,0.0
24.56,8194.5,-23.150014201776912,0.0
24.568,8204.0,-13.253216329089355,0.0
24.576,8213.5,-1.5092066918864475,0.0
24.584,8228.0,10.56821457795013,0.0
24.592,8253.0,24.178398094307568,0.0
24.6,8270.0,37.14234226859685,0.0
24.608,8271.5,42.95754523394794,0.0
24.616,8244.5,34.674104755407825,0.0
24.624,8200.5,10.012929631423049,0.0
24.632,8169.0,-21.514439234602605,0.0
24.64,8156.5,-45.88706654209955,0.0
24.648,8154.0,-56.40848960104745,0.0
24.656,8155.0,-54.385100249394554,0.0
24.664,8161.5,-43.41079180952397,0.0
24.672,8170.0,-27.274503089545306,0.0
24.68,8171.5,-11.553383697635127,0.0
24.688,8174.0,0.31289302869754465,0.0
24.696,8172.5,7.487452069826304,0.0
24.704,8171.0,9.982385874151305,0.0
24.712,8172.0,9.842287675397074,0.0
24.72,8170.0,8.062926022563033,0.0
24.728,8171.5,5.686029306841874,0.0
24.736,8175.0,4.43977147141436,0.0
24.744,8178.5,4.4597206524413195,0.0
24.752,8193.0,7.472787111519665,0.0
24.76,8179.5,8.326047741436696,0.0
24.768,8167.0,2.2565161256045485,0.0
24.776,8170.5,-3.5138167638342566,0.0
24.784,8171.5,-5.474292315688672,0.0
24.792,8174.0,-5.088694109249218,0.0
24.8,8186.0,-1.1267839220843143,0.0
24.808,8493.5,66.66123033748272,0.0
24.816,8051.5,69.16585999372637,0.0
24.824,8138.5,-12.36605955563391,0.0
24.832,8185.0,-31.434901728403702,0.0
24.84,8194.5,-26.505435248655658,0.0
24.848,8203.0,-15.894205221992024,0.0
24.856,8212.0,-3.6337277341890513,0.0
24.864,8228.5,9.37768547423093,0.0
24.872,8251.0,23.618578135637563,0.0
24.88,8271.5,37.24469879637513,1.0
24.888,8277.0,44.968249568625424,0.0
24.896,8258.0,39.960166218156246,0.0
24.904,8211.0,17.456106709827964,0.0
24.912,8173.0,-15.86487886859095,0.0
24.92,8161.5,-43.27844271240588,0.0
24.928,8158.5,-55.891618376891984,0.0
24.936,8159.0,-55.38795267044702,0.0
24.944,8162.0,-45.97756532196399,0.0
24.952,8172.0,-30.785625444426387,0.0
24.96,8176.0,-14.273461511446612,0.0
24.968,8180.0,-0.7097631475051003,0.0
24.976,8177.5,7.725845411091086,0.0
24.984,8178.0,11.134719400974745,0.0
24.992,8179.0,11.76901820563512,0.0
25.0,8179.5,10.666270634206285,0.0
25.008,8182.5,9.112027896332847,0.0
25.016,8181.5,7.219961969431097,0.0
25.024,8189.5,6.436471614439824,0.0
25.032,8199.0,8.572536065953955,0.0
25.04,8198.0,10.272660414327675,0.0
25.048,8180.0,5.838938917554287,0.0
25.056,8182.5,-0.8350715025089812,0.0
25.064,8184.0,-3.8382602684330323,0.0
25.072,8185.0,-4.521663531299282,0.0
25.08,8180.0,-5.057492828826753,0.0
25.088,8403.0,39.92997391426616,0.0
25.096,8150.5,54.45475790518344,0.0
25.104,8099.0,-7.318743429066899,0.0
25.112,8183.0,-36.10210559812799,0.0
25.12,8195.5,-27.936003648803307,0.0
25.128,8199.0,-15.60234333481526,0.0
25.136,8210.5,-2.8782251825182357,0.0
25.144,8220.0,9.373487536787934,0.0
25.152,8235.5,20.305519498038166,0.0
25.16,8253.5,30.536226359894727,0.0
25.168,8264.5,37.881721086705284,0.0
25.176,8252.5,36.278217681478736,0.0
25.184,8212.5,19.206059538114687,0.0
25.192,8170.5,-10.55491955948628,1.0
25.2,8142.5,-40.85632084494546,0.0
25.208,8132.0,-60.44780085929051,0.0
25.216,8127.5,-65.93408210156508,0.0
25.224,8126.5,-60.30592921952757,0.0
25.232,8129.5,-47.42575654604366,0.0
25.24,8133.5,-31.188033410137223,0.0
25.248,8134.5,-15.835092603526164,0.0
25.256,8129.5,-5.1718050707982,0.0
25.264,8125.0,-0.02230554030802523,0.0
25.272,8117.0,0.47272147199646497,0.0
25.28,8119.5,-0.4298450575890911,0.0
25.288,8121.5,0.020901878531503826,0.0
25.296,8131.0,2.6337633814046058,0.0
25.304,8112.5,1.9409883317634922,0.0
25.312,8104.0,-4.279116688088834,0.0
25.32,8107.5,-8.330416065514328,0.0
25.328,8108.5,-8.544004725634068,0.0
25.336,8109.5,-6.966347093180275,0.0
25.344,8183.0,10.243268886503984,0.0
25.352,8322.5,62.38408251173291,0.0
25.36,7994.0,45.14905468002553,0.0
25.368,8098.5,-17.652226614320398,0.0
25.376,8126.5,-25.046655705494004,0.0
25.384,8137.5,-17.654608089393832,0.0
25.392,8147.0,-6.41814944558746,0.0
25.4,8158.0,5.388307782481434,0.0
25.408,8176.0,17.478419967173522,0.0
25.416,8200.5,30.661342641133388,0.0
25.424,8222.5,43.30906825240959,0.0
25.432,8224.0,49.023815754491125,0.0
25.44,8197.0,39.76124786661626,0.0
25.448,8150.5,13.238995404580464,0.0
25.456,8124.5,-19.265218708082102,0.0
25.464,8119.5,-41.900648348541154,0.0
25.472,8118.0,-50.26252661631406,0.0
25.48,8118.0,-47.89378656757367,0.0
25.488,8127.0,-37.39294683254343,0.0
25.496,8130.5,-22.95979511477185,0.0
25.504,8138.0,-8.695767971384157,0.0
25.512,8141.0,3.203493885400121,0.0
25.52,8141.5,10.470063130047265,0.0
25.528,8136.0,12.158610926549045,0.0
25.536,8136.5,10.292322257870637,0.0
25.544,8144.0,9.26257127095073,0.0
25.552,8151.5,10.313775464262108,0.0
25.56,8155.0,11.619074859732564,0.0
25.568,8136.5,7.564925511633419,0.0
25.576,8135.0,-0.06564021511439933,0.0
25.584,8140.0,-3.853339489713562,0.0
25.592,8145.0,-3.466158603880558,0.0
25.6,8137.5,-3.2224219700021877,0.0
25.608,8322.0,33.571526581015405,0.0
25.616,8172.5,57.392096255820434,0.0
25.624,8059.0,9.04710588154785,0.0
25.632,8163.0,-22.856547593975847,0.0
25.64,8180.5,-13.436443108674212,0.0
25.648,8190.5,-0.2100128058448263,0.0
25.656,8198.0,11.219181115649462,0.0
25.664,8211.5,20.56774458652967,0.0
25.672,8226.5,28.80073025360548,0.0
25.68,8248.5,36.862304248262035,0.0
25.688,8263.0,43.4981254781369,0.0
25.696,8253.0,41.74706367162935,0.0
25.704,8212.5,24.064949365986195,0.0
25.712,8166.5,-7.712775559438569,1.0
25.72,8143.0,-39.53562916808846,0.0
25.728,8133.5,-59.10347149140853,0.0
25.736,8135.0,-63.349483872003475,0.0
25.744,8134.0,-56.153888682909155,0.0
25.752,8137.5,-42.874081154812984,0.0
25.76,8143.0,-26.68150069100966,0.0
25.768,8145.0,-11.52774867845983,0.0
25.776,8149.0,0.4077029921925259,0.0
25.784,8147.5,7.915248908247804,0.0
25.792,8147.5,10.848702787699722,0.0
25.8,8150.5,11.55165365384073,0.0
25.808,8152.0,11.135364303000642,0.0
25.816,8155.5,10.222422924415241,0.0
25.824,8170.5,11.912236172327084,0.0
25.832,8156.5,11.309854156145548,0.0
25.84,8145.0,4.0292280195888,0.0
25.848,8149.0,-2.419656983628329,0.0
25.856,8153.5,-4.130111377272215,0.0
25.864,8158.5,-2.5746398205167225,0.0
25.872,8173.5,2.8216257662816133,0.0
25.88,8507.0,76.78401383552136,0.0
25.888,8039.0,81.40542452143586,0.0
25.896,8136.0,-3.999109857264557,0.0
25.904,8184.0,-24.277278909586812,0.0
25.912,8194.5,-20.637434396091294,0.0
25.92,8205.0,-11.065640393328977,0.0
25.928,8217.0,0.8695530432000851,0.0
25.936,8235.5,14.027347401261295,0.0
25.944,8261.0,28.671370124451187,0.0
25.952,8283.5,42.79134245463615,0.0
25.96,8291.0,50.78322293898964,0.0
25.968,8268.0,44.64360908946696,0.0
25.976,8220.0,19.738794967762033,0.0
25.984,8184.5,-15.041624178221582,0.0
25.992,8172.5,-43.03450810759455,0.0
26.0,8170.5,-55.925125668826695,0.0
26.008,8171.5,-55.27400730531622,0.0
26.016,8179.5,-44.670037627188776,0.0
26.024,8185.5,-28.76615093523378,0.0
26.032,8193.5,-12.139119002327789,0.0
26.04,8198.5,2.1904247118657167,0.0
26.048,8208.0,13.295160952164679,0.0
26.056,8210.0,20.1962398074495,0.0
26.064,8211.0,21.828440597684676,0.0
26.072,8213.0,20.097174681088745,0.0
26.08,8216.5,17.149992507741445,0.0
26.088,8222.0,14.645599954223599,0.0
26.096,8231.0,13.906422457181861,0.0
26.104,8231.5,13.301754146316625,0.0
26.112,8213.0,7.250036531259184,0.0
26.12,8215.0,-0.799094004116796,0.0
26.128,8216.0,-4.825281976928636,0.0
26.136,8218.0,-5.861890730790265,0.0
26.144,8207.0,-7.424915032122044,0.0
26.152,8467.0,43.64732498228477,0.0
26.16,8167.0,59.06188089978332,0.0
26.168,8136.0,-8.400027266100551,0.0
26.176,8202.5,-39.77066599198065,0.0
26.184,8213.0,-36.5623441493708,0.0
26.192,8228.5,-23.809843533438425,0.0
26.2,8239.5,-7.2442105305092355,0.0
26.208,8253.0,8.656355535928924,0.0
26.216,8271.5,23.28514479725095,0.0
26.224,8297.5,37.497670533912924,1.0
26.232,8313.0,48.69632957661588,0.0
26.24,8299.0,48.24271095923177,0.0
26.248,8256.0,29.01513025872805,0.0
26.256,8208.0,-5.346440506772524,0.0
26.264,8184.0,-39.56689267121783,0.0
26.272,8176.5,-60.24147967521026,0.0
26.28,8174.0,-65.37808521086345,0.0
26.288,8176.0,-58.60592626222842,0.0
26.296,8182.5,-43.97897544327952,0.0
26.304,8187.5,-26.311429581696302,0.0
26.312,8192.0,-9.932890964223589,0.0
26.32,8194.5,2.6893990553603544,0.0
26.328,8194.0,10.155057571389989,0.0
26.336,8195.0,13.13275952927188,0.0
26.344,8196.0,13.311287849926885,0.0
26.352,8195.5,11.500871259129326,0.0
26.36,8198.5,9.197278099640926,0.0
26.368,8203.0,7.972777165357002,0.0
26.376,8214.5,9.308655395619326,0.0
26.384,8211.0,10.321796140640572,0.0
26.392,8193.0,4.9635920565740435,0.0
26.4,8193.0,-2.6351949860058994,0.0
26.408,8195.5,-6.218826390544109,0.0
26.416,8196.0,-6.7824301377613665,0.0
26.424,8184.5,-8.334757066902966,0.0
26.432,8483.0,50.64518347095918,0.0
26.44,8111.5,62.93345529357225,0.0
26.448,8129.5,-11.561077054907173,0.0
26.456,8198.5,-36.090053217577406,0.0
26.464,8213.5,-27.963501984760796,0.0
26.472,8220.0,-14.525408293353621,0.0
26.48,8230.5,-0.9028044776778188,0.0
26.488,8242.5,11.887225322479935,0.0
26.496,8261.5,23.982309744533268,0.0
26.504,8288.5,36.897159417794455,0.0
26.512,8299.0,46.60221625207009,0.0
