Time_Seconds,ECG_Raw,ECG_Filtered,R_Peak_Marker
0.0,8212.5,80.48979125053984,0.0
0.008,8231.0,200.15747518811986,0.0
0.016,8251.5,248.55024254065142,0.0
0.024,8260.5,245.5133691644835,0.0
0.032,8254.5,207.10754505381533,0.0
0.04,8228.0,146.35467878261898,0.0
0.048,8190.5,75.16118427503784,0.0
0.056,8167.0,9.199796011547278,0.0
0.064,8158.5,-37.742084305994695,0.0
0.072,8160.5,-61.10924482691098,0.0
0.08,8166.5,-64.02925562445057,0.0
0.088,8166.5,-54.82274933019494,0.0
0.096,8168.0,-40.75980955193336,0.0
0.104,8166.0,-26.365492328049186,0.0
0.112,8165.0,-14.468299483943156,0.0
0.12,8164.5,-5.545205508175059,0.0
0.128,8166.0,0.7769169904938735,0.0
0.136,8163.5,4.193719203175306,0.0
0.144,8166.0,5.578593067165002,0.0
0.152,8166.5,6.164727104376652,0.0
0.16,8174.0,7.211127007878076,0.0
0.168,8175.0,8.473231221536025,0.0
0.176,8193.5,11.91886177991114,0.0
0.184,8182.5,13.68181806413304,0.0
0.192,8165.5,6.929679312326016,0.0
0.2,8164.5,-1.7915604293416436,0.0
0.208,8166.0,-6.575515114851896,0.0
0.216,8164.5,-8.407812323712733,0.0
0.224,8491.0,58.18106161493051,0.0
0.232,8174.0,90.68153403529345,0.0
0.24,8152.5,26.99803990206965,0.0
0.248,8161.0,-17.413405775339925,0.0
0.256,8166.0,-38.28012254998612,0.0
0.264,8172.5,-42.467486553249046,0.0
0.272,8181.0,-35.440802131726514,0.0
0.28,8191.0,-22.13242337179645,0.0
0.288,8201.5,-6.718166592616626,0.0
0.296,8215.0,8.319572590976122,0.0
0.304,8234.5,22.693448550203357,1.0
0.312,8253.5,35.61912216957762,0.0
0.32,8263.0,43.6856383811446,0.0
0.328,8256.5,42.44580682231572,0.0
0.336,8224.5,27.41170542469922,0.0
0.344,8189.0,0.5743189074289603,0.0
0.352,8166.5,-27.233788569493527,0.0
0.36,8161.0,-45.27091676689838,0.0
0.368,8162.0,-49.99379302031889,0.0
0.376,8166.0,-44.185741006741864,0.0
0.384,8168.0,-32.82598379349338,0.0
0.392,8166.0,-21.131035501608494,0.0
0.4,8166.5,-11.317399196908127,0.0
0.408,8165.0,-4.002080386519765,0.0
0.416,8163.0,0.2158968378944337,0.0
0.424,8162.5,2.1669170449456487,0.0
0.432,8162.0,2.787916153484275,0.0
0.44,8165.0,3.243245067287262,0.0
0.448,8166.0,3.8380148997027845,0.0
0.456,8174.0,5.446579856061817,0.0
0.464,8174.5,7.3086737311925845,0.0
0.472,8188.0,10.162043313925778,0.0
0.48,8191.5,13.781949680407706,0.0
0.488,8170.5,10.257985666105242,0.0
0.496,8166.0,1.4090164311717217,0.0
0.504,8166.5,-4.855076205405339,0.0
0.512,8155.5,-9.96872205934801,0.0
0.52,8382.5,32.647430191574585,0.0
0.528,8249.5,72.10509408991584,0.0
0.536,8144.5,35.88471193152168,0.0
0.544,8159.0,-9.465732856193654,0.0
0.552,8163.5,-30.96907864766513,0.0
0.56,8170.5,-36.64138455322495,0.0
0.568,8180.0,-31.06974691962955,0.0
0.576,8189.0,-19.28458399507008,0.0
0.584,8197.5,-5.8158230865585665,0.0
0.592,8213.5,8.036697532311791,0.0
0.6,8230.5,21.75252438411553,0.0
0.608,8251.5,34.32953364382024,0.0
0.616,8262.0,42.99826964291401,0.0
0.624,8262.0,43.751059269914094,1.0
0.632,8236.5,32.35340979489729,0.0
0.64,8198.5,7.73459753500606,0.0
0.648,8172.0,-21.174986897685585,0.0
0.656,8162.0,-42.51866960573034,0.0
0.664,8160.0,-51.14656608351288,0.0
0.672,8161.5,-48.59681712335191,0.0
0.68,8165.5,-38.59739417111223,0.0
0.688,8166.0,-25.91257767326192,0.0
0.696,8165.0,-14.584295887129201,0.0
0.704,8166.0,-5.673617312806073,0.0
0.712,8164.0,0.2520298346028085,0.0
0.72,8162.5,3.0031842057517224,0.0
0.728,8162.0,3.766292543102054,0.0
0.736,8163.5,3.850879975188036,0.0
0.744,8164.5,3.8278180458312363,0.0
0.752,8165.0,3.540288097989105,0.0
0.76,8176.5,5.285103789114146,0.0
0.768,8174.5,7.456558626190144,0.0
0.776,8194.0,11.185515561219063,0.0
0.784,8176.5,12.10356000663569,0.0
0.792,8166.0,5.091024336722285,0.0
0.8,8163.0,-2.586098206858196,0.0
0.808,8166.0,-6.7342528095259695,0.0
0.816,8178.5,-4.999809612751733,0.0
0.824,8486.0,62.16023116290694,0.0
0.832,8150.0,86.63177031415557,0.0
0.84,8150.5,19.426872736378982,0.0
0.848,8156.5,-21.935380750518334,0.0
0.856,8160.5,-41.02827839440465,0.0
0.864,8168.0,-43.749955824261406,0.0
0.872,8177.0,-35.35557806403244,0.0
0.88,8188.0,-20.944817456523197,0.0
0.888,8197.0,-5.16081935685088,0.0
0.896,8213.5,10.165923247529463,0.0
0.904,8230.5,24.532937212627758,0.0
0.912,8251.5,37.07351405426016,0.0
0.92,8254.5,43.77242798039856,0.0
0.928,8249.5,40.6891362354304,1.0
0.936,8217.0,25.03544834294439,0.0
0.944,8179.0,-2.42099445716417,0.0
0.952,8160.5,-29.834634701561072,0.0
0.96,8156.0,-46.22265253383216,0.0
0.968,8155.5,-49.9281036721336,0.0
0.976,8160.0,-43.73260822765019,0.0
0.984,8159.5,-32.621019534553625,0.0
0.992,8161.5,-20.797461460850627,0.0
1.0,8157.0,-11.162640129420197,0.0
1.008,8155.0,-5.100190034406069,0.0
1.016,8157.5,-0.6394676214570154,0.0
1.024,8155.0,2.0955470989626974,0.0
1.032,8158.5,3.5996214450383377,0.0
1.04,8158.0,4.556285907492111,0.0
1.048,8158.0,4.329118557711126,0.0
1.056,8166.0,5.172833283982527,0.0
1.064,8166.0,6.521948793308866,0.0
1.072,8190.0,11.234228845873304,0.0
1.08,8173.0,13.747927574455161,0.0
1.088,8159.5,6.919001623730992,0.0
1.096,8158.0,-1.2331286042590364,0.0
1.104,8163.0,-5.152275244830662,0.0
1.112,8165.5,-5.156650182853127,0.0
1.12,8479.0,60.18163199899277,0.0
1.128,8145.5,85.61232211535389,0.0
1.136,8143.0,19.02707480490426,0.0
1.144,8160.0,-20.27369785563451,0.0
1.152,8164.0,-36.15206081055953,0.0
1.16,8172.0,-37.60980945470624,0.0
1.168,8175.5,-30.420369080493174,0.0
1.176,8187.5,-18.389796100469766,0.0
1.184,8197.5,-3.9922067868139948,0.0
1.192,8213.0,10.337440487847061,0.0
1.2,8234.0,24.701672353530967,0.0
1.208,8252.0,37.41932245143539,0.0
1.216,8260.0,44.57913022325897,0.0
1.224,8257.0,43.076210526995965,0.0
1.232,8225.5,28.608145893247183,0.0
1.24,8188.5,1.7198172634759885,1.0
1.248,8162.0,-27.415742900082478,0.0
1.256,8153.5,-47.64044377381629,0.0
1.264,8154.5,-53.91070111159115,0.0
1.272,8153.5,-49.44542234203777,0.0
1.28,8160.5,-38.08234923867644,0.0
1.288,8160.0,-24.26055753204173,0.0
1.296,8161.5,-12.2038849983835,0.0
1.304,8158.0,-3.631937373246501,0.0
1.312,8157.0,1.068789186445656,0.0
1.32,8156.5,3.380298831688606,0.0
1.328,8158.0,4.4391294472832215,0.0
1.336,8159.0,4.903047767159933,0.0
1.344,8162.5,5.353402091581984,0.0
1.352,8167.5,6.544658957327783,0.0
1.36,8173.0,8.402077411346909,0.0
1.368,8188.0,12.414864411823373,0.0
1.376,8169.5,12.190727160035749,0.0
1.384,8162.0,4.89809319666756,0.0
1.392,8161.0,-1.8939242563005791,0.0
1.4,8163.5,-5.317119672075023,0.0
1.408,8205.0,2.4537825744887414,0.0
1.416,8424.5,59.99997409291586,0.0
1.424,8122.5,68.08117460096469,0.0
1.432,8150.5,6.560047736742035,0.0
1.44,8155.0,-24.178249145467817,0.0
1.448,8166.0,-35.524456512042434,0.0
1.456,8172.0,-33.375543911016166,0.0
1.464,8181.5,-23.877891360608146,0.0
1.472,8189.5,-11.065560702588982,0.0
1.48,8204.0,2.7860686874516887,0.0
1.488,8218.0,16.3780720671748,0.0
1.496,8245.0,30.3095852109725,0.0
1.504,8258.5,42.227551624553826,0.0
1.512,8263.0,46.551036892982665,0.0
1.52,8251.5,40.620146526096505,0.0
1.528,8215.0,21.147694502261174,0.0
1.536,8178.5,-8.48848179902052,0.0
1.544,8160.0,-35.964858907608914,0.0
1.552,8155.0,-51.56271528251864,0.0
1.56,8156.0,-53.78694886931544,0.0
1.568,8159.5,-46.02826691499422,0.0
1.576,8162.5,-33.133411282555244,0.0
1.584,8163.5,-19.66679538307062,0.0
1.592,8162.0,-8.823093036794944,0.0
1.6,8162.5,-1.2767611229323848,0.0
1.608,8160.5,3.0732479500391037,0.0
1.616,8160.5,4.771293831544654,0.0
1.624,8160.0,4.949980491622682,0.0
1.632,8164.5,5.12238331552544,0.0
1.64,8167.0,5.877834058918779,0.0
1.648,8175.0,7.5786160160964755,0.0
1.656,8177.0,9.47845626264234,0.0
1.664,8195.0,13.250989290268308,0.0
1.672,8177.5,13.575203131472108,0.0
1.68,8168.0,6.192659377293694,0.0
1.688,8170.5,-0.5423508546423363,0.0
1.696,8169.0,-4.238897186980694,0.0
1.704,8179.0,-4.045804739994992,0.0
1.712,8499.5,64.20320399918342,0.0
1.72,8156.0,90.13267274628379,0.0
1.728,8155.0,21.420506777733408,0.0
1.736,8163.0,-21.033250790907005,0.0
1.744,8169.5,-39.98908199007337,0.0
1.752,8175.0,-42.685102579362365,0.0
1.76,8185.0,-34.641296551111736,0.0
1.768,8194.0,-20.750457820602378,0.0
1.776,8203.0,-5.712009525368785,0.0
1.784,8220.0,9.359533501435408,0.0
1.792,8239.5,24.3107835336848,0.0
1.8,8259.0,37.43485856647135,1.0
1.808,8268.0,45.343421977082926,0.0
1.816,8258.5,43.04378494637285,0.0
1.824,8228.0,26.9858045616063,0.0
1.832,8191.0,-0.39253070274321544,0.0
1.84,8170.0,-28.37396856379587,0.0
1.848,8164.5,-46.03428808295371,0.0
1.856,8165.0,-50.520734615470246,0.0
1.864,8165.0,-45.41232159851461,0.0
1.872,8167.0,-35.09756893602139,0.0
1.88,8169.0,-22.859032195258123,0.0
1.888,8168.0,-11.951181822183116,0.0
1.896,8165.0,-4.505560161753692,0.0
1.904,8164.0,-0.23633898205798687,0.0
1.912,8165.0,2.3243031646743475,0.0
1.92,8165.5,3.792722150614736,0.0
1.928,8167.0,4.494722921341463,0.0
1.936,8168.0,4.739184032369849,0.0
1.944,8172.5,5.288896225931921,0.0
1.952,8180.0,7.2637459073625905,0.0
1.96,8179.0,8.658354494197283,0.0
1.968,8197.5,11.74567939858889,0.0
1.976,8178.5,11.688584208507336,0.0
1.984,8168.0,3.8558165584772723,0.0
1.992,8170.5,-2.99546321333537,0.0
2.0,8173.0,-5.571647073853001,0.0
2.008,8215.0,2.8409161806725933,0.0
2.016,8455.5,65.10035865960344,0.0
2.024,8150.0,78.77095393812488,0.0
2.032,8162.0,14.950823128601769,0.0
2.04,8166.5,-21.68805467521156,0.0
2.048,8173.0,-37.820752455104184,0.0
2.056,8181.0,-38.66516888502156,0.0
2.064,8187.0,-30.442247843160885,0.0
2.072,8197.5,-17.59285819712136,0.0
2.08,8210.0,-2.627546425566834,0.0
2.088,8227.5,12.750306065603809,0.0
2.096,8246.5,27.368625866480897,0.0
2.104,8266.0,39.73005110634472,0.0
2.112,8270.5,45.92025269709006,0.0
2.12,8258.0,40.984668790993055,1.0
2.128,8221.5,21.84127266491896,0.0
2.136,8187.5,-7.194703096247395,0.0
2.144,8170.5,-33.69507142012276,0.0
2.152,8166.0,-48.651242734677226,0.0
2.16,8169.5,-50.32449596549873,0.0
2.168,8172.5,-42.35631221758399,0.0
2.176,8174.0,-30.302870892340252,0.0
2.184,8174.0,-18.273761421086192,0.0
2.192,8174.0,-8.389247985716338,0.0
2.2,8172.5,-1.5781052552154051,0.0
2.208,8172.5,2.3828014741106927,0.0
2.216,8172.0,4.261863942925629,0.0
2.224,8171.0,4.420538274170212,0.0
2.232,8171.0,3.6398714077138266,0.0
2.24,8176.0,3.6478429628712092,0.0
2.248,8178.5,4.631757459317896,0.0
2.256,8185.5,6.452271599635424,0.0
2.264,8185.5,7.980785897309261,0.0
2.272,8205.5,11.760781876035026,0.0
2.28,8188.0,12.723943976435066,0.0
2.288,8175.0,5.133281220040999,0.0
2.296,8174.0,-2.9943017838224932,0.0
2.304,8175.5,-7.244819067435174,0.0
2.312,8175.5,-8.353716660466716,0.0
2.32,8504.0,59.36982596236726,0.0
2.328,8187.0,92.76971051392798,0.0
2.336,8162.0,28.586482145378795,0.0
2.344,8166.0,-17.995738722561327,0.0
2.352,8169.5,-41.283764763598356,0.0
2.36,8178.5,-46.243398637942846,0.0
2.368,8185.5,-38.89665967980136,0.0
2.376,8195.0,-25.283654047751725,0.0
2.384,8207.0,-9.007176848370591,0.0
2.392,8219.5,6.989669455463172,0.0
2.4,8239.0,21.928087972934236,0.0
2.408,8259.0,35.507969652274824,0.0
2.416,8267.0,43.87608505343678,0.0
2.424,8261.0,42.58144397036631,1.0
2.432,8229.0,27.596514529988553,0.0
2.44,8193.0,0.6580385732629566,0.0
2.448,8172.0,-27.01824509672042,0.0
2.456,8164.5,-45.112242258810056,0.0
2.464,8163.5,-50.710010949728485,0.0
2.472,8168.0,-45.61723302583323,0.0
2.48,8169.0,-34.56560705550123,0.0
2.488,8169.5,-22.48268841612662,0.0
2.496,8168.0,-12.132530139340815,0.0
2.504,8166.5,-4.784931295523847,0.0
2.512,8166.0,-0.12272303794270556,0.0
2.52,8166.5,2.653105500581887,0.0
2.528,8167.5,4.198935048738804,0.0
2.536,8168.0,4.782979216113063,0.0
2.544,8169.0,4.709677105369792,0.0
2.552,8172.0,4.769487015407549,0.0
2.56,8173.0,4.89895126676015,0.0
2.568,8181.0,6.0714847936030765,0.0
2.576,8182.0,7.683117847730728,0.0
2.584,8197.0,10.740196814625278,0.0
2.592,8194.0,13.371417558639223,0.0
2.6,8172.5,7.894882242419499,0.0
2.608,8171.5,-1.1376575967015015,0.0
2.616,8171.5,-6.511305270838648,0.0
2.624,8160.0,-11.05154039070976,0.0
2.632,8384.0,31.352841178016888,0.0
2.64,8263.0,72.72024663783532,0.0
2.648,8151.0,38.55752222479896,0.0
2.656,8163.5,-7.819964172171922,0.0
2.664,8168.5,-30.48666987290858,0.0
2.672,8174.5,-37.02227418739358,0.0
2.68,8182.5,-32.41419450599301,0.0
2.688,8192.0,-21.199344866897718,0.0
2.696,8202.0,-7.368964297595085,0.0
2.704,8215.5,6.728591308252589,0.0
2.712,8234.0,20.583354966852312,0.0
2.72,8252.0,33.113339872510096,0.0
2.728,8262.5,41.325752604283934,0.0
2.736,8262.0,41.96009631569973,1.0
2.744,8241.5,31.683282954267497,0.0
2.752,8205.5,9.259036233104098,0.0
2.76,8176.5,-18.685959070396848,0.0
2.768,8167.0,-40.245153004048234,0.0
2.776,8162.0,-49.85594647831795,0.0
2.784,8164.0,-48.593906408165594,0.0
2.792,8167.0,-39.45862408148855,0.0
2.8,8167.0,-27.460737541507115,0.0
2.808,8167.0,-16.2018352781472,0.0
2.816,8164.0,-7.69985204785462,0.0
2.824,8164.0,-2.117307199292327,0.0
2.832,8165.0,1.709510208050233,0.0
2.84,8162.0,3.3049001395629602,0.0
2.848,8165.5,3.849499656595299,0.0
2.856,8166.0,4.405148624941148,0.0
2.864,8167.0,4.372337217638915,0.0
2.872,8171.0,4.711538796000923,0.0
2.88,8177.0,6.240825399249161,0.0
2.888,8177.0,7.424865127095472,0.0
2.896,8197.5,11.187573975835903,0.0
2.904,8174.5,11.205913458074747,0.0
2.912,8164.0,2.6737330346484214,0.0
2.92,8163.0,-5.127013368447251,0.0
2.928,8165.5,-8.65659495125783,0.0
2.936,8192.5,-3.4046673911179823,0.0
2.944,8466.0,61.609899375236864,0.0
2.952,8145.5,81.11648027969454,0.0
2.96,8151.5,16.1018149590991,0.0
2.968,8156.5,-22.541667066106584,0.0
2.976,8162.0,-39.83261717583946,0.0
2.984,8170.5,-41.15915009762671,0.0
2.992,8177.5,-32.536783728322234,0.0
3.0,8190.0,-18.52070393827148,0.0
3.008,8201.0,-2.6225907606449255,0.0
3.016,8215.0,12.284663485462488,0.0
3.024,8233.5,25.878065874185268,0.0
3.032,8250.5,37.24644066189467,0.0
3.04,8258.5,43.43019933528444,0.0
3.048,8248.5,40.094131525211424,1.0
3.056,8216.5,23.461808312388712,0.0
3.064,8180.0,-3.926213751139585,0.0
3.072,8159.0,-31.275481897241434,0.0
3.08,8157.0,-47.40698073484032,0.0
3.088,8157.5,-50.06611594308151,0.0
3.096,8160.0,-43.43520751751794,0.0
3.104,8161.0,-32.213356175399895,0.0
3.112,8165.0,-19.67134264488459,0.0
3.12,8159.5,-9.578060021053261,0.0
3.128,8160.0,-3.1782664850577476,0.0
3.136,8156.5,0.47552110224023636,0.0
3.144,8157.0,1.951367972931621,0.0
3.152,8160.0,3.243383846613824,0.0
3.16,8158.0,3.7200454542551142,0.0
3.168,8159.0,3.233638718572138,0.0
3.176,8158.5,2.557871191230106,0.0
3.184,8167.0,3.404826519681592,0.0
3.192,8167.5,5.228210034181075,0.0
3.2,8189.0,10.008515821018591,0.0
3.208,8175.0,12.850427831089974,0.0
3.216,8159.5,6.555979052953262,0.0
3.224,8159.0,-1.429324573951817,0.0
3.232,8159.0,-6.037267910074206,0.0
3.24,8157.0,-8.255678575110323,0.0
3.248,8458.0,52.76996179829621,0.0
3.256,8148.5,79.12331882428975,0.0
3.264,8136.5,17.02990664713502,0.0
3.272,8155.0,-20.946014448981032,0.0
3.28,8160.5,-35.32602876873557,0.0
3.288,8166.5,-36.12504311995713,0.0
3.296,8173.5,-28.46468523619319,0.0
3.304,8183.0,-16.24781634773126,0.0
3.312,8191.5,-2.882004651466559,0.0
3.32,8206.0,10.15837923254935,0.0
3.328,8231.0,24.400193127234843,0.0
3.336,8246.0,37.29545407241744,0.0
3.344,8254.5,44.068328454097355,0.0
3.352,8251.0,42.414020566241334,1.0
3.36,8227.0,29.386926789856034,0.0
3.368,8184.0,3.5391648097502184,0.0
3.376,8159.0,-26.176194224658957,0.0
3.384,8150.0,-46.7274165806291,0.0
3.392,8147.0,-54.248557593424266,0.0
3.4,8157.5,-48.93957015429305,0.0
3.408,8153.5,-37.05207188500572,0.0
3.416,8157.5,-24.40429356542836,0.0
3.424,8154.0,-13.122288946301524,0.0
3.432,8154.5,-5.073538594140928,0.0
3.44,8154.0,0.45568743119474675,0.0
3.448,8152.0,3.145822933079671,0.0
3.456,8153.0,4.055519921347695,0.0
3.464,8155.0,4.591551004091343,0.0
3.472,8160.5,5.744681756513046,0.0
3.48,8161.5,6.883635178917984,0.0
3.488,8167.0,7.841525369282408,0.0
3.496,8180.0,10.998717495032906,0.0
3.504,8175.5,12.934897324505073,0.0
3.512,8157.5,7.522099225819602,0.0
3.52,8157.0,-0.5990249252772628,0.0
3.528,8157.5,-5.311025110500623,0.0
3.536,8156.0,-7.496780980848143,0.0
3.544,8435.5,49.14279624108053,0.0
3.552,8140.0,71.91990767952461,0.0
3.56,8127.5,11.561693040554701,0.0
3.568,8155.0,-22.822432358910874,0.0
3.576,8160.5,-32.955070103008666,0.0
3.584,8170.5,-30.78445497168127,0.0
3.592,8173.5,-22.177559308431228,0.0
3.6,8184.0,-10.967014511107664,0.0
3.608,8192.5,1.2073277107563172,0.0
3.616,8213.0,14.148892403238051,0.0
3.624,8227.0,26.705751770875395,0.0
3.632,8244.5,36.51842647605372,0.0
3.64,8265.5,44.65058335708454,0.0
3.648,8259.5,45.754884425511136,0.0
3.656,8226.5,31.503253563715816,0.0
3.664,8192.5,4.610442251150516,1.0
3.672,8162.0,-25.170322655464815,0.0
3.68,8157.5,-46.11702876339655,0.0
3.688,8153.0,-53.351697739994506,0.0
3.696,8156.5,-49.74582275732632,0.0
3.704,8154.5,-39.7648090973405,0.0
3.712,8158.5,-27.424638002964684,0.0
3.72,8158.5,-15.151579037368492,0.0
3.728,8159.5,-5.3918531508832075,0.0
3.736,8160.0,1.503952465206794,0.0
3.744,8156.5,4.741201119646803,0.0
3.752,8160.0,5.936882584579962,0.0
3.76,8156.5,5.743905156090932,0.0
3.768,8164.0,5.576138100539538,0.0
3.776,8170.5,7.491724126839699,0.0
3.784,8171.0,8.918870508875216,0.0
3.792,8189.0,12.190241733188486,0.0
3.8,8167.0,11.459537450934704,0.0
3.808,8165.0,4.386779219952814,0.0
3.816,8164.5,-0.9718779074178201,0.0
3.824,8162.0,-4.606533208862402,0.0
3.832,8227.0,6.711143964273333,0.0
3.84,8383.5,57.63954352886253,0.0
3.848,8123.5,57.87454460998788,0.0
3.856,8152.5,2.045569365145184,0.0
3.864,8162.0,-23.41614527999286,0.0
3.872,8170.0,-31.348732903416476,0.0
3.88,8177.0,-28.222701849690793,0.0
3.888,8186.5,-18.724113910857568,0.0
3.896,8195.5,-6.488302735215029,0.0
3.904,8205.0,5.511204350807702,0.0
3.912,8221.5,17.083950859966535,0.0
3.92,8247.0,29.918560086952994,0.0
3.928,8267.5,42.37075789039545,0.0
3.936,8269.0,47.80567825902244,0.0
3.944,8252.5,40.70746374346345,0.0
3.952,8211.0,18.488411578752448,0.0
3.96,8181.0,-12.062469601371276,0.0
3.968,8166.0,-37.49493468802052,0.0
3.976,8159.0,-51.34559607778283,0.0
3.984,8161.0,-52.773760089288544,0.0
3.992,8168.5,-43.67639115723705,0.0
4.0,8165.5,-30.75501202690407,0.0
4.008,8169.0,-18.34835646006809,0.0
4.016,8166.0,-8.127102985653664,0.0
4.024,8167.0,-1.2587074395923992,0.0
4.032,8165.5,2.8919348559179525,0.0
4.04,8166.0,4.703865583402376,0.0
4.048,8168.0,5.573028944848147,0.0
4.056,8168.5,5.752865815524956,0.0
4.064,8176.5,6.723575689492691,0.0
4.072,8181.0,8.832038776333775,0.0
4.08,8198.0,13.132406765120095,0.0
4.088,8179.0,13.276007781912085,0.0
4.096,8170.0,5.62771062337174,0.0
4.104,8166.0,-2.404617780133094,0.0
4.112,8170.5,-6.688204705408225,0.0
4.12,8187.5,-3.815032451260322,0.0
4.128,8487.5,63.225922136552754,0.0
4.136,8138.5,83.27729568402151,0.0
4.144,8153.0,14.171198227932337,0.0
4.152,8164.0,-23.636883780288144,1.0
4.16,8172.0,-38.531174909435094,0.0
4.168,8179.5,-38.331190433910706,0.0
4.176,8187.0,-29.33694666936526,0.0
4.184,8195.0,-16.40327556537227,0.0
4.192,8207.5,-2.079226707459611,0.0
4.2,8226.0,13.040553036728625,0.0
4.208,8243.0,27.257943349454536,0.0
4.216,8265.0,39.50119073916767,0.0
4.224,8269.5,46.16695213792332,0.0
4.232,8265.0,43.10961756553752,0.0
4.24,8226.5,25.980652628744792,0.0
4.248,8188.5,-3.717375655445494,0.0
4.256,8170.0,-32.26013916819079,0.0
4.264,8162.0,-49.66323641842564,0.0
4.272,8165.0,-53.44737072331077,0.0
4.28,8169.0,-46.151943476398856,0.0
4.288,8170.5,-33.71660591197792,0.0
4.296,8171.5,-20.739780287266058,0.0
4.304,8171.0,-9.81876110129906,0.0
4.312,8172.5,-1.6671474563879656,0.0
4.32,8173.0,3.815064295574757,0.0
4.328,8171.0,6.1723752730445085,0.0
4.336,8172.0,6.426379327704126,0.0
4.344,8173.0,6.010883595811265,0.0
4.352,8178.5,6.181794560487333,0.0
4.36,8184.5,7.6950974806777594,0.0
4.368,8181.0,7.934146786659312,0.0
4.376,8199.5,9.937122213287694,0.0
4.384,8182.5,9.921544794862484,0.0
4.392,8173.0,2.9941371917529978,0.0
4.4,8174.0,-3.2932237902343786,0.0
4.408,8176.0,-5.899364638660245,0.0
4.416,8208.0,0.40000929848065425,0.0
4.424,8467.5,63.618492812133354,0.0
4.432,8142.5,77.97878131900188,0.0
4.44,8162.5,12.337177187687985,0.0
4.448,8167.5,-23.24610035445926,0.0
4.456,8174.0,-38.41614935239295,0.0
4.464,8181.5,-38.70313809445338,0.0
4.472,8187.0,-30.349099480951736,0.0
4.48,8201.5,-16.72123662533818,0.0
4.488,8208.0,-1.8362868480764973,0.0
4.496,8224.5,11.943969630494621,0.0
4.504,8248.5,26.556927201651206,0.0
4.512,8265.0,39.44684597474975,0.0
4.52,8272.5,45.992535010528854,0.0
4.528,8261.5,42.17558065081971,1.0
4.536,8222.0,23.206732663011053,0.0
4.544,8188.0,-6.545937942725459,0.0
4.552,8172.0,-33.36421804679094,0.0
4.56,8167.5,-48.354262316355744,0.0
4.568,8166.5,-51.011927403096024,0.0
4.576,8170.5,-44.23675336890324,0.0
4.584,8172.0,-32.39945812298379,0.0
4.592,8175.0,-19.567407242628633,0.0
4.6,8173.5,-8.705452369137674,0.0
4.608,8171.0,-1.7790641274566497,0.0
4.616,8170.5,1.9740151077814971,0.0
4.624,8173.0,4.3028976382017845,0.0
4.632,8173.0,5.538576916963166,0.0
4.64,8175.0,5.838243618833076,0.0
4.648,8174.5,5.436770604579124,0.0
4.656,8178.0,4.987964002295712,0.0
4.664,8186.0,6.315765779020012,0.0
4.672,8185.5,7.67573710294846,0.0
4.68,8203.0,10.789403569820479,0.0
4.688,8182.5,10.382117378628664,0.0
4.696,8174.0,2.64247355227144,0.0
4.704,8174.5,-3.9697758223439905,0.0
4.712,8176.5,-6.7676322689781045,0.0
4.72,8225.0,2.920964601727974,0.0
4.728,8445.0,63.06270343191295,0.0
4.736,8143.0,72.31671083463311,0.0
4.744,8165.5,9.723368213720505,0.0
4.752,8168.0,-23.660888204066623,0.0
4.76,8177.0,-37.46755300042423,0.0
4.768,8184.0,-36.68345532843705,0.0
4.776,8188.5,-28.308636958508714,0.0
4.784,8198.5,-16.101497725798026,0.0
4.792,8209.0,-2.252871701306276,0.0
4.8,8225.5,11.794867096459257,0.0
4.808,8246.0,25.873566089252108,0.0
4.816,8266.5,38.653281242708545,0.0
4.824,8268.5,44.947658583259226,0.0
4.832,8256.5,39.81253914289641,1.0
4.84,8219.0,20.626696308512464,0.0
4.848,8185.5,-8.352388666271281,0.0
4.856,8169.5,-34.33714183929487,0.0
4.864,8165.5,-48.584582513021815,0.0
4.872,8164.5,-50.66600338489752,0.0
4.88,8168.5,-43.60248563629398,0.0
4.888,8170.0,-31.69082686786055,0.0
4.896,8170.0,-19.53513685837288,0.0
4.904,8172.0,-8.975922847869697,0.0
4.912,8171.0,-1.1660644148930714,0.0
4.92,8171.5,3.527311703788655,0.0
4.928,8169.5,5.461733277605163,0.0
4.936,8172.0,5.879834187121787,0.0
4.944,8172.5,5.848548583404181,0.0
4.952,8175.0,5.556239803420567,0.0
4.96,8174.5,4.949578984320169,0.0
4.968,8182.0,5.2704919499080916,0.0
4.976,8186.5,7.112820450592835,0.0
4.984,8201.5,11.107849026202757,0.0
4.992,8192.5,13.01222626185745,0.0
5.0,8178.0,7.364595357665394,0.0
5.008,8174.0,-0.8715290819579877,0.0
5.016,8176.0,-6.018827050178743,0.0
5.024,8168.0,-9.376210304684946,0.0
5.032,8454.0,46.85541208308268,0.0
5.04,8213.0,82.20040442490176,0.0
5.048,8156.0,29.759177423621168,0.0
5.056,8167.5,-15.062007834999577,0.0
5.064,8172.0,-36.01679154414137,0.0
5.072,8179.5,-40.497235470777696,0.0
5.08,8188.5,-33.63614011622235,0.0
5.088,8192.0,-21.92510346613585,0.0
5.096,8204.0,-8.508448443632687,0.0
5.104,8216.5,5.721490626614695,0.0
5.112,8234.0,19.398632349833406,0.0
5.12,8257.0,32.8203931655155,0.0
5.128,8268.0,42.7282694125156,0.0
5.136,8265.5,43.846218112548286,1.0
5.144,8236.0,31.322140549621736,0.0
5.152,8197.5,5.274159456360621,0.0
5.16,8174.5,-23.494699140921966,0.0
5.168,8165.0,-43.58625776797271,0.0
5.176,8164.5,-50.903189513264806,0.0
5.184,8165.5,-47.4107361080039,0.0
5.192,8168.5,-37.340074419326356,0.0
5.2,8169.5,-24.905902377450047,0.0
5.208,8171.0,-13.26557269357545,0.0
5.216,8170.0,-4.268133096474685,0.0
5.224,8170.0,1.495736379981281,0.0
5.232,8169.5,4.575557583801356,0.0
5.24,8170.0,5.703250229176092,0.0
5.248,8171.0,5.811936984089698,0.0
5.256,8172.0,5.403657552541972,0.0
5.264,8173.0,4.751545151529172,0.0
5.272,8181.0,5.484204041643807,0.0
5.28,8186.0,7.7419379519376434,0.0
5.288,8187.5,9.23134424707473,0.0
5.296,8198.5,11.26635622856702,0.0
5.304,8177.0,8.616587717976927,0.0
5.312,8173.0,0.5334715658705136,0.0
5.32,8173.0,-5.144953884059305,0.0
5.328,8174.5,-7.416678360099922,0.0
5.336,8267.0,11.568560996106953,0.0
5.344,8396.5,66.3972528507561,0.0
5.352,8148.0,64.44444548096953,0.0
5.36,8163.5,5.916927756798032,0.0
5.368,8169.0,-25.3029085146959,0.0
5.376,8176.5,-37.274137907717204,0.0
5.384,8182.5,-35.94464283587149,0.0
5.392,8192.0,-26.54208674003371,0.0
5.4,8200.0,-13.38207250219466,0.0
5.408,8212.5,0.617785266862029,0.0
5.416,8228.0,14.524037613248993,0.0
5.424,8250.0,28.207437700068567,0.0
5.432,8265.0,39.582327951033676,0.0
5.44,8268.0,43.98568600393605,0.0
5.448,8251.0,37.06086397483409,1.0
5.456,8213.0,16.110125881121803,0.0
5.464,8182.0,-12.81934820381639,0.0
5.472,8166.5,-37.48461531394969,0.0
5.48,8166.0,-49.65731667831551,0.0
5.488,8166.0,-49.42974727225419,0.0
5.496,8170.5,-40.88167626222162,0.0
5.504,8171.0,-28.60671237067072,0.0
5.512,8172.0,-16.703752471349162,0.0
5.52,8172.0,-6.927574748886627,0.0
5.528,8171.5,-0.19780767161910262,0.0
5.536,8171.5,3.710005048863877,0.0
5.544,8172.5,5.662899317287611,0.0
5.552,8174.0,6.470027450467796,0.0
5.56,8173.0,6.068579579670313,0.0
5.568,8173.0,4.706794851820632,0.0
5.576,8176.0,3.800734425653445,0.0
5.584,8185.5,5.242415886312074,0.0
5.592,8184.0,6.934618392717084,0.0
5.6,8203.5,10.561429001734496,0.0
5.608,8186.5,11.615833579302489,0.0
5.616,8173.5,4.349284501388638,0.0
5.624,8173.0,-3.3656046387745846,0.0
5.632,8176.5,-6.805009495537661,0.0
5.64,8193.0,-3.7213316093555022,0.0
5.648,8508.0,66.39227146092867,0.0
5.656,8172.0,93.50117140427756,0.0
5.664,8163.5,24.97581494424685,0.0
5.672,8168.0,-20.15379953935576,0.0
5.68,8171.5,-42.15341865487676,0.0
5.688,8178.0,-46.72999306343672,0.0
5.696,8185.5,-39.49154155893416,0.0
5.704,8196.0,-25.545934597445466,0.0
5.712,8206.0,-9.237293517306398,0.0
5.72,8222.5,7.2220645043687455,0.0
5.728,8240.0,22.80737950539242,0.0
5.736,8258.5,35.92147083856776,0.0
5.744,8263.5,43.03207322696676,0.0
5.752,8256.0,40.20234946709638,1.0
5.76,8219.0,23.342318112716384,0.0
5.768,8185.5,-4.570855694260217,0.0
5.776,8163.5,-31.72436073948097,0.0
5.784,8160.5,-48.08063191974202,0.0
5.792,8162.5,-50.66841323766994,0.0
5.8,8163.5,-43.903990859950454,0.0
5.808,8165.5,-32.63425691080488,0.0
5.816,8164.0,-20.91946587520647,0.0
5.824,8163.0,-11.330471881505673,0.0
5.832,8162.0,-4.350325014509053,0.0
5.84,8158.5,-0.4820707530536765,0.0
5.848,8159.5,1.3679439954858026,0.0
5.856,8158.5,2.254643211632583,0.0
5.864,8158.5,2.232904318447254,0.0
5.872,8159.0,1.9836637343062193,0.0
5.88,8161.0,2.0462684882541,0.0
5.888,8168.5,3.713912211489287,0.0
5.896,8170.0,5.975788450514301,0.0
5.904,8188.5,10.493474751199528,0.0
5.912,8165.5,10.654938640497448,0.0
5.92,8155.0,2.2909360412115802,0.0
5.928,8156.5,-4.841561670656347,0.0
5.936,8156.0,-8.121370338006273,0.0
5.944,8177.5,-4.539430862868812,0.0
5.952,8466.5,61.70255948262775,0.0
5.96,8130.5,81.920988302267,0.0
5.968,8137.5,14.242973800593745,0.0
5.976,8144.0,-25.18303421834321,0.0
5.984,8146.0,-42.94490812171466,0.0
5.992,8156.5,-44.3845357919115,0.0
6.0,8163.5,-34.9314452797646,0.0
6.008,8171.0,-21.08252176615133,0.0
6.016,8181.5,-6.018517247436193,0.0
6.024,8194.0,8.501707403422643,0.0
6.032,8219.0,23.461266043126898,0.0
6.04,8232.0,36.51475082718889,0.0
6.048,8238.0,42.58020864396872,0.0
6.056,8224.5,38.17939199032071,1.0
6.064,8193.0,20.594772707916036,0.0
6.072,8154.0,-7.330360891195369,0.0
6.08,8133.5,-34.88976867537144,0.0
6.088,8129.5,-50.904026448244394,0.0
6.096,8129.0,-53.57653454955812,0.0
6.104,8133.5,-46.21701311074162,0.0
6.112,8134.5,-33.73390502228017,0.0
6.12,8132.5,-21.441258124144497,0.0
6.128,8131.0,-11.635712086393596,0.0
6.136,8131.0,-4.379068267448474,0.0
6.144,8126.5,-0.3429363480279335,0.0
6.152,8131.0,2.096018613348633,0.0
6.16,8127.0,3.3227818067139197,0.0
6.168,8132.0,3.7488154188683893,0.0
6.176,8129.0,3.8410079767998013,0.0
6.184,8137.5,4.436842890710523,0.0
6.192,8140.0,6.363849991424331,0.0
6.2,8153.5,9.807457228501107,0.0
6.208,8146.0,11.582879539290388,0.0
6.216,8124.5,4.952036205871536,0.0
6.224,8126.0,-3.8062372359361234,0.0
6.232,8130.0,-7.285140685093211,0.0
6.24,8120.5,-9.361699665440483,0.0
6.248,8396.0,45.17359021070865,0.0
6.256,8117.0,69.8617683703576,0.0
6.264,8096.5,12.682350658733867,0.0
6.272,8125.5,-21.31969975898369,0.0
6.28,8124.5,-32.475715109877,0.0
6.288,8133.5,-32.51525586533194,0.0
6.296,8140.5,-24.34013043202299,0.0
6.304,8152.5,-11.933407995034258,0.0
6.312,8163.5,1.9120716670713591,0.0
6.32,8176.0,14.611442250819437,0.0
6.328,8198.5,27.05709081739542,0.0
6.336,8213.5,37.976533437496755,0.0
6.344,8225.0,44.09055492111247,0.0
6.352,8225.5,43.47333849087954,1.0
6.36,8196.5,30.694672967478255,0.0
6.368,8160.5,5.204162938756099,0.0
6.376,8129.0,-24.45020083753616,0.0
6.384,8124.0,-45.7377837293659,0.0
6.392,8124.0,-52.41434140035744,0.0
6.4,8125.5,-48.10976253605372,0.0
6.408,8130.0,-37.044228883737105,0.0
6.416,8133.5,-23.249341580709824,0.0
6.424,8130.5,-11.464042953221679,0.0
6.432,8131.5,-3.1647541955578617,0.0
6.44,8131.0,2.325395996796715,0.0
6.448,8132.0,5.32185470078025,0.0
6.456,8128.5,5.7763473886011525,0.0
6.464,8139.0,6.599476939937176,0.0
6.472,8143.0,9.048077751104302,0.0
6.48,8146.5,10.656637030516777,0.0
6.488,8163.5,14.18043127550277,0.0
6.496,8146.0,14.012326210819765,0.0
6.504,8138.5,6.680954497538323,0.0
6.512,8140.5,0.2086272588699103,0.0
6.52,8144.0,-2.5270722211155316,0.0
6.528,8166.5,1.549995025250837,0.0
6.536,8444.0,65.0164156222254,0.0
6.544,8114.0,81.96730282897238,0.0
6.552,8134.0,16.23156343708979,0.0
6.56,8146.0,-18.567714695552695,0.0
6.568,8151.0,-32.85975168863979,0.0
6.576,8159.0,-33.674201873434185,0.0
6.584,8171.5,-24.862292995354437,0.0
6.592,8179.5,-11.693360634547162,0.0
6.6,8193.0,2.2600434702324037,0.0
6.608,8208.5,16.09413829247046,0.0
6.616,8228.0,28.98606668210732,0.0
6.624,8249.5,40.5920358291778,0.0
6.632,8261.5,48.145632704548916,0.0
6.64,8248.0,45.006920003695996,1.0
6.648,8209.0,25.60131690065441,0.0
6.656,8176.0,-4.466245958580203,0.0
6.664,8156.0,-32.398961147516275,0.0
6.672,8153.0,-48.70517688907876,0.0
6.68,8155.0,-51.16866711393118,0.0
6.688,8162.5,-42.92693943834752,0.0
6.696,8162.0,-30.114458802444233,0.0
6.704,8164.5,-17.562869818813397,0.0
6.712,8166.0,-6.659939121876732,0.0
6.72,8165.0,0.8999119111454092,0.0
6.728,8164.5,4.927906844635345,0.0
6.736,8165.5,6.665077975840177,0.0
6.744,8167.0,7.192685687486119,0.0
6.752,8172.5,7.844321739554516,0.0
6.76,8177.5,9.185565115665213,0.0
6.768,8181.5,10.42484156273008,0.0
6.776,8198.5,13.867535890523413,0.0
6.784,8192.0,15.946216169431636,0.0
6.792,8175.5,10.058990708557758,0.0
6.8,8173.0,1.1705178925431028,0.0
6.808,8175.5,-4.263574605991607,0.0
6.816,8168.5,-7.750233425076885,0.0
6.824,8464.5,50.405727387104434,0.0
6.832,8177.0,78.8935205075602,0.0
6.84,8158.5,21.263913231725837,0.0
6.848,8172.0,-17.063505858435065,0.0
6.856,8177.0,-33.363684175446906,0.0
6.864,8189.0,-34.472140418233494,0.0
6.872,8195.0,-26.223881397065497,0.0
6.88,8203.0,-14.509813117184422,0.0
6.888,8216.0,-1.091956203239306,0.0
6.896,8232.5,13.035770021125245,0.0
6.904,8249.5,26.258585030748236,0.0
6.912,8271.5,38.06515674287721,0.0
6.92,8283.0,46.120494339940024,0.0
6.928,8277.5,45.11780133671596,0.0
6.936,8248.0,30.533890267792913,0.0
6.944,8210.5,3.5915359060441006,1.0
6.952,8188.5,-25.042546328129674,0.0
6.96,8179.5,-44.51327529622836,0.0
6.968,8178.0,-51.424653017557375,0.0
6.976,8181.5,-47.30684437234049,0.0
6.984,8185.5,-36.1670469540727,0.0
6.992,8186.5,-23.07413378952333,0.0
7.0,8185.0,-11.93484590376056,0.0
7.008,8184.0,-4.048377961478309,0.0
7.016,8183.0,0.8208464132274003,0.0
7.024,8184.0,3.5760476759396624,0.0
7.032,8183.0,4.6632981230307,0.0
7.04,8184.0,4.599285206438708,0.0
7.048,8192.0,5.702829566970422,0.0
7.056,8194.0,7.533855849946349,0.0
7.064,8207.5,10.641163079213584,0.0
7.072,8209.0,13.930005890919574,0.0
7.08,8189.0,9.983503542722929,0.0
7.088,8183.5,0.9262605634680767,0.0
7.096,8185.0,-5.387813334401244,0.0
7.104,8178.0,-9.428744665468457,0.0
7.112,8360.5,25.46575885512425,0.0
7.12,8284.5,63.99943887127756,0.0
7.128,8154.0,34.89700313971571,0.0
7.136,8178.0,-9.362964743394514,0.0
7.144,8180.5,-28.704728967912615,0.0
7.152,8187.0,-33.952733297749774,0.0
7.16,8194.5,-29.048547738276056,0.0
7.168,8204.0,-18.27100375950181,0.0
7.176,8211.0,-5.756118586144794,0.0
7.184,8225.5,6.910327115631844,0.0
7.192,8245.5,20.401933503530927,0.0
7.2,8266.0,33.56185673044115,0.0
7.208,8279.0,43.10031761867003,0.0
7.216,8277.5,44.55629025793087,1.0
7.224,8252.0,33.14596829834204,0.0
7.232,8211.5,7.888748267151868,0.0
7.24,8186.5,-21.62606136381396,0.0
7.248,8176.5,-42.95283380658316,0.0
7.256,8174.0,-51.60705557601614,0.0
7.264,8177.0,-48.79875888319884,0.0
7.272,8179.5,-38.615814473701676,0.0
7.28,8178.5,-26.43257342618722,0.0
7.288,8180.0,-15.117784216286282,0.0
7.296,8179.0,-6.032051589437742,0.0
7.304,8176.0,-0.5614373697540032,0.0
7.312,8178.5,2.6568449809240064,0.0
7.32,8175.0,3.953021974049534,0.0
7.328,8177.0,3.8138028838056925,0.0
7.336,8180.5,4.276905943703468,0.0
7.344,8186.0,5.741062325152825,0.0
7.352,8187.0,7.064504540323696,0.0
7.36,8207.5,11.168591533009703,0.0
7.368,8189.5,12.413203570673886,0.0
7.376,8175.0,4.627500107907963,0.0
7.384,8176.0,-3.43659684943691,0.0
7.392,8178.0,-7.07175937648617,0.0
7.4,8185.5,-6.208568478411053,0.0
7.408,8513.0,63.68398960023296,0.0
7.416,8179.5,94.137283761655,0.0
7.424,8161.5,26.06324861680787,0.0
7.432,8169.0,-20.29227832324841,0.0
7.44,8175.0,-41.87225049265612,0.0
7.448,8180.0,-46.03897397696801,0.0
7.456,8189.0,-38.66290396147883,0.0
7.464,8198.5,-24.65939046789549,0.0
7.472,8209.0,-8.55306452662876,0.0
7.48,8223.0,7.274305815589287,0.0
7.488,8244.0,22.682244769767294,0.0
7.496,8263.0,36.5276114014066,1.0
7.504,8271.0,44.693843616897766,0.0
7.512,8261.0,42.338624002834194,0.0
7.52,8224.5,25.026727534341944,0.0
7.528,8188.5,-3.817656554973837,0.0
7.536,8168.5,-31.738222118007116,0.0
7.544,8161.0,-49.056782136079846,0.0
7.552,8162.0,-53.18931812515234,0.0
7.56,8163.0,-47.160563001192486,0.0
7.568,8163.5,-36.138617914079305,0.0
7.576,8164.0,-23.936915899108953,0.0
7.584,8166.0,-12.580978393417809,0.0
7.592,8162.5,-4.26412208673969,0.0
7.6,8161.0,0.2794401401497453,0.0
7.608,8160.0,2.413376866252065,0.0
7.616,8157.0,2.4922838117088304,0.0
7.624,8157.0,1.548187132807925,0.0
7.632,8158.0,0.9594272943274973,0.0
7.64,8164.0,1.8958809641885637,0.0
7.648,8162.5,3.08161389790871,0.0
7.656,8183.5,7.29951143330004,0.0
7.664,8169.0,10.015232347187748,0.0
7.672,8153.0,3.871702639016121,0.0
7.68,8148.0,-4.638883832084275,0.0
7.688,8148.0,-9.990225218158002,0.0
7.696,8138.5,-13.581221460094639,0.0
7.704,8447.5,47.54223963938807,0.0
7.712,8181.5,85.26752451754146,0.0
7.72,8129.0,29.580820091232226,0.0
7.728,8133.0,-17.745596562129776,0.0
7.736,8135.5,-41.71596409215135,0.0
7.744,8143.5,-47.422208727111865,0.0
7.752,8151.0,-40.440443030516235,0.0
7.76,8159.5,-26.911376617827955,0.0
7.768,8170.5,-10.846360628594084,0.0
7.776,8185.5,5.610721070459931,0.0
7.784,8202.0,20.928236481314798,0.0
7.792,8222.5,34.37315266552105,0.0
7.8,8231.0,43.037802169637416,0.0
7.808,8223.0,41.739173209570026,1.0
7.816,8190.0,26.266681061465988,0.0
7.824,8152.0,-1.3714226992335625,0.0
7.832,8129.0,-29.970978112681678,0.0
7.84,8119.0,-49.082681193380495,0.0
7.848,8121.0,-54.57820366717874,0.0
7.856,8123.0,-48.73634341282218,0.0
7.864,8126.5,-36.76881743619356,0.0
7.872,8128.0,-23.095151458752753,0.0
7.88,8128.0,-11.200619141538255,0.0
7.888,8128.0,-2.4680662704192855,0.0
7.896,8128.0,3.0705390794157665,0.0
7.904,8131.0,6.493433657800097,0.0
7.912,8132.0,8.350449978087681,0.0
7.92,8133.0,8.591261236048013,0.0
7.928,8134.5,7.941892067659182,0.0
7.936,8142.0,8.1924790513699,0.0
7.944,8144.5,9.141607499537031,0.0
7.952,8164.5,12.913713446168003,0.0
7.96,8148.5,14.003862596417548,0.0
7.968,8134.0,6.29424900168101,0.0
7.976,8134.0,-2.181848163173072,0.0
7.984,8137.0,-6.2509016449482715,0.0
7.992,8135.5,-7.40317145765971,0.0
8.0,8465.5,60.1506070334799,0.0
8.008,8159.0,95.78332762272476,0.0
8.016,8125.0,32.770146117419245,0.0
8.024,8130.5,-15.286659986711811,0.0
8.032,8135.0,-39.346729557569006,0.0
8.04,8142.5,-45.15877651578262,0.0
8.048,8150.5,-38.582745178329105,0.0
8.056,8160.0,-25.268827081968993,0.0
8.064,8173.0,-8.967176876840995,0.0
8.072,8188.5,7.855695530469575,0.0
8.08,8208.0,23.764227221565307,0.0
8.088,8230.5,38.15020391029884,0.0
8.096,8237.0,46.798749494332924,0.0
8.104,8232.5,45.22684393226814,1.0
8.112,8199.5,29.779017289133435,0.0
8.12,8163.0,1.9294402739833458,0.0
8.128,8143.0,-26.376276152543824,0.0
8.136,8136.0,-44.63339764211969,0.0
8.144,8136.5,-49.991634638705136,0.0
8.152,8142.0,-44.35536033300832,0.0
8.16,8147.5,-32.04997175954691,0.0
8.168,8148.5,-18.58547586623149,0.0
8.176,8149.0,-7.498366441586313,0.0
8.184,8147.5,-0.008928171063416812,0.0
8.192,8149.0,4.421666891148561,0.0
8.2,8147.5,6.371536614940169,0.0
8.208,8150.0,6.762987022256084,0.0
8.216,8152.0,6.888495197846851,0.0
8.224,8156.5,7.246298703777029,0.0
8.232,8166.0,9.219490232536828,0.0
8.24,8170.0,11.746710036447666,0.0
8.248,8190.0,16.363583551823467,0.0
8.256,8172.5,17.123834584631823,0.0
8.264,8161.0,9.052546443645952,0.0
8.272,8162.5,0.8637188080595024,0.0
8.28,8169.0,-2.475683727300975,0.0
8.288,8183.5,0.21505930365560744,0.0
8.296,8480.5,65.41346153685458,0.0
8.304,8146.0,86.39295534524445,0.0
8.312,8156.5,19.508534556274526,0.0
8.32,8165.0,-19.12281007809679,0.0
8.328,8176.0,-35.08621380996237,0.0
8.336,8179.5,-36.24509835462845,0.0
8.344,8183.0,-30.00517026514217,0.0
8.352,8200.0,-17.577582204633018,0.0
8.36,8211.0,-1.8425350946483832,0.0
8.368,8229.5,13.769370210907027,0.0
8.376,8248.5,28.575907131728854,1.0
8.384,8268.5,40.96775598826139,0.0
8.392,8275.5,47.60120185933533,0.0
8.4,8268.5,44.30730675026143,0.0
8.408,8230.5,26.44825483616978,0.0
8.416,8196.0,-2.9352363995474207,0.0
8.424,8171.5,-31.92131682427521,0.0
8.432,8170.5,-49.433659607721665,0.0
8.44,8171.0,-52.397854385800656,0.0
8.448,8175.5,-45.18523696779198,0.0
8.456,8174.0,-33.45618917761294,0.0
8.464,8180.5,-20.425792350998563,0.0
8.472,8178.5,-8.703492224628917,0.0
8.48,8178.5,-0.8599927512047998,0.0
8.488,8178.5,3.909024958563805,0.0
8.496,8176.5,5.728158197531002,0.0
8.504,8175.0,5.220481316081305,0.0
8.512,8186.5,6.17176370102834,0.0
8.52,8188.0,8.454549025789447,0.0
8.528,8187.0,8.624925490260694,0.0
8.536,8206.0,11.095460179481734,0.0
8.544,8183.5,10.15927470854922,0.0
8.552,8176.0,1.9363254748980125,0.0
8.56,8174.5,-5.058990361585074,0.0
8.568,8178.0,-8.020404313732342,0.0
8.576,8218.5,0.43344458894671334,0.0
8.584,8410.5,52.86726322694744,0.0
8.592,8128.0,57.37201140540378,0.0
8.6,8150.0,-1.882526796591037,0.0
8.608,8159.0,-30.306824166164233,0.0
8.616,8164.5,-39.559672548525896,0.0
8.624,8169.5,-36.888919872610586,0.0
8.632,8177.5,-27.060734757157434,0.0
8.64,8185.0,-13.978972706167497,0.0
8.648,8195.5,-0.4456480957403528,0.0
8.656,8208.5,12.426572650385424,0.0
8.664,8230.5,25.305696538503753,0.0
8.672,8248.5,37.25777985510149,0.0
8.68,8253.5,43.37642198604067,0.0
8.688,8236.5,37.966989398015585,1.0
8.696,8186.0,15.221310508150736,0.0
8.704,8155.0,-17.18869400659537,0.0
8.712,8140.5,-43.04559585346078,0.0
8.72,8130.0,-56.91862516663514,0.0
8.728,8128.0,-59.047336722460614,0.0
8.736,8132.5,-50.84322795572416,0.0
8.744,8138.5,-36.13773941652016,0.0
8.752,8141.5,-20.123322472871905,0.0
8.76,8138.5,-7.601489481815406,0.0
8.768,8142.5,1.160678259305996,0.0
8.776,8139.5,6.370938116247089,0.0
8.784,8136.0,7.158412430441103,0.0
8.792,8144.0,7.458177332400965,0.0
8.8,8147.0,8.752019152551611,0.0
8.808,8153.0,10.028993082923762,0.0
8.816,8168.0,13.553996942121785,0.0
8.824,8155.0,13.992334141080846,0.0
8.832,8147.0,7.839845713685918,0.0
8.84,8154.5,2.9105106409767814,0.0
8.848,8157.0,1.597050481180986,0.0
8.856,8179.5,5.6856612118679095,0.0
8.864,8452.5,67.61253908797721,0.0
8.872,8116.0,81.0120312397139,0.0
8.88,8142.0,13.218682703432478,0.0
8.888,8154.0,-21.114868857554484,0.0
8.896,8167.0,-33.110890693337524,0.0
8.904,8174.5,-30.997149479637756,0.0
8.912,8185.0,-21.370137838069468,0.0
8.92,8195.5,-8.146456575963612,0.0
8.928,8213.5,6.73167918782292,0.0
8.936,8231.0,21.76266139102313,0.0
8.944,8257.0,36.23956900113035,0.0
8.952,8280.0,49.3175822725168,0.0
8.96,8283.0,54.886591601391046,0.0
8.968,8270.5,47.91778156744954,1.0
8.976,8236.0,26.929398778233463,0.0
8.984,8200.0,-3.969119030201,0.0
8.992,8179.0,-33.2858332135479,0.0
9.0,8174.0,-50.88898587826429,0.0
9.008,8174.0,-54.60559453925134,0.0
9.016,8174.5,-48.42258769425348,0.0
9.024,8177.5,-36.70947890527623,0.0
9.032,8177.5,-23.603872903468528,0.0
9.04,8177.5,-12.274613380091523,0.0
9.048,8183.0,-2.5898771702618433,0.0
9.056,8180.5,4.1432182794249,0.0
9.064,8184.5,7.803450269113682,0.0
9.072,8187.0,10.112965622903175,0.0
9.08,8195.5,12.192873306431238,0.0
9.088,8196.0,13.413051188742429,0.0
9.096,8200.5,13.122589617470112,0.0
9.104,8212.5,14.332235245902666,0.0
9.112,8193.5,11.444575872818177,0.0
9.12,8187.0,2.792015072466711,0.0
9.128,8185.0,-4.484954567254363,0.0
9.136,8184.5,-8.619322425689006,0.0
9.144,8280.5,9.753138977093386,0.0
9.152,8364.5,55.9140397460676,0.0
9.16,8140.0,46.03202614046472,0.0
9.168,8175.0,-5.506185119918655,0.0
9.176,8181.5,-26.67251142864484,0.0
9.184,8188.5,-32.388313223932755,0.0
9.192,8196.0,-27.895816450944494,0.0
9.2,8200.0,-18.66016674482944,0.0
9.208,8210.0,-7.5089056610559055,0.0
9.216,8223.0,4.923289448192008,0.0
9.224,8240.0,17.658265076831185,0.0
9.232,8262.0,30.48023940194753,0.0
9.24,8274.5,40.49034825188164,0.0
9.248,8277.0,43.33600776589219,0.0
9.256,8256.5,34.77126098105737,0.0
9.264,8215.5,11.86984957155505,0.0
9.272,8187.0,-17.672523970097927,0.0
9.28,8170.0,-41.76015925371371,0.0
9.288,8169.0,-53.35162882923055,0.0
9.296,8172.0,-51.709466512923655,0.0
9.304,8179.0,-40.855520708731774,0.0
9.312,8185.5,-25.484274749464703,0.0
9.32,8189.0,-10.487020132255566,0.0
9.328,8187.5,0.38088920777795465,0.0
9.336,8190.0,6.954706399218594,0.0
9.344,8192.5,10.809539590336499,0.0
9.352,8191.0,11.654728616792,0.0
9.36,8191.0,10.081126352640695,0.0
9.368,8204.0,10.277993536414215,0.0
9.376,8206.5,12.002818104868084,0.0
9.384,8224.5,15.391274509636105,0.0
9.392,8226.0,19.04556922892266,0.0
9.4,8208.5,15.050366813686196,0.0
9.408,8206.0,6.319780950266022,0.0
9.416,8207.0,-0.10807775997977842,0.0
9.424,8201.0,-4.914621061643402,0.0
9.432,8408.5,34.154527812862625,0.0
9.44,8278.5,67.91504237265644,0.0
9.448,8177.5,30.390742555365023,0.0
9.456,8206.0,-11.220471543439544,0.0
9.464,8212.0,-27.079740596337615,0.0
9.472,8221.5,-29.186615082605385,0.0
9.48,8230.0,-22.330166993070634,0.0
9.488,8236.0,-11.927396054461497,0.0
9.496,8245.5,-0.8002176681868605,0.0
9.504,8256.0,9.98771621503306,0.0
9.512,8276.0,21.084602001806843,0.0
9.52,8299.0,33.23554287170282,1.0
9.528,8313.5,43.04396958722441,0.0
9.536,8310.5,44.66814259834996,0.0
9.544,8287.0,33.442486338483604,0.0
9.552,8248.5,9.06672496004262,0.0
9.56,8220.5,-20.309687472017913,0.0
9.568,8211.0,-42.26494192004543,0.0
9.576,8213.0,-50.37363531928281,0.0
9.584,8214.0,-46.91896305650175,0.0
9.592,8217.0,-36.945203672437856,0.0
9.6,8221.0,-24.015304086929973,0.0
9.608,8221.0,-11.910375927552877,0.0
9.616,8222.0,-2.7414869715832992,0.0
9.624,8222.5,3.403071861548824,0.0
9.632,8225.0,7.133910436167298,0.0
9.64,8224.5,8.667338840100228,0.0
9.648,8225.0,8.260134997325395,0.0
9.656,8227.5,7.379883825059551,0.0
9.664,8235.5,7.885585891986466,0.0
9.672,8237.5,9.03211760515228,0.0
9.68,8251.5,11.609612119662415,0.0
9.688,8235.5,10.96518224661304,0.0
9.696,8227.0,3.916246230935485,0.0
9.704,8226.0,-2.787089892621225,0.0
9.712,8229.5,-5.818124039160011,0.0
9.72,8252.5,-1.3146045141008926,0.0
9.728,8544.5,65.90283872433292,0.0
9.736,8214.0,87.79789387235496,0.0
9.744,8219.0,20.935478049935682,0.0
9.752,8227.5,-19.022848893672972,0.0
9.76,8233.0,-36.909837604657014,0.0
9.768,8238.0,-39.747047539583264,0.0
9.776,8244.0,-33.15153819020952,0.0
9.784,8252.0,-21.364588801260652,0.0
9.792,8262.5,-7.375117276457331,0.0
9.8,8276.5,7.021758146718184,0.0
9.808,8295.5,21.213392323028984,0.0
9.816,8313.5,33.94923120982162,0.0
9.824,8323.0,41.95235382921123,0.0
9.832,8310.5,39.71201285552661,1.0
9.84,8272.0,21.946926969277,0.0
9.848,8237.5,-6.800688888718923,0.0
9.856,8219.0,-33.59886049444685,0.0
9.864,8215.5,-48.8478893030358,0.0
9.872,8216.5,-50.97097526859898,0.0
9.88,8219.0,-43.78371043826655,0.0
9.888,8218.0,-32.588595327848225,0.0
9.896,8222.0,-20.4141045246472,0.0
9.904,8222.0,-9.301908234059056,0.0
9.912,8219.5,-1.8306466450324024,0.0
9.92,8220.0,2.456791132365197,0.0
9.928,8219.5,4.619896231314215,0.0
9.936,8220.0,5.1987222212537745,0.0
9.944,8219.5,4.752851305737295,0.0
9.952,8220.0,3.7685756232672247,0.0
9.96,8227.5,4.249522654969951,0.0
9.968,8227.0,5.319781913116458,0.0
9.976,8246.0,8.925754993584405,0.0
9.984,8226.5,9.602921304487836,0.0
9.992,8212.0,1.6012521005982308,0.0
10.0,8206.5,-7.4597070798160985,0.0
10.008,8206.0,-12.913168703269548,0.0
10.016,8205.5,-14.38484894546059,0.0
10.024,8530.0,53.119181750098505,0.0
10.032,8206.5,85.19176009648663,0.0
10.04,8183.0,20.350967634303743,0.0
10.048,8184.0,-25.67798558345794,0.0
10.056,8188.0,-47.98484280775028,0.0
10.064,8190.0,-52.67620789189891,0.0
10.072,8196.0,-45.82993199552266,0.0
10.08,8200.0,-32.78968883134053,0.0
10.088,8205.0,-18.26769924449013,0.0
10.096,8218.0,-3.2324048786420008,0.0
10.104,8235.0,12.278538884336513,0.0
10.112,8252.5,26.638492468516688,0.0
10.12,8258.5,35.89330483050503,0.0
10.128,8248.5,35.107533628774945,1.0
10.136,8211.0,19.615824192322634,0.0
10.144,8174.5,-7.638198709360722,0.0
10.152,8152.0,-34.651890474532365,0.0
10.16,8141.0,-52.2181852551721,0.0
10.168,8141.0,-56.9372788553751,0.0
10.176,8137.0,-51.912982795789276,0.0
10.184,8135.5,-42.19465597758267,0.0
10.192,8134.0,-30.662948102196196,0.0
10.2,8130.0,-20.317904747983903,0.0
10.208,8124.5,-13.060286812386948,0.0
10.216,8121.0,-8.62675731140348,0.0
10.224,8117.5,-6.126962809646329,0.0
10.232,8115.5,-4.843323114745317,0.0
10.24,8114.0,-4.064928648217119,0.0
10.248,8111.0,-3.9076499899840655,0.0
10.256,8116.0,-2.813588139875492,0.0
10.264,8118.0,-0.30988282317662197,0.0
10.272,8130.0,4.077997807399697,0.0
10.28,8131.5,8.812771704379202,0.0
10.288,8110.5,6.29292289575983,0.0
10.296,8106.0,-1.3610639444264052,0.0
10.304,8109.0,-5.987717020540913,0.0
10.312,8102.5,-8.531156331139528,0.0
10.32,8291.5,28.542982285551034,0.0
10.328,8231.0,72.39376964482199,0.0
10.336,8090.5,46.28683733632829,0.0
10.344,8108.5,-1.1972412533671104,0.0
10.352,8116.5,-23.785909711614977,0.0
10.36,8125.5,-30.06547231642935,0.0
10.368,8134.5,-25.543499970892753,0.0
10.376,8143.0,-15.421252457842002,0.0
10.384,8154.0,-3.113061995382168,0.0
10.392,8166.0,9.336877455172953,0.0
10.4,8180.0,20.595991723286488,0.0
10.408,8199.0,30.87394509211572,1.0
10.416,8213.5,39.115532888552025,0.0
10.424,8213.0,40.91942937948352,0.0
10.432,8190.0,30.98131293399433,0.0
10.44,8155.0,8.557346714849928,0.0
10.448,8129.5,-18.36174457752827,0.0
10.456,8123.0,-38.035419956331225,0.0
10.464,8125.5,-44.72098382313334,0.0
10.472,8129.0,-40.66878131587055,0.0
10.48,8132.5,-30.676342383132578,0.0
10.488,8136.0,-18.685829109120732,0.0
10.496,8133.5,-8.557366251534631,0.0
10.504,8134.0,-1.6786139335829375,0.0
10.512,8138.0,3.5633202420938233,0.0
10.52,8138.5,7.042503772832788,0.0
10.528,8140.5,8.543112539921594,0.0
10.536,8143.0,9.054687100783667,0.0
10.544,8145.5,9.005938132973142,0.0
10.552,8149.5,8.939656909432642,0.0
10.56,8160.0,10.507462748996431,0.0
10.568,8163.0,12.599666288593198,0.0
10.576,8178.5,15.70629913309972,0.0
10.584,8181.0,18.839711175710363,0.0
10.592,8162.5,14.567670114921839,0.0
10.6,8164.0,6.359447322848837,0.0
10.608,8167.0,1.4603043273468757,0.0
10.616,8158.5,-2.7820946698016087,0.0
10.624,8409.5,44.67370584043829,0.0
10.632,8241.5,82.92289533321582,0.0
10.64,8157.5,41.4875055073619,0.0
10.648,8172.0,-3.5062185456333737,0.0
10.656,8184.0,-24.16987681287037,0.0
10.664,8193.0,-28.435574322397542,0.0
10.672,8206.0,-22.152513956716575,0.0
10.68,8214.5,-10.685672099839167,0.0
10.688,8228.0,2.210491423048552,0.0
10.696,8244.0,15.528998995512438,0.0
10.704,8258.0,27.180187602153637,0.0
10.712,8278.5,36.99822251325713,0.0
10.72,8288.0,43.324249662183774,0.0
10.728,8287.0,42.233541070168485,1.0
10.736,8264.5,30.38432510728353,0.0
10.744,8228.5,6.818497773099125,0.0
10.752,8201.0,-21.125160749117867,0.0
10.76,8195.5,-41.19009781332761,0.0
10.768,8196.0,-47.83306762087341,0.0
10.776,8202.0,-43.181696007905884,0.0
10.784,8208.0,-31.432417803912813,0.0
10.792,8203.5,-19.411937256752935,0.0
10.8,8205.0,-9.972868534653799,0.0
10.808,8202.0,-3.1850655057812673,0.0
10.816,8199.0,0.0863185948244336,0.0
10.824,8197.5,1.0885691315315853,0.0
10.832,8194.0,0.4947543958926417,0.0
10.84,8194.5,-0.5443397389385609,0.0
10.848,8200.0,0.14947497809703236,0.0
10.856,8204.0,2.477991517777582,0.0
10.864,8206.5,4.807334955504302,0.0
10.872,8222.0,9.133470939326116,0.0
10.88,8224.0,13.882463052273351,0.0
10.888,8206.0,11.317450709887908,0.0
10.896,8203.5,3.896480628295876,0.0
10.904,8207.0,-0.878720474691363,0.0
10.912,8196.5,-4.999647908785164,0.0
10.92,8385.0,29.686794762077625,0.0
10.928,8269.0,60.51124104212795,0.0
10.936,8164.5,24.518217612021772,0.0
10.944,8200.5,-14.479854761069419,0.0
10.952,8207.0,-26.665148543174382,0.0
10.96,8215.5,-26.764247572248223,0.0
10.968,8224.5,-19.189814306415883,0.0
10.976,8223.5,-10.16649801052813,0.0
10.984,8237.5,-0.6328518147106479,0.0
10.992,8255.5,11.63890501088872,0.0
11.0,8272.5,24.282335237693587,0.0
11.008,8287.5,34.61577676957222,0.0
11.016,8306.0,42.32287432525072,0.0
11.024,8301.5,43.32440334939133,1.0
11.032,8281.0,32.24069442949417,0.0
11.04,8246.5,9.56119208271798,0.0
11.048,8212.5,-19.29562425529639,0.0
11.056,8203.0,-42.32313932883494,0.0
11.064,8202.0,-51.67004495306719,0.0
11.072,8204.0,-49.159700004814795,0.0
11.08,8209.5,-38.68963918285385,0.0
11.088,8205.0,-26.427555677203145,0.0
11.096,8206.5,-15.781952802564092,0.0
11.104,8205.5,-6.991280073993266,0.0
11.112,8203.0,-1.4475830190797296,0.0
11.12,8202.0,1.3353680670011272,0.0
11.128,8207.5,3.6980968997488617,0.0
11.136,8209.0,5.964841465957079,0.0
11.144,8210.0,6.911802154129191,0.0
11.152,8209.0,6.42392235412558,0.0
11.16,8227.0,8.634562604354414,0.0
11.168,8219.5,10.777988650392444,0.0
11.176,8198.0,4.486813078572595,0.0
11.184,8198.5,-4.204348915955734,0.0
11.192,8198.0,-8.706858869692269,0.0
11.2,8195.5,-10.662475730582855,0.0
11.208,8391.5,29.329742359007696,0.0
11.216,8218.5,53.23325803048988,0.0
11.224,8156.0,11.186123413855057,0.0
11.232,8195.5,-20.075349983034585,0.0
11.24,8195.5,-27.449791236155534,0.0
11.248,8198.5,-27.036408808601664,0.0
11.256,8211.5,-19.424083234768432,0.0
11.264,8220.5,-7.4826280154698,0.0
11.272,8228.5,4.187097655773414,0.0
11.28,8246.5,15.765562183932843,0.0
11.288,8263.0,27.27118014052803,1.0
11.296,8277.0,36.17212596913555,0.0
11.304,8292.0,41.87673330918369,0.0
11.312,8289.5,41.45518192870486,0.0
11.32,8264.0,29.20035916138454,0.0
11.328,8228.0,4.961257371147212,0.0
11.336,8197.0,-23.814047872648644,0.0
11.344,8184.5,-46.10831106596879,0.0
11.352,8185.0,-54.75414726001168,0.0
11.36,8186.0,-51.25945428153091,0.0
11.368,8194.5,-39.48030247594829,0.0
11.376,8189.5,-25.81339877219648,0.0
11.384,8195.0,-13.715048099319802,0.0
11.392,8195.5,-3.2549353338840774,0.0
11.4,8196.0,3.6289455515022837,0.0
11.408,8200.5,8.171374500086813,0.0
11.416,8203.0,11.048988436928084,0.0
11.424,8207.0,12.403602869628912,0.0
11.432,8209.0,12.549991957097745,0.0
11.44,8216.0,12.572546726618384,0.0
11.448,8226.5,14.255003521926028,0.0
11.456,8204.5,10.739319425060785,0.0
11.464,8202.0,2.0265718646821824,0.0
11.472,8199.0,-4.557039427606924,0.0
11.48,8199.5,-8.270427386760048,0.0
11.488,8276.5,6.620689390950929,0.0
11.496,8377.5,50.789043370444006,0.0
11.504,8149.0,43.16156153765451,0.0
11.512,8187.0,-6.812427858174942,0.0
11.52,8194.5,-26.038430820460917,0.0
11.528,8202.5,-30.2942610434352,0.0
11.536,8208.5,-25.357972929290327,0.0
11.544,8218.0,-15.42742949169633,0.0
11.552,8227.5,-3.333826404325464,0.0
11.56,8241.5,9.124827328703532,0.0
11.568,8257.5,21.238447808407273,0.0
11.576,8277.5,32.537253289215414,0.0
11.584,8296.5,42.25404871985825,0.0
11.592,8297.0,45.57819906187342,0.0
11.6,8279.0,37.058638709917886,1.0
11.608,8241.5,15.062961965433715,0.0
11.616,8210.5,-14.223574292946296,0.0
11.624,8197.0,-38.47850848534449,0.0
11.632,8194.0,-50.360004114613275,0.0
11.64,8193.5,-50.46658288030403,0.0
11.648,8200.5,-41.55032838312809,0.0
11.656,8200.0,-28.649794593871775,0.0
11.664,8201.0,-16.57464273910523,0.0
11.672,8199.5,-7.022656773869812,0.0
11.68,8200.5,-0.411060774938278,0.0
11.688,8216.0,6.932311465328439,0.0
11.696,8217.5,13.697263471551878,0.0
11.704,8220.0,16.43858141497799,0.0
11.712,8220.0,16.07826141328792,0.0
11.72,8222.5,13.93826660950117,0.0
11.728,8242.5,15.15624001935521,0.0
11.736,8227.5,14.600186724304876,0.0
11.744,8215.5,6.541654825916112,0.0
11.752,8209.5,-2.8933545767436044,0.0
11.76,8214.0,-8.34098811390163,0.0
11.768,8217.5,-8.66371076171663,0.0
11.776,8529.0,56.81371206433255,0.0
11.784,8204.5,84.26741191363294,0.0
11.792,8197.0,19.899676782500364,0.0
11.8,8210.5,-19.958516597070684,0.0
11.808,8215.0,-36.82722491819936,0.0
11.816,8216.5,-39.99410427703742,0.0
11.824,8226.0,-33.556104163946884,0.0
11.832,8235.0,-20.881614791413313,0.0
11.84,8242.5,-6.849079792780458,0.0
11.848,8258.0,7.187058569779083,0.0
11.856,8279.0,21.85534483294896,0.0
11.864,8294.5,34.67359698817859,0.0
11.872,8306.0,42.51348586447489,0.0
11.88,8296.5,41.113038605880774,0.0
11.888,8263.0,25.26665903176672,0.0
11.896,8226.0,-2.3387955806992977,0.0
11.904,8205.0,-30.159474721617926,0.0
11.912,8196.0,-48.169070875068655,0.0
11.92,8197.0,-53.151323237055976,0.0
11.928,8201.0,-47.017946975801124,0.0
11.936,8200.5,-35.547149744783155,0.0
11.944,8202.0,-23.169670867728428,0.0
11.952,8201.0,-12.234704267099232,0.0
11.96,8196.5,-5.036512001649498,0.0
11.968,8196.5,-0.9352720043791578,0.0
11.976,8197.5,1.8362936683208773,0.0
11.984,8197.5,3.401290067492937,0.0
11.992,8197.0,3.7090002244956395,0.0
12.0,8204.0,4.656606648894012,0.0
12.008,8205.5,6.247580000512926,0.0
12.016,8226.5,10.838040693324047,0.0
12.024,8211.5,13.135461629401334,0.0
12.032,8194.5,5.965035178790004,0.0
12.04,8191.5,-3.2659294301677164,0.0
12.048,8189.5,-9.251457352313764,0.0
12.056,8191.0,-11.49080897594854,0.0
12.064,8510.0,54.40539862605988,0.0
12.072,8191.0,85.12780656105929,0.0
12.08,8171.0,21.13262824871981,0.0
12.088,8179.5,-22.267430063056054,0.0
12.096,8187.5,-41.187184167782334,0.0
12.104,8192.0,-43.578071978839944,0.0
12.112,8200.5,-35.72917828823597,0.0
12.12,8208.0,-22.40157715364967,0.0
12.128,8217.0,-7.752348700711082,0.0
12.136,8232.0,6.989748206495506,0.0
12.144,8250.0,21.390398884096157,1.0
12.152,8270.0,34.42731432551727,0.0
12.16,8278.0,42.638160491729195,0.0
12.168,8268.5,40.72314173269501,0.0
12.176,8238.0,25.244460862556252,0.0
12.184,8201.0,-1.5272693651986629,0.0
12.192,8180.0,-28.97792223257443,0.0
12.2,8173.5,-46.43707070088749,0.0
12.208,8175.5,-50.64132799432309,0.0
12.216,8176.5,-44.83699328618695,0.0
12.224,8178.0,-34.09574983369657,0.0
12.232,8179.0,-22.063325980148647,0.0
12.24,8179.5,-11.295858470931307,0.0
12.248,8177.0,-3.624012111291904,0.0
12.256,8178.0,1.1560969535355525,0.0
12.264,8179.5,4.318519690621088,0.0
12.272,8179.0,5.738333549437812,0.0
12.28,8178.5,5.503709202182108,0.0
12.288,8187.0,6.164932066491247,0.0
12.296,8191.0,8.175062013222032,0.0
12.304,8195.5,9.860970661050033,0.0
12.312,8204.5,12.121035838133594,0.0
12.32,8181.5,8.759731014345334,0.0
12.328,8177.0,-0.17449040226529178,0.0
12.336,8175.0,-6.759674772462631,0.0
12.344,8172.0,-10.650799591023542,0.0
12.352,8306.0,15.426190523937748,0.0
12.36,8346.0,64.05763034959637,0.0
12.368,8148.5,50.92891099794201,0.0
12.376,8166.5,-1.2288139897689234,0.0
12.384,8171.0,-27.291735308371926,0.0
12.392,8174.5,-36.93314820446517,0.0
12.4,8181.5,-34.89040403404897,0.0
12.408,8189.5,-25.32801905536394,0.0
12.416,8196.0,-12.870451743813874,0.0
12.424,8210.0,0.6364123252180889,0.0
12.432,8225.0,14.452585752549794,0.0
12.44,8244.5,27.480643787705503,0.0
12.448,8258.5,37.86310348046845,0.0
12.456,8260.5,41.53159281132639,1.0
12.464,8240.0,33.6248864169811,0.0
12.472,8200.5,11.59289416113279,0.0
12.48,8175.0,-16.4739629077676,0.0
12.488,8165.0,-37.827687943163255,0.0
12.496,8162.0,-47.37703245100124,0.0
12.504,8164.0,-46.04588254113855,0.0
12.512,8165.5,-37.5624904994113,0.0
12.52,8168.0,-26.033306206944644,0.0
12.528,8168.0,-14.757257058277219,0.0
12.536,8168.0,-5.851245824551825,0.0
12.544,8165.0,-0.31003000426426297,0.0
12.552,8165.0,2.401137631778738,0.0
12.56,8166.5,3.946928131814275,0.0
12.568,8167.0,4.6713068415062935,0.0
12.576,8168.0,4.697929197845951,0.0
12.584,8176.0,5.840119515929246,0.0
12.592,8177.5,7.571035765579154,0.0
12.6,8187.5,9.796297874915808,0.0
12.608,8190.5,12.2829905455485,0.0
12.616,8170.0,8.316105717504115,0.0
12.624,8165.5,-0.3982438231935248,0.0
12.632,8163.0,-6.921623080926565,0.0
12.64,8156.0,-11.670996892103858,0.0
12.648,8346.0,24.676742999861517,0.0
12.656,8285.0,68.78625727377857,0.0
12.664,8143.0,42.97067544408992,0.0
12.672,8155.0,-5.3705858499256465,0.0
12.68,8160.0,-29.672169864265015,0.0
12.688,8166.0,-37.29812633339202,0.0
12.696,8173.5,-33.39520708949544,0.0
12.704,8181.0,-22.959407144349143,0.0
12.712,8190.0,-9.935811536499614,0.0
12.72,8201.5,3.4608746394374066,0.0
12.728,8218.0,16.5793663928348,0.0
12.736,8238.0,29.280973236361888,0.0
12.744,8251.5,39.19741903802901,0.0
12.752,8250.5,41.672957648830334,1.0
12.76,8224.5,31.302752580828837,0.0
12.768,8188.5,7.757312520907135,0.0
12.776,8161.0,-20.316624397962414,0.0
12.784,8148.5,-42.01129731564856,0.0
12.792,8147.0,-51.33229410130207,0.0
12.8,8148.0,-49.16428496083836,0.0
12.808,8149.5,-39.917489959278555,0.0
12.816,8153.5,-27.273333463177323,0.0
12.824,8150.0,-15.558490471352798,0.0
12.832,8146.5,-7.701606609523424,0.0
12.84,8145.0,-2.9089081003005504,0.0
12.848,8143.0,-0.3485421850216426,0.0
12.856,8142.0,0.6055946326102912,0.0
12.864,8140.5,0.5673022183937064,0.0
12.872,8138.5,-0.2564064497405525,0.0
12.88,8145.5,0.3168319676599367,0.0
12.888,8145.0,1.9357641146068545,0.0
12.896,8149.5,3.4169165260279897,0.0
12.904,8163.5,7.5543879930446565,0.0
12.912,8137.0,6.302187106095289,0.0
12.92,8131.5,-1.931474764648783,0.0
12.928,8131.5,-7.631668982210158,0.0
12.936,8137.5,-8.619898401437467,0.0
12.944,8221.5,10.489616878637662,0.0
12.952,8331.5,59.83496289286859,0.0
12.96,8098.0,54.71488073897558,0.0
12.968,8122.0,0.5904281576410995,0.0
12.976,8125.0,-25.99207749105244,0.0
12.984,8129.0,-36.342115993254765,0.0
12.992,8134.5,-35.01236012180266,0.0
13.0,8141.5,-26.36389732603402,0.0
13.008,8153.0,-13.472567416773472,0.0
13.016,8164.5,0.8928630412699476,0.0
13.024,8182.0,15.177910260068074,0.0
13.032,8200.0,28.577592550124564,1.0
13.04,8216.0,39.115670246539594,0.0
13.048,8215.5,42.584137489682234,0.0
13.056,8198.0,34.501710577648055,0.0
13.064,8160.5,13.25436472650631,0.0
13.072,8130.0,-15.213254773951576,0.0
13.08,8117.5,-38.52738446674448,0.0
13.088,8118.0,-48.92572598091965,0.0
13.096,8117.5,-47.6575704575514,0.0
13.104,8116.0,-40.0907368141543,0.0
13.112,8116.0,-29.84394619767363,0.0
13.12,8120.0,-18.442113317002168,0.0
13.128,8117.0,-8.698745264316358,0.0
13.136,8116.0,-2.434904300615017,0.0
13.144,8118.5,1.9451323874945956,0.0
13.152,8117.0,4.444874658952358,0.0
13.16,8125.0,6.577278011917542,0.0
13.168,8124.0,8.271290628158795,0.0
13.176,8133.5,9.75565861403038,0.0
13.184,8137.0,11.810349113118946,0.0
13.192,8154.0,15.423068256398437,0.0
13.2,8140.0,15.834207681280986,0.0
13.208,8134.5,9.692836002388958,0.0
13.216,8138.5,4.284839332630327,0.0
13.224,8142.0,1.9691829812056767,0.0
13.232,8215.5,16.032319720539135,0.0
13.24,8328.5,60.020650429016314,0.0
13.248,8103.5,54.05374531209418,0.0
13.256,8131.5,2.0824792646587866,0.0
13.264,8144.5,-20.592636436634848,0.0
13.272,8153.0,-26.488108009316647,0.0
13.28,8164.0,-21.97490427841649,0.0
13.288,8177.5,-10.96877796830222,0.0
13.296,8187.0,1.9021421553572964,0.0
13.304,8201.5,14.128815678056526,0.0
13.312,8224.0,26.776685515717645,0.0
13.32,8251.5,40.41199451940042,0.0
13.328,8268.0,51.33819468322895,0.0
13.336,8276.5,55.12397577176762,0.0
13.344,8256.0,46.55382519338559,1.0
13.352,8217.0,22.271443828134124,0.0
13.36,8186.0,-9.766787945054375,0.0
13.368,8170.5,-36.73337339295699,0.0
13.376,8168.0,-50.78956941941078,0.0
13.384,8172.0,-51.09563112271394,0.0
13.392,8173.0,-42.50843060392208,0.0
13.4,8181.0,-29.146487128648005,0.0
13.408,8180.5,-15.293048125180576,0.0
13.416,8185.5,-3.8621868211239416,0.0
13.424,8180.5,3.483558818467145,0.0
13.432,8179.0,5.971716686600985,0.0
13.44,8192.0,8.88728589061111,0.0
13.448,8192.5,12.022192397461367,0.0
13.456,8208.0,15.32227785514283,0.0
13.464,8201.5,16.789612194079382,0.0
13.472,8224.5,18.482851519694123,0.0
13.48,8207.5,17.907816958984313,0.0
13.488,8188.5,7.497876367576737,0.0
13.496,8191.0,-3.1662754956000754,0.0
13.504,8192.5,-8.17578929117849,0.0
13.512,8193.0,-9.490259683354225,0.0
13.52,8484.0,50.724890363286704,0.0
13.528,8157.0,71.29070904643936,0.0
13.536,8164.5,7.370673977579372,0.0
13.544,8180.5,-26.7479411870288,0.0
13.552,8184.5,-38.784313858879614,0.0
13.56,8191.5,-37.77513597597317,0.0
13.568,8204.0,-27.467287274184173,0.0
13.576,8209.0,-13.631613160095867,0.0
13.584,8223.0,0.4992108186149835,0.0
13.592,8239.0,14.909495300025583,0.0
13.6,8256.5,28.015335928294917,0.0
13.608,8279.0,39.69068583660783,0.0
13.616,8284.5,46.29831514407806,0.0
13.624,8284.0,44.20818928797121,0.0
13.632,8251.5,29.527681794366345,0.0
13.64,8219.0,3.0893551962349193,0.0
13.648,8195.0,-24.55760685349219,0.0
13.656,8183.5,-44.43743082955166,0.0
13.664,8185.5,-51.397944756230345,0.0
13.672,8193.0,-45.78098828726684,0.0
13.68,8189.5,-34.700987995478954,0.0
13.688,8198.0,-21.86571059565631,0.0
13.696,8194.0,-10.040495174692524,0.0
13.704,8196.0,-1.9334263372054465,0.0
13.712,8192.0,2.7456094132296585,0.0
13.72,8191.0,4.075012525905777,0.0
13.728,8195.5,4.958452221915422,0.0
13.736,8198.0,6.15926288800415,0.0
13.744,8205.5,7.9786116247667,0.0
13.752,8217.5,11.828785844531012,0.0
13.76,8204.0,12.005937739477304,0.0
13.768,8190.0,4.67219053678491,0.0
13.776,8192.0,-2.82494459351733,0.0
13.784,8193.5,-6.115390120214897,0.0
13.792,8194.5,-6.623436794262716,0.0
13.8,8513.0,59.354409801766224,0.0
13.808,8152.0,80.69198536072668,0.0
13.816,8171.5,11.30840344434796,0.0
13.824,8189.5,-23.778139044514546,1.0
13.832,8192.0,-36.735048986834954,0.0
13.84,8201.5,-36.37666724682799,0.0
13.848,8210.0,-26.9721739136221,0.0
13.856,8216.5,-14.256559765510247,0.0
13.864,8231.0,-0.2847864736252177,0.0
13.872,8242.5,13.333095640000238,0.0
13.88,8266.0,26.515762846215694,0.0
13.888,8283.0,38.56605125763167,0.0
13.896,8291.5,45.055174393728066,0.0
13.904,8281.0,41.65333322426818,0.0
13.912,8244.5,23.724214252066304,0.0
13.92,8205.5,-5.900620293518614,0.0
13.928,8184.5,-34.7841443779721,0.0
13.936,8177.5,-52.31254912316035,0.0
13.944,8177.5,-56.17772464545351,0.0
13.952,8179.0,-49.639925692310726,0.0
13.96,8183.5,-37.02167856541587,0.0
13.968,8184.5,-22.822690028507395,0.0
13.976,8183.5,-10.965242420937102,0.0
13.984,8185.0,-2.188156862919186,0.0
13.992,8178.5,2.3128433529498125,0.0
14.0,8183.0,4.21547145977388,0.0
14.008,8179.0,4.803717767125363,0.0
14.016,8183.0,4.423305349465863,0.0
14.024,8188.0,5.366412190172923,0.0
14.032,8191.5,6.847109597187,0.0
14.04,8209.5,11.077156690472975,0.0
14.048,8194.0,12.410123925351627,0.0
14.056,8182.0,5.698644612638873,0.0
14.064,8181.0,-1.7904056913223485,0.0
14.072,8182.0,-5.947971058825033,0.0
14.08,8186.0,-6.483461622273126,0.0
14.088,8506.0,60.376286523892986,0.0
14.096,8155.5,84.53209852453665,0.0
14.104,8159.5,15.211506389820443,0.0
14.112,8172.0,-24.71985783301693,0.0
14.12,8177.5,-40.90996373849703,0.0
14.128,8183.0,-42.03502323031353,0.0
14.136,8192.0,-33.36501392571449,0.0
14.144,8200.0,-19.705940769108793,0.0
14.152,8209.5,-5.065069778277348,0.0
14.16,8225.0,9.468962160054843,0.0
14.168,8240.5,22.96208381078668,1.0
14.176,8260.0,34.61109962274463,0.0
14.184,8268.0,41.871129803669646,0.0
14.192,8260.0,39.81654218083804,0.0
14.2,8226.5,24.08632047137621,0.0
14.208,8192.5,-2.6585828406834935,0.0
14.216,8173.0,-29.00249612868265,0.0
14.224,8163.0,-46.21199659021681,0.0
14.232,8163.0,-51.42639088949818,0.0
14.24,8165.0,-46.304725564230694,0.0
14.248,8166.0,-35.642535709481535,0.0
14.256,8170.0,-22.91160096634667,0.0
14.264,8167.5,-11.602426768095484,0.0
14.272,8166.5,-3.870187829649467,0.0
14.28,8164.5,0.6765092149018983,0.0
14.288,8166.0,3.160701157075664,0.0
14.296,8167.0,4.66140063432772,0.0
14.304,8166.5,4.944338886395144,0.0
14.312,8173.0,5.5878529124745455,0.0
14.32,8178.0,7.470701068457402,0.0
14.328,8180.0,8.881673671754697,0.0
14.336,8193.0,11.434066344494568,0.0
14.344,8172.0,9.575601149368367,0.0
14.352,8164.5,1.2021602446964152,0.0
14.36,8164.0,-5.566547179030522,0.0
14.368,8167.0,-8.214843272852931,0.0
14.376,8243.5,7.706341518950239,0.0
14.384,8390.0,61.51281544024937,0.0
14.392,8127.0,60.20676049541203,0.0
14.4,8153.5,1.9891612672743122,0.0
14.408,8160.0,-26.000284063900608,0.0
14.416,8167.5,-35.75103439142936,0.0
14.424,8173.5,-33.339272131913276,0.0
14.432,8181.5,-23.998121193103543,0.0
14.44,8190.5,-11.362267480589026,0.0
14.448,8204.0,2.4299779845350713,0.0
14.456,8220.5,16.34730059908179,0.0
14.464,8242.0,29.862969846905116,0.0
14.472,8256.5,40.68336531742102,0.0
14.48,8258.5,44.28541457404776,0.0
14.488,8242.0,36.73910704264972,1.0
14.496,8202.0,15.163154359778446,0.0
14.504,8172.5,-14.094648954421928,0.0
14.512,8157.5,-38.35213713408825,0.0
14.52,8155.5,-50.35645298783834,0.0
14.528,8156.0,-50.12760417594018,0.0
14.536,8159.5,-41.575123595822106,0.0
14.544,8164.0,-28.579514618031908,0.0
14.552,8164.0,-15.641587430191748,0.0
14.56,8163.0,-5.822970165621655,0.0
14.568,8162.0,0.4579732574402442,0.0
14.576,8163.0,4.103078691569863,0.0
14.584,8163.0,5.841013700075337,0.0
14.592,8162.0,5.778958153472104,0.0
14.6,8164.0,5.0704011619791345,0.0
14.608,8165.0,4.495531533744497,0.0
14.616,8170.5,4.801934297892785,0.0
14.624,8176.0,6.502419535720037,0.0
14.632,8177.5,7.952345919310346,0.0
14.64,8192.5,10.975124086511414,0.0
14.648,8171.0,9.770876397204802,0.0
14.656,8164.0,1.7547326144331237,0.0
14.664,8165.0,-4.47784472536614,0.0
14.672,8166.0,-7.076284926012704,0.0
14.68,8234.0,6.556607019346984,0.0
14.688,8414.0,64.29162225224559,0.0
14.696,8135.0,68.46286467548066,0.0
14.704,8156.0,7.84033951409765,0.0
14.712,8160.5,-23.990738917925,0.0
14.72,8168.5,-36.624546728166706,0.0
14.728,8175.0,-35.58108430588868,0.0
14.736,8184.0,-26.402807211849904,0.0
14.744,8191.0,-13.70299886283351,0.0
14.752,8203.0,-0.23310110986290056,0.0
14.76,8217.5,13.182286938377956,0.0
14.768,8239.5,26.574515103839758,0.0
14.776,8255.5,38.229077924584544,0.0
14.784,8256.5,42.79870172694427,0.0
14.792,8240.5,35.94786899059295,1.0
14.8,8201.0,15.10748080730059,0.0
14.808,8169.0,-14.115471755404542,0.0
14.816,8154.0,-38.85994433643191,0.0
14.824,8150.0,-51.48387404514119,0.0
14.832,8152.0,-51.55268391795016,0.0
14.84,8153.0,-43.16448010777049,0.0
14.848,8157.0,-30.637961406659315,0.0
14.856,8159.0,-17.358917368679386,0.0
14.864,8158.0,-6.669595023571219,0.0
14.872,8156.0,0.05033944595356843,0.0
14.88,8155.5,3.5061134978054724,0.0
14.888,8155.5,4.916133972149964,0.0
14.896,8156.0,5.106824230639859,0.0
14.904,8158.5,5.058245776418062,0.0
14.912,8159.5,4.977679679161611,0.0
14.92,8160.0,4.481809265252878,0.0
14.928,8167.5,5.143463728839151,0.0
14.936,8171.0,7.002264343081379,0.0
14.944,8177.5,9.082938279485688,0.0
14.952,8185.5,11.898726714252007,0.0
14.96,8161.5,8.491178747491176,0.0
14.968,8155.5,-0.9404271548833094,0.0
14.976,8157.0,-7.295037188962624,0.0
14.984,8154.0,-10.253580578740639,0.0
14.992,8279.0,14.476006146220698,0.0
15.0,8333.0,63.47615711700132,0.0
15.008,8126.5,51.675155255680465,0.0
15.016,8146.5,-1.2406050049712576,0.0
15.024,8151.5,-27.239287416463867,0.0
15.032,8158.0,-36.135608363225856,0.0
15.04,8165.0,-33.16023202310407,0.0
15.048,8174.5,-23.002153179238576,0.0
15.056,8185.0,-9.421267684343775,0.0
15.064,8197.0,4.6355895392528055,0.0
15.072,8213.0,17.966404717351224,0.0
15.08,8237.0,31.298340787396228,0.0
15.088,8253.5,42.711811291889035,0.0
15.096,8255.5,46.76566944203205,1.0
15.104,8238.0,38.90622420750174,0.0
15.112,8198.0,16.61222103723867,0.0
15.12,8167.5,-13.494232588048135,0.0
15.128,8153.0,-38.44679178289607,0.0
15.136,8151.5,-50.643519902816934,0.0
15.144,8152.0,-50.38279024307394,0.0
15.152,8157.0,-41.466314925789675,0.0
15.16,8158.0,-28.680538387818615,0.0
15.168,8158.0,-16.566442248077237,0.0
15.176,8157.0,-7.09481840029548,0.0
15.184,8156.0,-0.8262591072673331,0.0
15.192,8154.5,2.4954750969168344,0.0
15.2,8154.0,3.6729981004950787,0.0
15.208,8154.0,3.7103629852308586,0.0
15.216,8154.0,3.169925692737479,0.0
15.224,8154.0,2.3697138177742545,0.0
15.232,8156.0,1.945794897126234,0.0
15.24,8161.0,2.830190242890012,0.0
15.248,8166.0,4.967138188469335,0.0
15.256,8168.0,6.907954671765083,0.0
15.264,8185.0,10.8901385359718,0.0
15.272,8164.0,10.776918667534346,0.0
15.28,8155.0,2.947027819931691,0.0
15.288,8154.0,-4.173369164642736,0.0
15.296,8158.0,-7.13872570412309,0.0
15.304,8207.0,3.017826093524036,0.0
15.312,8435.5,65.26033476927546,0.0
15.32,8135.0,77.46655538791197,0.0
15.328,8147.0,13.99966215684708,0.0
15.336,8153.0,-21.979653058643407,0.0
15.344,8158.5,-37.5759264422054,0.0
15.352,8164.5,-38.75312335473541,0.0
15.36,8175.0,-30.202921145142682,0.0
15.368,8184.0,-16.583360235467126,0.0
15.376,8197.0,-1.5199230791708942,0.0
15.384,8210.5,13.032978944601155,0.0
15.392,8231.0,26.60981579334475,0.0
15.4,8250.0,38.67465512028707,0.0
15.408,8254.5,44.747316367755275,0.0
15.416,8241.5,39.817899876519505,1.0
15.424,8206.0,20.957197500934853,0.0
15.432,8172.5,-7.471106175774139,0.0
15.44,8154.0,-33.77449308563769,0.0
15.448,8152.0,-48.39782783044552,0.0
15.456,8153.5,-49.81051234114034,0.0
15.464,8158.5,-41.766154665960585,0.0
15.472,8160.0,-29.34853740784638,0.0
15.48,8159.5,-17.35089352312093,0.0
15.488,8158.5,-7.9313576865772575,0.0
15.496,8157.5,-1.5667739276548218,0.0
15.504,8156.5,2.0261701869198987,0.0
15.512,8158.0,3.9459905089199765,0.0
15.52,8158.0,4.7895615812440155,0.0
15.528,8158.0,4.562294053532469,0.0
15.536,8158.0,3.736190782891981,0.0
15.544,8160.5,3.1919361085904256,0.0
15.552,8161.0,2.9990320743772827,0.0
15.56,8169.0,4.166817291651341,0.0
15.568,8168.5,5.7579610418627,0.0
15.576,8187.0,9.503400812104019,0.0
15.584,8164.5,9.46041668404996,0.0
15.592,8154.5,1.3609083167591507,0.0
15.6,8156.0,-5.372014349618894,0.0
15.608,8159.0,-7.620039221441175,0.0
15.616,8182.5,-2.3802576916953058,0.0
15.624,8474.0,65.43417528263899,0.0
15.632,8145.0,87.9576449101919,0.0
15.64,8147.5,21.238351407709843,0.0
15.648,8150.5,-20.315659002237453,0.0
15.656,8155.0,-40.27828237041513,0.0
15.664,8162.0,-43.628022409581035,0.0
15.672,8170.0,-35.9300176224267,0.0
15.68,8179.5,-22.354751086469832,0.0
15.688,8189.0,-7.055401047205805,0.0
15.696,8206.0,8.476263264439922,0.0
15.704,8225.0,23.731392047422105,0.0
15.712,8245.0,37.123023060565856,0.0
15.72,8249.0,44.31774287095345,0.0
15.728,8239.5,40.72994084947641,1.0
15.736,8205.5,23.545895004272097,0.0
15.744,8170.5,-4.283313861631086,0.0
15.752,8149.5,-31.532907327094563,0.0
15.76,8147.0,-47.668580401357985,0.0
15.768,8149.0,-50.0862218247521,0.0
15.776,8152.0,-42.9008444353758,0.0
15.784,8153.0,-31.329946400599283,0.0
15.792,8152.5,-19.63479628999744,0.0
15.8,8148.5,-10.660790628239056,0.0
15.808,8150.0,-4.248028841592486,0.0
15.816,8151.0,0.6992712815731466,0.0
15.824,8148.0,3.1104769895757727,0.0
15.832,8148.0,3.451972571225042,0.0
15.84,8149.0,3.334873532464144,0.0
15.848,8150.5,3.2707672241335786,0.0
15.856,8153.5,3.6563216508359346,0.0
15.864,8160.5,5.373004626608463,0.0
15.872,8161.0,7.105893369104706,0.0
15.88,8183.0,11.65015215236258,0.0
15.888,8169.0,14.205725320974125,0.0
15.896,8156.0,8.04720918812518,0.0
15.904,8151.0,-0.4923938352408186,0.0
15.912,8155.0,-5.672349091786373,0.0
15.92,8147.0,-8.692974312303477,0.0
15.928,8446.0,50.290130296487405,0.0
15.936,8152.0,78.56956789296191,0.0
15.944,8126.5,18.107793415825427,0.0
15.952,8146.0,-21.620360495111527,0.0
15.96,8154.0,-36.21935070754989,0.0
15.968,8160.0,-36.50167682972551,0.0
15.976,8170.5,-27.76359537807889,0.0
15.984,8172.0,-15.935009755442707,0.0
15.992,8191.0,-2.3355012533072568,0.0
16.0,8201.5,12.088189528581324,0.0
16.008,8217.0,24.097445694754015,0.0
16.016,8242.0,35.82042617627485,0.0
16.024,8249.5,43.962354882575255,0.0
16.032,8252.5,44.257424843226545,1.0
16.04,8222.0,32.10370806574156,0.0
16.048,8186.5,6.564864518360082,0.0
16.056,8156.5,-22.915780393054774,0.0
16.064,8145.0,-45.35476660696213,0.0
16.072,8145.0,-54.09828757906598,0.0
16.08,8150.5,-49.94359798913865,0.0
16.088,8153.5,-38.177925445517076,0.0
16.096,8153.5,-24.818599497601326,0.0
16.104,8153.5,-13.155123526717261,0.0
16.112,8154.0,-4.160740651017477,0.0
16.12,8151.5,1.3807382988061363,0.0
16.128,8148.5,3.324969056790451,0.0
16.136,8153.0,4.277130603064506,0.0
16.144,8151.5,4.804676360281974,0.0
16.152,8153.0,4.388220403307059,0.0
16.16,8154.5,4.089525500445006,0.0
16.168,8167.0,6.153069031057839,0.0
16.176,8178.5,11.343787163623574,0.0
16.184,8175.0,14.328123874125822,0.0
16.192,8156.0,9.323974437056677,0.0
16.2,8156.5,1.1713388803345879,0.0
16.208,8156.0,-3.827705147595907,0.0
16.216,8151.0,-7.327460797353069,0.0
16.224,8356.5,32.676034299639014,0.0
16.232,8173.5,55.97673140649431,0.0
16.24,8116.0,12.135643816731545,0.0
16.248,8147.0,-21.04578179671853,0.0
16.256,8164.0,-27.671993701507517,0.0
16.264,8171.5,-22.389953431917775,0.0
16.272,8170.5,-14.543626947039684,0.0
16.28,8181.5,-5.655328645874533,0.0
16.288,8196.5,5.770432323215573,0.0
16.296,8206.5,16.76026347999118,0.0
16.304,8220.5,25.62179751860708,0.0
16.312,8243.0,34.434907296886195,0.0
16.32,8260.0,42.49611005265433,0.0
16.328,8255.5,43.37434049084163,0.0
16.336,8228.0,30.780036160304235,0.0
16.344,8196.0,6.509269503141013,0.0
16.352,8162.0,-22.31515837758002,0.0
16.36,8155.0,-44.35496989619605,0.0
16.368,8150.5,-53.01400059400885,0.0
16.376,8154.0,-50.3016896583938,0.0
16.384,8151.5,-40.86700273149427,0.0
16.392,8153.5,-29.19357486249237,0.0
16.4,8158.5,-16.43373256078712,0.0
16.408,8158.0,-5.476681318773899,0.0
16.416,8161.5,2.44653272663345,0.0
16.424,8155.5,6.25063315118382,0.0
16.432,8170.0,9.28925911248075,0.0
16.44,8172.5,13.151050182654899,0.0
16.448,8175.5,14.56470715291448,0.0
16.456,8181.0,14.929117042628832,0.0
16.464,8198.5,17.580117050469426,0.0
16.472,8185.5,17.4019145427485,0.0
16.48,8164.5,7.711962199567779,0.0
16.488,8163.5,-3.6825022733182777,0.0
16.496,8166.0,-9.556407730265391,0.0
16.504,8158.0,-12.705016056733257,0.0
16.512,8427.0,40.68164770966109,0.0
16.52,8147.0,63.83930560305066,0.0
16.528,8130.0,7.178569231421989,0.0
16.536,8159.0,-24.967242783760184,1.0
16.544,8163.5,-33.348816693710205,0.0
16.552,8167.0,-31.61518484919725,0.0
16.56,8175.5,-23.34507275073065,0.0
16.568,8187.0,-10.828737021881807,0.0
16.576,8198.5,2.914086601838335,0.0
16.584,8211.0,15.50297969450844,0.0
16.592,8227.5,26.522319509492263,0.0
16.6,8248.5,36.67932312775156,0.0
16.608,8265.0,44.78642090448102,0.0
16.616,8257.0,44.52735212644461,0.0
16.624,8226.5,29.75768538293528,0.0
16.632,8188.5,2.5167060074793426,0.0
16.64,8160.0,-27.561131438242228,0.0
16.648,8151.5,-48.72965257333453,0.0
16.656,8153.0,-55.29079633509173,0.0
16.664,8154.0,-50.27755653057716,0.0
16.672,8158.5,-38.566409221603635,0.0
16.68,8157.0,-25.18043068165639,0.0
16.688,8160.0,-13.1398832969669,0.0
16.696,8156.0,-4.231262843950844,0.0
16.704,8156.0,0.8615866987404388,0.0
16.712,8157.0,3.947163633270293,0.0
16.72,8156.0,5.173532148428649,0.0
16.728,8156.5,5.012285515008216,0.0
16.736,8156.0,4.157002875388116,0.0
16.744,8164.0,4.553195611612409,0.0
16.752,8168.5,6.650945448168159,0.0
16.76,8187.0,11.582108367871797,0.0
16.768,8166.5,12.333804002805891,0.0
16.776,8153.5,4.0643276794667145,0.0
16.784,8153.5,-4.0983377503812335,0.0
16.792,8157.5,-7.487164953845422,0.0
16.8,8170.5,-4.883055180503106,0.0
16.808,8480.0,63.284355685518904,0.0
16.816,8128.0,85.32100976105335,0.0
16.824,8138.0,15.54689657707604,0.0
16.832,8151.5,-23.27342258767385,0.0
16.84,8154.5,-39.332206170072595,0.0
16.848,8162.5,-40.61880852690729,0.0
16.856,8172.0,-31.646147798746597,0.0
16.864,8179.0,-18.170837894784427,0.0
16.872,8189.5,-3.871383903905553,0.0
16.88,8204.0,10.279757715322603,0.0
16.888,8224.0,24.13856537123911,1.0
16.896,8243.0,36.64268208986255,0.0
16.904,8251.0,43.99825524337825,0.0
16.912,8242.0,41.47337342859896,0.0
16.92,8206.0,24.498772450773686,0.0
16.928,8174.0,-3.146737709703757,0.0
16.936,8150.0,-30.460010423800895,0.0
16.944,8146.5,-47.613210432373535,0.0
16.952,8148.0,-50.947461584529265,0.0
16.96,8149.0,-44.68434362516837,0.0
16.968,8151.0,-33.59276959251042,0.0
16.976,8154.5,-20.816516079982648,0.0
16.984,8154.0,-9.491728797822816,0.0
16.992,8151.5,-1.9681126210005004,0.0
17.0,8152.0,2.371129037839637,0.0
17.008,8151.5,4.577858251510179,0.0
17.016,8154.0,5.597458573510266,0.0
17.024,8156.0,6.271161443189612,0.0
17.032,8158.5,6.638159822736725,0.0
17.04,8166.0,7.891786919909919,0.0
17.048,8168.0,9.377549701756834,0.0
17.056,8183.5,12.409744564335597,0.0
17.064,8166.0,11.912914204561275,0.0
17.072,8156.0,4.194678473448448,0.0
17.08,8157.0,-2.844543600690713,0.0
17.088,8161.0,-5.554757423615001,0.0
17.096,8187.0,-0.18638189058106036,0.0
17.104,8475.5,67.26933348634702,0.0
17.112,8138.5,87.05511740595216,0.0
17.12,8146.5,18.342842850989882,0.0
17.128,8151.5,-22.418563811259673,0.0
17.136,8159.0,-40.57211331760891,0.0
17.144,8165.0,-42.3988201689092,0.0
17.152,8172.0,-34.39505928246513,0.0
17.16,8179.5,-21.484589368534444,0.0
17.168,8192.5,-6.403874506470856,0.0
17.176,8208.0,9.308311856570526,0.0
17.184,8229.5,24.748353519810507,0.0
17.192,8247.5,38.19730875475125,0.0
17.2,8251.5,44.85445397526473,0.0
17.208,8242.0,40.867359489113824,1.0
17.216,8205.0,22.813435977888275,0.0
17.224,8172.0,-5.623468495959969,0.0
17.232,8153.0,-32.21206558387189,0.0
17.24,8150.0,-47.54740684556691,0.0
17.248,8150.0,-50.020856756512785,0.0
17.256,8155.5,-42.77624411839838,0.0
17.264,8159.0,-30.167701212441898,0.0
17.272,8157.5,-17.728648488289082,0.0
17.28,8159.0,-7.684340843824884,0.0
17.288,8158.5,-0.3748162638141821,0.0
17.296,8158.5,3.9027006798953607,0.0
17.304,8160.5,6.24932330859906,0.0
17.312,8159.0,6.791791297425561,0.0
17.32,8161.0,6.185040656446972,0.0
17.328,8163.5,5.8078378685420375,0.0
17.336,8168.5,6.236480170361574,0.0
17.344,8174.0,7.689613170205121,0.0
17.352,8174.0,8.506812043592163,0.0
17.36,8192.5,11.479934243908247,0.0
17.368,8172.0,11.089138628625733,0.0
17.376,8163.0,3.1499041227195903,0.0
17.384,8164.0,-3.65731531465849,0.0
17.392,8166.0,-6.515699023916795,0.0
17.4,8197.5,-0.37420794328386364,0.0
17.408,8470.5,65.52419509752235,0.0
17.416,8148.0,84.44926982306856,0.0
17.424,8155.0,18.381111649372542,0.0
17.432,8159.0,-21.23097259422798,0.0
17.44,8166.0,-39.191318799613555,0.0
17.448,8172.0,-41.215260696486666,0.0
17.456,8182.0,-32.89468340406188,0.0
17.464,8191.5,-19.002819361247475,0.0
17.472,8203.0,-3.615824843746168,0.0
17.48,8219.0,11.650492740752952,0.0
17.488,8239.0,26.267445251213758,0.0
17.496,8256.0,38.48856262035815,0.0
17.504,8261.5,44.47755943957122,0.0
17.512,8251.0,40.25461516282644,1.0
17.52,8215.0,22.154109746641097,0.0
17.528,8180.5,-6.312531962159937,0.0
17.536,8163.5,-32.712095034830554,0.0
17.544,8157.5,-48.06413234900492,0.0
17.552,8159.0,-50.775565828836534,0.0
17.56,8163.5,-43.45512306531964,0.0
17.568,8166.0,-31.107409935332498,0.0
17.576,8168.0,-18.1693885157174,0.0
17.584,8167.0,-7.558869392635643,0.0
17.592,8167.0,-0.34211287922653355,0.0
17.6,8166.5,3.87558296371526,0.0
17.608,8165.5,5.475885972851074,0.0
17.616,8167.0,5.694243998393404,0.0
17.624,8167.0,5.266517209158792,0.0
17.632,8168.5,4.521545355509943,0.0
17.64,8169.0,3.8040522321946355,0.0
17.648,8178.5,4.845997005503705,0.0
17.656,8180.0,6.974800148366967,0.0
17.664,8201.5,11.875227747066447,0.0
17.672,8187.5,14.505164036969063,0.0
17.68,8171.5,7.732325214794173,0.0
17.688,8170.0,-1.0206966950352125,0.0
17.696,8174.0,-5.531717694788995,0.0
17.704,8161.5,-9.097411387719603,0.0
17.712,8463.5,49.31820682303032,0.0
17.72,8215.0,87.31797894847205,0.0
17.728,8156.5,33.832192212932114,0.0
17.736,8167.0,-12.735013128993842,0.0
17.744,8168.5,-35.89239339816095,0.0
17.752,8176.0,-42.307211999355786,0.0
17.76,8183.5,-36.622140069033776,0.0
17.768,8193.0,-24.234535185882123,0.0
17.776,8202.5,-9.352568832658108,0.0
17.784,8217.5,5.871931557392145,0.0
17.792,8235.5,20.727349057577158,0.0
17.8,8255.0,34.03158861598604,0.0
17.808,8265.5,42.86912816137669,0.0
17.816,8264.5,43.53702647598584,1.0
17.824,8235.0,31.10011819516103,0.0
17.832,8197.0,5.239500493348942,0.0
17.84,8170.5,-24.026199468130244,0.0
17.848,8161.0,-45.0460604207708,0.0
17.856,8161.5,-52.486364493812744,0.0
17.864,8164.5,-48.21394279287824,0.0
17.872,8165.0,-37.662383938091125,0.0
17.88,8168.0,-24.997094589718927,0.0
17.888,8167.5,-13.206256696038281,0.0
17.896,8168.5,-4.128799797147394,0.0
17.904,8167.5,1.8655680311765082,0.0
17.912,8166.0,4.617033088072276,0.0
17.92,8167.0,5.442097861331604,0.0
17.928,8168.0,5.513555185208361,0.0
17.936,8167.0,4.719894883573033,0.0
17.944,8168.0,3.534933714118324,0.0
17.952,8176.0,4.136919375181606,0.0
17.96,8180.0,6.31733678701471,0.0
17.968,8187.5,8.99850870576961,0.0
17.976,8196.0,12.48868241370451,0.0
17.984,8170.5,9.186219713840956,0.0
17.992,8168.0,0.11998629927120419,0.0
18.0,8169.0,-5.566411771183084,0.0
18.008,8165.5,-8.59615654870504,0.0
18.016,8288.5,15.329284685865105,0.0
18.024,8351.5,65.15460401118526,0.0
18.032,8137.0,53.791433818007135,0.0
18.04,8159.5,-0.3099008590490939,0.0
18.048,8159.0,-27.763738232827336,0.0
18.056,8168.5,-37.951874551965375,0.0
18.064,8176.5,-34.647905003718506,0.0
18.072,8183.0,-24.478549543320014,0.0
18.08,8193.5,-11.280058433501381,0.0
18.088,8208.0,3.3432180596842045,0.0
18.096,8221.5,17.204951430791652,0.0
18.104,8241.5,29.638361592993533,0.0
18.112,8254.5,39.239861614035135,0.0
18.12,8259.0,42.5442111354032,1.0
18.128,8242.0,35.49443311350592,0.0
18.136,8204.0,14.707285659557101,0.0
18.144,8172.0,-14.117054879046464,0.0
18.152,8158.5,-38.319097709491416,0.0
18.16,8152.0,-50.90853491476855,0.0
18.168,8157.5,-50.83987335677557,0.0
18.176,8162.0,-41.04833389366672,0.0
18.184,8162.5,-28.0127175448838,0.0
18.192,8163.0,-15.852116075308231,0.0
18.2,8158.5,-7.074191804352722,0.0
18.208,8162.5,-0.9125612963862295,0.0
18.216,8160.0,3.176223128332367,0.0
18.224,8161.0,4.806319343172845,0.0
18.232,8162.0,5.450262462172304,0.0
18.24,8162.0,5.209066064158833,0.0
18.248,8162.0,4.276667011618656,0.0
18.256,8165.5,3.7919074356705096,0.0
18.264,8173.0,5.177632564011901,0.0
18.272,8173.5,6.846564504062826,0.0
18.28,8193.5,10.983715008114586,0.0
18.288,8172.5,11.560857330200406,0.0
18.296,8163.0,3.918240777333722,0.0
18.304,8164.0,-2.932198609651323,0.0
18.312,8165.0,-6.1303796015286025,0.0
18.32,8183.5,-3.1084745863913668,0.0
18.328,8479.0,63.30041532601899,0.0
18.336,8138.5,83.78389611687612,0.0
18.344,8146.5,15.265141215490303,0.0
18.352,8156.0,-23.99584863781297,0.0
18.36,8164.0,-40.00141499829556,0.0
18.368,8169.0,-40.74648317187598,0.0
18.376,8179.5,-31.84280468593124,0.0
18.384,8187.0,-18.0720240245098,0.0
18.392,8200.0,-2.9999079909621287,0.0
18.4,8213.0,11.680359475945806,0.0
18.408,8232.5,25.2311418783886,0.0
18.416,8250.5,37.08099423878798,0.0
18.424,8258.0,43.67673199763749,0.0
18.432,8250.0,40.853381914412694,1.0
18.44,8218.0,24.817769447788123,0.0
18.448,8179.5,-2.8315402259524944,0.0
18.456,8154.0,-31.82925421929326,0.0
18.464,8146.5,-50.89469103586384,0.0
18.472,8150.5,-55.16877592785181,0.0
18.48,8153.0,-48.0042697150036,0.0
18.488,8154.0,-35.77412576123879,0.0
18.496,8156.5,-22.402406180260414,0.0
18.504,8155.0,-10.893623237293696,0.0
18.512,8156.0,-2.5378965250095007,0.0
18.52,8151.0,1.9712382493607947,0.0
18.528,8152.0,3.5218668379018254,0.0
18.536,8155.5,4.824303155266762,0.0
18.544,8156.5,5.782494253645382,0.0
18.552,8154.5,5.268171682890852,0.0
18.56,8160.5,4.9824884498173105,0.0
18.568,8167.0,6.611892100853538,0.0
18.576,8183.5,11.271996806974812,0.0
18.584,8169.5,12.829759343639125,0.0
18.592,8158.5,6.698353979987587,0.0
18.6,8157.0,-0.4970588747903548,0.0
18.608,8153.5,-5.698558303807204,0.0
18.616,8153.0,-8.727951086504163,0.0
18.624,8439.5,49.233767170782585,0.0
18.632,8142.0,73.80050249264104,0.0
18.64,8129.0,13.704796035980053,0.0
18.648,8151.0,-22.07480711320318,0.0
18.656,8161.5,-33.248227321871354,0.0
18.664,8168.0,-31.342231893153667,0.0
18.672,8176.0,-22.50081508432504,0.0
18.68,8184.0,-10.591813416221385,0.0
18.688,8195.5,2.0408605450352297,0.0
18.696,8213.0,15.127108456329552,0.0
18.704,8228.0,27.212622492452965,0.0
18.712,8250.5,37.89550170721009,0.0
18.72,8264.0,45.822763180523225,0.0
18.728,8264.5,46.42387232129113,0.0
18.736,8232.0,33.20333389176312,0.0
18.744,8186.5,4.4152476318956815,1.0
18.752,8164.5,-27.069688418650458,0.0
18.76,8152.5,-48.5319714384957,0.0
18.768,8151.5,-56.522621233766586,0.0
18.776,8154.5,-52.2701801584883,0.0
18.784,8159.0,-40.29826105326265,0.0
18.792,8163.0,-25.37183878972496,0.0
18.8,8165.0,-11.471902088665729,0.0
18.808,8166.0,-0.8993242012857081,0.0
18.816,8163.5,5.1831778589657915,0.0
18.824,8165.0,7.790227782568763,0.0
18.832,8160.0,7.4358894407805565,0.0
18.84,8163.0,5.690364072474267,0.0
18.848,8171.5,6.1447963673451795,0.0
18.856,8175.5,8.035683521886995,0.0
18.864,8188.5,11.408760609987212,0.0
18.872,8188.0,14.227650371326718,0.0
18.88,8173.5,10.673145032490993,0.0
18.888,8169.5,3.1732764184146163,0.0
18.896,8172.0,-2.049690912823735,0.0
18.904,8172.0,-4.3170357853273345,0.0
18.912,8316.0,24.415892475324426,0.0
18.92,8275.0,58.74974629092003,0.0
18.928,8129.0,31.943321701820196,0.0
18.936,8164.5,-11.328179304363402,0.0
18.944,8170.0,-26.825054171302554,0.0
18.952,8175.0,-29.777726923158525,0.0
18.96,8184.5,-24.04691588636001,0.0
18.968,8194.5,-13.028061327691603,0.0
18.976,8201.0,-1.1653574327960996,0.0
18.984,8219.0,11.032278231217106,0.0
18.992,8233.0,23.11094263245559,0.0
19.0,8252.5,33.594430768072016,0.0
19.008,8269.0,42.05586580784143,0.0
19.016,8272.5,44.769795365140226,0.0
19.024,8249.0,35.50116292875805,0.0
19.032,8208.0,11.459910481807356,0.0
19.04,8179.5,-18.694411565539667,0.0
19.048,8163.5,-42.78472114097349,0.0
19.056,8163.0,-53.91598537631626,0.0
19.064,8162.5,-52.5289977395214,0.0
19.072,8166.5,-43.02966657079719,0.0
19.08,8169.5,-29.45786665652031,0.0
19.088,8170.5,-16.14816297426205,0.0
19.096,8169.0,-5.930724459822613,0.0
19.104,8168.0,0.5002676036401681,0.0
19.112,8169.0,4.227699234228567,0.0
19.12,8164.5,5.076074165023556,0.0
19.128,8169.5,4.910359353898002,0.0
19.136,8171.5,5.497993220557873,0.0
19.144,8176.0,6.339913610833719,0.0
19.152,8180.5,7.715325623960325,0.0
19.16,8196.0,11.44502407480195,0.0
19.168,8180.5,11.91556084908666,0.0
19.176,8170.0,5.07547442015516,0.0
19.184,8169.0,-2.088702727113059,0.0
19.192,8169.0,-6.213214118067299,0.0
19.2,8181.5,-5.156686453455222,0.0
19.208,8498.5,63.56707840568902,0.0
19.216,8147.5,87.62645222061542,0.0
19.224,8154.0,18.188287806012113,0.0
19.232,8163.0,-22.468224492671425,0.0
19.24,8170.0,-39.83715761481517,0.0
19.248,8176.0,-41.4134220017379,0.0
19.256,8183.0,-33.41094784800316,0.0
19.264,8191.5,-20.446140990771482,0.0
19.272,8203.0,-5.592882793534727,0.0
19.28,8217.0,9.248927683813463,0.0
19.288,8238.0,23.77463217608556,0.0
19.296,8257.0,36.93262797664397,1.0
19.304,8267.0,45.03954657102645,0.0
19.312,8256.5,42.90328756733311,0.0
19.32,8222.0,25.941725617916745,0.0
19.328,8182.5,-3.1406469604537506,0.0
19.336,8164.0,-31.713202817759793,0.0
19.344,8155.0,-49.42114204222594,0.0
19.352,8155.0,-54.23946705029584,0.0
19.36,8157.0,-48.45707144912376,0.0
19.368,8162.0,-36.26060245997974,0.0
19.376,8163.0,-22.324290527167705,0.0
19.384,8162.5,-10.595602265309026,0.0
19.392,8162.0,-2.257157819153008,0.0
19.4,8161.5,2.8120954229220843,0.0
19.408,8161.0,5.179395750206822,0.0
19.416,8165.0,6.509208615497755,0.0
19.424,8162.0,6.513085718630464,0.0
19.432,8168.5,6.242970844113415,0.0
19.44,8174.5,7.690477587690111,0.0
19.448,8177.5,9.219270931553183,0.0
19.456,8188.0,11.483707630168738,0.0
19.464,8170.0,9.549569953972423,0.0
19.472,8162.5,1.7482255781303593,0.0
19.48,8163.0,-4.56063402732002,0.0
19.488,8165.0,-7.089485186585989,0.0
19.496,8242.0,8.629571161435933,0.0
19.504,8386.5,61.870082906745665,0.0
19.512,8128.5,60.788055372057215,0.0
19.52,8152.5,3.1255664811033057,0.0
19.528,8159.5,-25.116481604360388,0.0
19.536,8167.0,-35.04846525698804,0.0
19.544,8173.0,-32.850401860690226,0.0
19.552,8182.0,-23.50544975646767,0.0
19.56,8188.5,-11.248494082472462,0.0
19.568,8203.5,2.0981214929470298,0.0
19.576,8222.0,16.517265571622374,0.0
19.584,8242.0,30.406092922164135,0.0
19.592,8261.0,41.977732083392766,0.0
19.6,8267.5,47.66653175916554,0.0
19.608,8250.5,41.658911008448285,1.0
19.616,8213.0,20.655636447609368,0.0
19.624,8181.0,-9.096211084211973,0.0
19.632,8168.0,-34.50584879189273,0.0
19.64,8165.5,-47.46823545285861,0.0
19.648,8168.0,-47.937424769718746,0.0
19.656,8172.0,-39.619067777116015,0.0
19.664,8177.0,-26.854179429071337,0.0
19.672,8177.5,-14.109980396588071,0.0
19.68,8180.5,-3.7187896389398247,0.0
19.688,8181.0,3.7054087331541723,0.0
19.696,8183.5,8.147186183139866,0.0
19.704,8183.0,9.947438102498154,0.0
19.712,8186.5,10.116857561966071,0.0
19.72,8186.0,9.296119403452849,0.0
19.728,8191.0,8.320688490881139,0.0
19.736,8199.0,9.138216384955285,0.0
19.744,8202.0,10.483548634396811,0.0
19.752,8212.0,12.345656909458057,0.0
19.76,8213.0,13.822466431671046,0.0
19.768,8192.0,8.514183598297905,0.0
19.776,8190.0,-0.6148958074559232,0.0
19.784,8193.5,-5.614141619047587,0.0
19.792,8190.0,-7.719517214452935,0.0
19.8,8362.5,26.732576362908276,0.0
19.808,8329.5,71.55447858287539,0.0
19.816,8170.0,47.88566544010882,0.0
19.824,8188.5,-2.178479956270621,0.0
19.832,8191.0,-27.165732422609608,0.0
19.84,8199.5,-35.57719758467465,0.0
19.848,8207.5,-31.786837525130522,0.0
19.856,8215.0,-21.559302294197778,0.0
19.864,8225.5,-8.56469527991976,0.0
19.872,8237.5,5.015571329740396,0.0
19.88,8255.0,18.313373116372304,0.0
19.888,8275.5,31.164578967805937,0.0
19.896,8293.0,41.803274223497056,0.0
19.904,8293.5,45.43452610010331,1.0
19.912,8272.0,36.403314721210336,0.0
19.92,8231.0,12.774297484588033,0.0
19.928,8203.0,-17.23335551078344,0.0
19.936,8193.0,-40.130483236161126,0.0
19.944,8191.0,-50.039161778701555,0.0
19.952,8193.0,-48.31261037181525,0.0
19.96,8196.0,-38.94526460576799,0.0
19.968,8200.0,-26.07076418906513,0.0
19.976,8200.0,-13.686966993738906,0.0
19.984,8199.5,-4.390254410526495,0.0
19.992,8197.0,1.1605180005994953,0.0
20.0,8196.0,3.5522345414497067,0.0
20.008,8197.0,4.428131075538886,0.0
20.016,8197.0,4.47907872772339,0.0
20.024,8195.0,3.421526232829592,0.0
20.032,8201.0,3.094550965246299,0.0
20.04,8205.5,4.577166533425498,0.0
20.048,8207.5,6.08798582123336,0.0
20.056,8226.0,10.246638245592067,0.0
20.064,8204.5,10.539644656561904,0.0
20.072,8196.0,2.9859689016166158,0.0
20.08,8193.5,-4.181279684452193,0.0
20.088,8196.5,-7.683896916392996,0.0
20.096,8218.5,-3.4828488962530173,0.0
20.104,8525.0,66.64250576202562,0.0
20.112,8185.0,91.16665679770767,0.0
20.12,8183.5,22.079526537535457,0.0
20.128,8186.0,-21.921704415112572,0.0
20.136,8192.0,-42.883813711950324,0.0
20.144,8198.5,-46.22531795157988,0.0
20.152,8207.0,-38.128661864885316,0.0
20.16,8215.0,-24.188594013105103,0.0
20.168,8227.0,-8.191168019383213,0.0
20.176,8243.0,8.231984176306696,0.0
20.184,8263.0,24.051373017307697,0.0
20.192,8281.5,37.62604319445336,0.0
20.2,8287.5,44.95489868714185,0.0
20.208,8276.0,41.349823944656464,1.0
20.216,8238.0,22.835776500920247,0.0
20.224,8203.5,-6.387383655792291,0.0
20.232,8183.5,-33.835904563997474,0.0
20.24,8177.5,-50.25081349621951,0.0
20.248,8178.5,-53.36145123851679,0.0
20.256,8182.5,-46.089347291460626,0.0
20.264,8185.0,-33.472992584312124,0.0
20.272,8188.0,-19.81314590287252,0.0
20.28,8185.5,-8.628677900162756,0.0
20.288,8182.5,-1.8296470777095237,0.0
20.296,8185.0,2.3665342228221107,0.0
20.304,8185.0,5.000106465380441,0.0
20.312,8183.5,5.493070352702489,0.0
20.32,8184.0,4.74749325589255,0.0
20.328,8184.5,3.791084999801569,0.0
20.336,8188.5,3.570047209300583,0.0
20.344,8193.5,4.736771947221541,0.0
20.352,8193.0,5.627974205562623,0.0
20.36,8214.5,9.59207974301603,0.0
20.368,8192.0,10.277871889454218,0.0
20.376,8182.0,2.4854247514886083,0.0
20.384,8183.0,-4.3385427869411615,0.0
20.392,8185.0,-7.10354916990309,0.0
20.4,8199.0,-4.392974296890998,0.0
20.408,8519.5,66.21470769854909,0.0
20.416,8177.5,93.54057545379192,0.0
20.424,8169.0,23.91175433520948,0.0
20.432,8173.5,-21.70912318034857,0.0
20.44,8177.5,-43.661318608727925,0.0
20.448,8183.5,-47.9812312954366,0.0
20.456,8193.5,-39.99268633823726,0.0
20.464,8199.5,-25.93609753023793,0.0
20.472,8210.0,-10.319871960349474,0.0
20.48,8224.0,5.485522691629058,0.0
20.488,8244.0,20.947365069971966,0.0
20.496,8263.5,34.98548792574002,0.0
20.504,8270.5,43.39736956357524,0.0
20.512,8261.0,41.28183697013674,1.0
20.52,8227.5,24.98696528345772,0.0
20.528,8189.0,-3.1477731878442228,0.0
20.536,8171.0,-30.85236813986262,0.0
20.544,8164.0,-47.66675735311901,0.0
20.552,8165.0,-51.60972131146468,0.0
20.56,8165.5,-45.810489534892895,0.0
20.568,8166.5,-35.128971250078166,0.0
20.576,8168.0,-22.975220199907426,0.0
20.584,8167.0,-12.202046883694265,0.0
20.592,8164.0,-4.798038908260423,0.0
20.6,8164.5,-0.20263352658116673,0.0
20.608,8163.0,2.3415024502648976,0.0
20.616,8161.5,2.8781983904884783,0.0
20.624,8162.5,2.6570802238575197,0.0
20.632,8162.5,2.3277674042390117,0.0
20.64,8170.5,3.414501925804416,0.0
20.648,8171.0,5.276073141890038,0.0
20.656,8192.5,10.071706460410041,0.0
20.664,8181.0,13.42385476139907,0.0
20.672,8164.0,7.548521417772008,0.0
20.68,8159.5,-1.4630537037219256,0.0
20.688,8162.5,-6.877119399938692,0.0
20.696,8148.0,-11.385795931586472,0.0
20.704,8434.5,43.243825465426426,0.0
20.712,8192.5,78.08680581072076,0.0
20.72,8134.0,25.461607786217655,0.0
20.728,8154.0,-17.386709578867567,0.0
20.736,8158.0,-35.187883649919286,0.0
20.744,8162.5,-38.644013141437654,0.0
20.752,8171.5,-32.071012771125424,0.0
20.76,8178.0,-20.154744326319133,0.0
20.768,8190.0,-6.272220427843649,0.0
20.776,8203.0,7.996344577323953,0.0
20.784,8217.0,20.738532431772228,0.0
20.792,8244.5,33.60851922723441,0.0
20.8,8252.0,43.27488883905153,0.0
20.808,8250.0,43.55423448321403,0.0
20.816,8227.0,32.00858239029685,0.0
20.824,8184.0,6.843769470123789,0.0
20.832,8155.5,-23.68376457352315,0.0
20.84,8144.0,-46.31899259124157,0.0
20.848,8148.0,-54.2151793049627,0.0
20.856,8150.5,-49.33735464186907,0.0
20.864,8153.0,-37.950987740411165,0.0
20.872,8156.5,-24.237486485793397,0.0
20.88,8152.5,-12.554805826310485,0.0
20.888,8150.0,-5.070186348751122,0.0
20.896,8156.0,0.8399582524536982,0.0
20.904,8150.0,4.207860440643117,0.0
20.912,8153.5,5.050918871498197,0.0
20.92,8147.5,4.272971257590598,0.0
20.928,8153.0,3.062911030553323,0.0
20.936,8161.0,4.6409710700265805,0.0
20.944,8163.5,7.015765837145636,0.0
20.952,8178.0,10.82965664913013,0.0
20.96,8162.0,11.136830375748787,0.0
20.968,8150.0,3.909594392628833,0.0
20.976,8153.0,-2.796029128375949,0.0
20.984,8153.5,-5.622759920039698,0.0
20.992,8178.5,-1.2323360584562124,0.0
21.0,8460.5,64.27134312771636,0.0
21.008,8121.0,81.51851936859794,0.0
21.016,8140.5,13.983037449833091,0.0
21.024,8149.0,-22.35690566327048,1.0
21.032,8156.0,-37.29205454599628,0.0
21.04,8163.5,-37.50839937590035,0.0
21.048,8173.0,-28.476515263809688,0.0
21.056,8186.5,-14.11877909524037,0.0
21.064,8197.0,1.4161557493375767,0.0
21.072,8211.5,15.496305285871586,0.0
21.08,8231.0,28.420087743902513,0.0
21.088,8250.5,39.72210277345471,0.0
21.096,8267.5,47.84073627720295,0.0
21.104,8251.5,45.59316326482508,0.0
21.112,8217.0,27.03429895492195,0.0
21.12,8175.5,-3.566964268776019,0.0
21.128,8162.5,-32.25810192866766,0.0
21.136,8154.5,-48.62560174082205,0.0
21.144,8156.0,-52.261054329379704,0.0
21.152,8156.5,-46.07906065002203,0.0
21.16,8161.0,-34.41540617074497,0.0
21.168,8162.5,-21.073953397840796,0.0
21.176,8168.0,-8.558674371639654,0.0
21.184,8166.0,0.855489953624101,0.0
21.192,8162.0,5.067503894866377,0.0
21.2,8164.0,6.381586942586637,0.0
21.208,8166.5,7.110563294583017,0.0
21.216,8170.5,7.7915887405217745,0.0
21.224,8178.0,9.362508725102089,0.0
21.232,8178.0,10.404337563581066,0.0
21.24,8196.0,13.12046787655754,0.0
21.248,8177.5,12.635414656527473,0.0
21.256,8168.0,4.7124538977614066,0.0
21.264,8171.0,-2.0155910253449747,0.0
21.272,8172.0,-4.8717550133960685,0.0
21.28,8204.0,0.9196570783069546,0.0
21.288,8453.0,61.613789401771555,0.0
21.296,8137.5,74.58081665158079,0.0
21.304,8156.5,10.36696866768716,0.0
21.312,8168.5,-22.847424429940475,0.0
21.32,8174.5,-35.34900769069509,0.0
21.328,8182.0,-34.6250354860058,0.0
21.336,8193.0,-25.167750192826134,0.0
21.344,8198.5,-12.388035664705967,0.0
21.352,8212.5,1.0319049410359185,0.0
21.36,8229.5,15.145312275336664,0.0
21.368,8247.5,28.346278847771146,1.0
21.376,8264.0,38.90405669611914,0.0
21.384,8276.5,45.174318816709274,0.0
21.392,8262.5,41.7271303148018,0.0
21.4,8226.0,23.04495160991246,0.0
21.408,8192.0,-5.9007528643799105,0.0
21.416,8169.0,-33.76971797207693,0.0
21.424,8163.0,-51.05621405220131,0.0
21.432,8164.0,-54.5601987660591,0.0
21.44,8166.0,-47.74757694355412,0.0
21.448,8174.0,-34.43649913418744,0.0
21.456,8173.0,-19.913264153282853,0.0
21.464,8173.0,-8.509461861597174,0.0
21.472,8170.5,-0.9858891879468956,0.0
21.48,8171.0,3.2044100770917794,0.0
21.488,8171.0,5.298870175604634,0.0
21.496,8174.0,6.347061634150805,0.0
21.504,8172.5,6.311122110035285,0.0
21.512,8179.5,6.4566814633408285,0.0
21.52,8183.5,7.811164971118615,0.0
21.528,8197.5,11.105354313532871,0.0
21.536,8198.5,14.43434202866888,0.0
21.544,8175.0,9.61791470157641,0.0
21.552,8170.0,-0.5112753654041171,0.0
21.56,8173.5,-6.730597528259068,0.0
21.568,8167.5,-9.899008433241306,0.0
21.576,8369.5,29.770966664995285,0.0
21.584,8242.5,64.04065641348825,0.0
21.592,8138.0,27.302734193832976,0.0
21.6,8166.0,-14.19244227052468,0.0
21.608,8172.0,-29.634651428061716,0.0
21.616,8176.5,-32.1290268623718,0.0
21.624,8184.0,-26.281446783989168,0.0
21.632,8193.0,-15.467656420231151,0.0
21.64,8203.0,-2.8456036796646913,0.0
21.648,8214.0,9.34080191852945,0.0
21.656,8229.0,20.44346770585139,0.0
21.664,8254.0,32.08212791251958,0.0
21.672,8267.5,41.9667648347679,0.0
21.68,8267.0,44.10577662819037,0.0
21.688,8245.0,34.08705979155911,0.0
21.696,8204.0,10.123054630267006,0.0
21.704,8176.5,-19.57859954875721,0.0
21.712,8162.0,-42.75639669763859,0.0
21.72,8161.0,-53.14799608392286,0.0
21.728,8164.5,-50.724955231422655,0.0
21.736,8167.0,-40.37566597641057,0.0
21.744,8167.0,-27.62293377702599,0.0
21.752,8167.5,-15.790875759200617,0.0
21.76,8167.0,-6.399333001542345,0.0
21.768,8166.5,-0.07927650448459644,0.0
21.776,8165.0,3.261812093844128,0.0
21.784,8165.0,4.436745932190888,0.0
21.792,8164.5,4.356786402716125,0.0
21.8,8165.5,3.7511086370984685,0.0
21.808,8173.5,4.6629068782456216,0.0
21.816,8177.0,6.84465061308947,0.0
21.824,8189.5,10.366013626270842,0.0
21.832,8188.0,13.124240953555045,0.0
21.84,8169.0,8.577495309372125,0.0
21.848,8166.0,0.09348976343790127,0.0
21.856,8167.5,-5.244562517783152,0.0
21.864,8158.5,-9.13859643709111,0.0
21.872,8385.0,34.37942669507356,0.0
21.88,8247.0,72.98420989860278,0.0
21.888,8143.5,35.41109828509002,0.0
21.896,8163.5,-9.237437283085683,0.0
21.904,8167.0,-29.440933713501863,0.0
21.912,8175.0,-34.57619565930099,0.0
21.92,8181.0,-29.5108101867429,0.0
21.928,8189.5,-19.078600462385793,0.0
21.936,8198.0,-6.543353793020515,0.0
21.944,8212.0,6.45878863769849,0.0
21.952,8228.0,19.298030371289087,0.0
21.96,8249.0,31.5244580768167,1.0
21.968,8264.0,41.33049699767889,0.0
21.976,8264.0,43.92809342553073,0.0
21.984,8239.0,33.696769595729165,0.0
21.992,8199.5,9.359750373197357,0.0
22.0,8170.0,-20.548928183830867,0.0
22.008,8160.5,-43.08914346133906,0.0
22.016,8158.5,-52.23602634586587,0.0
22.024,8158.0,-50.23663170446639,0.0
22.032,8161.5,-40.82482420377619,0.0
22.04,8164.5,-27.741216182268545,0.0
22.048,8164.0,-15.286944091343457,0.0
22.056,8163.5,-5.808127769927069,0.0
22.064,8163.5,0.5760588896209811,0.0
22.072,8164.0,4.366469440092715,0.0
22.08,8164.0,6.048254096301434,0.0
22.088,8164.5,6.228022470145788,0.0
22.096,8164.0,5.3900954713087685,0.0
22.104,8168.5,4.894548027513565,0.0
22.112,8174.0,5.902419075584476,0.0
22.12,8175.0,6.931551308892267,0.0
22.128,8194.5,10.677440318398794,0.0
22.136,8174.5,11.171776507860159,0.0
22.144,8165.5,3.8456290262950006,0.0
22.152,8163.0,-3.419544748025828,0.0
22.16,8166.5,-6.99341237018848,0.0
22.168,8183.5,-3.858541030032711,0.0
22.176,8494.5,65.59108744720515,0.0
22.184,8155.0,90.8965266818368,0.0
22.192,8151.5,22.00595265208017,0.0
22.2,8156.0,-21.867880600480248,0.0
22.208,8163.0,-42.149904960219146,0.0
22.216,8169.5,-44.9961764943705,0.0
22.224,8177.5,-36.89514336729667,0.0
22.232,8186.0,-23.13950290508751,0.0
22.24,8196.5,-7.61450238470411,0.0
22.248,8211.5,7.931076787269603,0.0
22.256,8232.5,23.277091500742245,0.0
22.264,8253.5,37.40425210144463,1.0
22.272,8260.5,45.808528552444386,0.0
22.28,8250.0,43.11863727698915,0.0
22.288,8215.0,25.694858144763202,0.0
22.296,8179.0,-3.0105384177850283,0.0
22.304,8160.0,-30.766974798716547,0.0
22.312,8155.0,-47.42066876172157,0.0
22.32,8154.5,-51.20375733699643,0.0
22.328,8158.0,-45.06507321631079,0.0
22.336,8160.5,-33.37646357785502,0.0
22.344,8162.0,-20.586369973765613,0.0
22.352,8162.5,-9.492591374798849,0.0
22.36,8160.0,-1.9011617512244356,0.0
22.368,8161.5,2.67233495041728,0.0
22.376,8161.0,5.176236662885458,0.0
22.384,8161.0,5.77011101989774,0.0
22.392,8161.5,5.3486608097637145,0.0
22.4,8161.5,4.3906461509157,0.0
22.408,8164.0,3.669156140459563,0.0
22.416,8172.0,4.8313394132021585,0.0
22.424,8172.0,6.4205711975077975,0.0
22.432,8191.0,10.268721537868942,0.0
22.44,8182.0,13.030660156391377,0.0
22.448,8163.0,6.968041134904297,0.0
22.456,8162.0,-1.7598355287009326,0.0
22.464,8163.0,-6.654675560454734,0.0
22.472,8152.5,-10.48140635320965,0.0
22.48,8430.0,43.39289637300817,0.0
22.488,8219.0,82.26119972707511,0.0
22.496,8145.5,34.652496892554154,0.0
22.504,8156.0,-11.627890955650628,0.0
22.512,8159.0,-34.47704938479251,0.0
22.52,8166.5,-40.61771771988083,0.0
22.528,8173.5,-35.1288114609647,0.0
22.536,8183.0,-23.185775288079185,0.0
22.544,8192.5,-8.72573051670497,0.0
22.552,8205.5,5.745608409251872,0.0
22.56,8223.0,19.66400748079377,0.0
22.568,8244.0,32.77961184373521,1.0
22.576,8258.5,42.81906183550768,0.0
22.584,8255.0,44.51180988904548,0.0
22.592,8230.5,33.043959443757785,0.0
22.6,8192.0,8.381085380281093,0.0
22.608,8166.0,-20.652572318555713,0.0
22.616,8154.0,-42.45528720460402,0.0
22.624,8152.0,-51.77286572444109,0.0
22.632,8157.0,-48.82098628381527,0.0
22.64,8158.5,-38.34545651338044,0.0
22.648,8158.5,-26.030170423711297,0.0
22.656,8161.5,-14.187546977746933,0.0
22.664,8159.0,-4.930688999269705,0.0
22.672,8159.0,0.7806001391284099,0.0
22.68,8161.0,4.448500573659658,0.0
22.688,8159.5,6.045396061170777,0.0
22.696,8160.5,5.9710936081557975,0.0
22.704,8160.0,5.124013401455841,0.0
22.712,8161.0,3.9483410630516573,0.0
22.72,8167.5,4.1866914532936335,0.0
22.728,8172.5,6.042359118776858,0.0
22.736,8177.0,8.164562784518694,0.0
22.744,8189.5,11.654900458556085,0.0
22.752,8163.0,9.09184838679812,0.0
22.76,8159.0,-0.033543054964184194,0.0
22.768,8165.0,-5.016597337839812,0.0
22.776,8161.5,-6.692239995233422,0.0
22.784,8270.5,14.88514723827143,0.0
22.792,8331.5,60.12035458897958,0.0
22.8,8127.0,48.44025796970709,0.0
22.808,8152.5,-2.3812943362966053,0.0
22.816,8157.0,-25.947019527698103,0.0
22.824,8161.0,-34.21331912355845,0.0
22.832,8169.0,-31.463242170038257,0.0
22.84,8178.0,-21.59353829192696,0.0
22.848,8188.0,-8.601060744127153,0.0
22.856,8197.0,4.268407051129998,0.0
22.864,8218.0,17.361272926667652,0.0
22.872,8234.5,30.133479232834816,0.0
22.88,8254.5,40.57532994162216,0.0
22.888,8257.0,45.195692834196734,1.0
22.896,8238.5,37.80715414317274,0.0
22.904,8202.0,16.469028381748103,0.0
22.912,8168.0,-13.050411223068522,0.0
22.92,8155.0,-38.131701500126155,0.0
22.928,8150.0,-50.86093402446727,0.0
22.936,8152.5,-51.188615280977956,0.0
22.944,8156.0,-42.39580221008191,0.0
22.952,8159.5,-29.337937252979145,0.0
22.96,8159.5,-16.452506982430577,0.0
22.968,8158.0,-6.644141744564877,0.0
22.976,8158.0,-0.14261163700098223,0.0
22.984,8158.0,3.724004157668105,0.0
22.992,8158.0,5.446111377649686,0.0
23.0,8158.0,5.638867980605482,0.0
23.008,8161.0,5.510847446636035,0.0
23.016,8161.0,5.212529266758793,0.0
23.024,8163.0,4.654425072804088,0.0
23.032,8170.0,5.457404811879769,0.0
23.04,8171.5,6.841435726523059,0.0
23.048,8191.5,11.015174641349176,0.0
23.056,8177.0,12.937140995467416,0.0
23.064,8164.0,6.494092782387497,0.0
23.072,8162.5,-1.2632583798208543,0.0
23.08,8163.5,-5.761568599312113,0.0
23.088,8163.0,-7.4461896288835305,0.0
23.096,8481.0,57.55197022545781,0.0
23.104,8154.5,85.52965980151839,0.0
23.112,8144.0,20.258935530729786,0.0
23.12,8159.0,-20.49420324054813,0.0
23.128,8162.5,-37.708813960661246,0.0
23.136,8171.0,-39.720795177553555,0.0
23.144,8177.5,-31.824023795558787,0.0
23.152,8186.0,-19.264476212986892,0.0
23.16,8199.0,-4.523590774282184,0.0
23.168,8212.0,10.191795759601064,0.0
23.176,8230.5,23.784730525673467,0.0
23.184,8250.0,35.98095517032834,1.0
23.192,8262.0,44.1741207799173,0.0
23.2,8258.5,44.05878430249368,0.0
23.208,8228.0,30.364514726798916,0.0
23.216,8191.5,3.9739722087158498,0.0
23.224,8167.5,-24.596052092692844,0.0
23.232,8159.0,-44.403042337685065,0.0
23.24,8158.5,-51.22354580500473,0.0
23.248,8165.0,-46.265281205766996,0.0
23.256,8165.0,-34.99065361628186,0.0
23.264,8166.5,-22.711410111341365,0.0
23.272,8168.0,-11.39326542681556,0.0
23.28,8164.0,-3.4831318614433258,0.0
23.288,8164.5,1.0079391066603876,0.0
23.296,8165.0,3.7154364317648287,0.0
23.304,8163.5,4.5490410438446816,0.0
23.312,8165.0,4.352345120422569,0.0
23.32,8164.5,3.7804534068443445,0.0
23.328,8171.0,4.094881177103616,0.0
23.336,8176.5,6.111610813408561,0.0
23.344,8182.5,8.727168537451462,0.0
23.352,8189.5,11.606774018177475,0.0
23.36,8169.5,8.894133294869334,0.0
23.368,8165.5,1.0382066708048114,0.0
23.376,8166.0,-4.480232654170322,0.0
23.384,8162.5,-7.677474893486988,0.0
23.392,8294.0,17.7461826423023,0.0
23.4,8328.0,63.902947462065185,0.0
23.408,8134.0,48.82340908246874,0.0
23.416,8158.0,-2.227950288774764,0.0
23.424,8162.0,-26.361433415895817,0.0
23.432,8167.0,-34.79852366981095,0.0
23.44,8176.0,-31.652126464641015,0.0
23.448,8185.5,-21.212951118075125,0.0
23.456,8194.0,-8.145691414768407,0.0
23.464,8206.5,5.107564707300298,0.0
23.472,8222.0,17.891574512350644,0.0
23.48,8244.0,30.400723867822308,0.0
23.488,8260.5,41.055087337166015,0.0
23.496,8263.0,45.01334015696693,1.0
23.504,8244.0,37.15872706657251,0.0
23.512,8205.0,15.030372399333373,0.0
23.52,8173.0,-14.840440461690832,0.0
23.528,8158.5,-39.75599232991067,0.0
23.536,8158.0,-51.52804329753417,0.0
23.544,8163.0,-49.75840154930779,0.0
23.552,8163.0,-40.146373218567305,0.0
23.56,8164.5,-28.06872022718835,0.0
23.568,8167.0,-15.853263567317981,0.0
23.576,8165.0,-6.1233703445718675,0.0
23.584,8164.5,0.04849562716935907,0.0
23.592,8161.0,2.873971181218849,0.0
23.6,8163.0,3.802773575441961,0.0
23.608,8166.0,4.7970245416945545,0.0
23.616,8164.0,4.862038206248371,0.0
23.624,8168.0,4.571946447885921,0.0
23.632,8175.0,5.954534681197629,0.0
23.64,8176.5,7.6059743477424036,0.0
23.648,8192.0,10.902591569054948,0.0
23.656,8191.0,14.161605940985964,0.0
23.664,8169.5,9.345146504205559,0.0
23.672,8168.5,0.4830972717431905,0.0
23.68,8169.0,-4.933297695127294,0.0
23.688,8159.0,-9.329456419293365,0.0
23.696,8385.5,33.71624673289307,0.0
23.704,8258.0,74.28740524417549,0.0
23.712,8146.5,38.19037701003276,0.0
23.72,8162.5,-8.458186632498382,0.0
23.728,8166.0,-30.77984326253454,0.0
23.736,8173.0,-37.16908799127441,0.0
23.744,8179.0,-32.656493610872076,0.0
23.752,8188.0,-21.972130477850214,0.0
23.76,8198.0,-8.440465745655501,0.0
23.768,8211.0,5.540731661402788,0.0
23.776,8228.5,19.20032357994637,0.0
23.784,8250.0,32.33532018387268,0.0
23.792,8265.0,42.65789939911315,0.0
23.8,8266.0,45.56402785777777,1.0
23.808,8242.0,35.67574404131847,0.0
23.816,8202.5,11.445863056720782,0.0
23.824,8174.0,-18.511432604915626,0.0
23.832,8161.0,-41.900060397974585,0.0
23.84,8161.0,-52.035423309669795,0.0
23.848,8162.0,-49.93597502977764,0.0
23.856,8167.5,-39.79552618785601,0.0
23.864,8167.0,-26.743505843336834,0.0
23.872,8167.5,-14.969931377085686,0.0
23.88,8166.0,-5.941741378035431,0.0
23.888,8167.0,0.19620301746181212,0.0
23.896,8167.0,4.000727344916868,0.0
23.904,8166.0,5.439858447770121,0.0
23.912,8167.5,5.5683618716968795,0.0
23.92,8168.5,5.310881259754751,0.0
23.928,8170.5,4.966317837419183,0.0
23.936,8178.0,5.950449024403952,0.0
23.944,8177.0,6.958259635841614,0.0
23.952,8198.5,10.687489775708173,0.0
23.96,8183.0,12.498405678733434,0.0
23.968,8169.0,5.647598215971584,0.0
23.976,8169.0,-2.120412114272767,0.0
23.984,8170.0,-6.188620288184666,0.0
23.992,8164.5,-8.575637721842668,0.0
24.0,8495.0,57.710619901646396,0.0
24.008,8193.0,93.98516571040477,0.0
24.016,8156.0,31.930632388717868,0.0
24.024,8161.0,-16.147003454652122,0.0
24.032,8165.0,-40.29325429847586,0.0
24.04,8169.5,-46.72781728149448,0.0
24.048,8179.0,-40.58850703107055,0.0
24.056,8187.0,-27.2287678937721,0.0
24.064,8197.5,-11.420072336598878,0.0
24.072,8213.0,4.972403348227772,0.0
24.08,8231.0,20.7570890184345,0.0
24.088,8251.0,34.708537723651716,0.0
24.096,8263.0,44.23480386500387,0.0
24.104,8257.5,44.490058923743845,1.0
24.112,8226.0,30.336667775558453,0.0
24.12,8184.5,2.453018497109724,0.0
24.128,8160.0,-27.89308667928003,0.0
24.136,8153.0,-48.04627804160623,0.0
24.144,8154.0,-53.90626427052439,0.0
24.152,8154.5,-48.89257328459166,0.0
24.16,8159.5,-37.39113895537321,0.0
24.168,8162.0,-23.388015461198847,0.0
24.176,8159.5,-11.560692108599369,0.0
24.184,8159.0,-3.426197669336034,0.0
24.192,8158.0,1.5975297027614488,0.0
24.2,8156.5,3.8155973684142737,0.0
24.208,8158.0,4.548869330825937,0.0
24.216,8161.0,5.2122165868699994,0.0
24.224,8159.0,5.018586327978255,0.0
24.232,8162.0,4.347497612324787,0.0
24.24,8171.0,5.743094790253508,0.0
24.248,8178.0,8.966540890641909,0.0
24.256,8184.5,12.271509292955216,0.0
24.264,8164.5,9.60749537422953,0.0
24.272,8160.0,1.570022038698653,0.0
24.28,8160.0,-4.340714023480359,0.0
24.288,8157.5,-7.6889621655054725,0.0
24.296,8276.5,15.297672854944949,0.0
24.304,8310.0,57.728498845589456,0.0
24.312,8121.5,42.40306979672732,0.0
24.32,8150.5,-5.67515103777896,0.0
24.328,8163.0,-24.769627485251704,0.0
24.336,8163.0,-29.752941179003074,0.0
24.344,8174.0,-25.941858543948456,0.0
24.352,8177.0,-16.894687057064857,0.0
24.36,8190.0,-5.713957592274028,0.0
24.368,8204.0,7.280733052280539,0.0
24.376,8220.0,19.990951336770422,0.0
24.384,8242.0,32.24032061426806,0.0
24.392,8259.0,42.56429640553165,0.0
24.4,8263.0,46.50694623712275,1.0
24.408,8243.0,38.51880766588533,0.0
24.416,8207.5,16.616034037627287,0.0
24.424,8167.5,-14.281129298865835,0.0
24.432,8154.0,-41.31856709043518,0.0
24.44,8152.0,-54.21074352963274,0.0
24.448,8151.0,-54.22906930054478,0.0
24.456,8157.0,-44.99663601248972,0.0
24.464,8160.0,-30.875861631802763,0.0
24.472,8159.5,-17.332961816082843,0.0
24.48,8157.0,-7.308734064352393,0.0
24.488,8157.0,-0.7830840060839819,0.0
24.496,8157.5,3.297049870768433,0.0
24.504,8157.5,5.312313054134165,0.0
24.512,8156.5,5.4944261913676655,0.0
24.52,8162.5,5.7906118580804105,0.0
24.528,8165.5,6.92655788477532,0.0
24.536,8167.5,7.5697106809793695,0.0
24.544,8187.5,11.297030830854055,0.0
24.552,8175.0,13.32085478673639,0.0
24.56,8158.5,6.5734182150556535,0.0
24.568,8159.5,-1.5802752168226561,0.0
24.576,8161.5,-5.549865221746813,0.0
24.584,8177.5,-3.378634293690993,0.0
24.592,8478.0,63.07887982724105,0.0
24.6,8131.0,83.31825305490861,0.0
24.608,8148.5,15.338632800388268,0.0
24.616,8164.0,-20.447993126648953,0.0
24.624,8165.0,-35.14102398578143,0.0
24.632,8169.0,-37.481160069097996,0.0
24.64,8182.5,-29.6072619912718,0.0
24.648,8193.5,-15.456471067239363,0.0
24.656,8203.0,-0.5561662917966714,0.0
24.664,8216.0,12.936939309035324,0.0
24.672,8236.0,25.697274218485518,0.0
24.68,8260.5,38.43909184002405,1.0
24.688,8272.0,47.50159141235554,0.0
24.696,8264.5,46.47654007437836,0.0
24.704,8229.5,30.141149310426044,0.0
24.712,8190.0,0.6902607271188117,0.0
24.72,8167.5,-29.498249008619496,0.0
24.728,8161.0,-48.80412507078927,0.0
24.736,8161.0,-54.15026228537931,0.0
24.744,8164.0,-48.489237623978624,0.0
24.752,8167.0,-36.56397126104298,0.0
24.76,8171.0,-22.53775299891913,0.0
24.768,8170.0,-10.212778791058554,0.0
24.776,8169.5,-1.6818827889671866,0.0
24.784,8169.0,3.4139675011936106,0.0
24.792,8167.0,5.399295131172266,0.0
24.8,8166.5,5.244065685464648,0.0
24.808,8175.5,6.093757997638022,0.0
24.816,8179.5,8.328289706214264,0.0
24.824,8180.5,9.408625174121653,0.0
24.832,8197.0,12.196339583215149,0.0
24.84,8177.0,11.28082736390752,0.0
24.848,8168.0,3.104364460717761,0.0
24.856,8172.0,-3.2233446365323744,0.0
24.864,8173.5,-5.3531897375739845,0.0
24.872,8213.5,2.677314339835675,0.0
24.88,8442.5,61.97755049337002,0.0
24.888,8138.5,72.3285223645778,0.0
24.896,8163.5,10.484282366666093,0.0
24.904,8170.0,-21.24436420391271,0.0
24.912,8174.5,-34.540428040017105,0.0
24.92,8182.0,-34.71535179334887,0.0
24.928,8190.0,-26.38888154248434,0.0
24.936,8200.5,-13.684189591328732,0.0
24.944,8211.5,0.2964966690713027,0.0
24.952,8227.5,14.035821336290837,0.0
24.96,8250.5,28.000971255532477,0.0
24.968,8270.0,40.69744517656318,0.0
24.976,8277.5,47.55202811823597,0.0
24.984,8263.5,43.0684130697673,1.0
24.992,8225.0,23.16133746784817,0.0
25.0,8189.5,-7.241467366853158,0.0
25.008,8170.0,-35.36028943325823,0.0
25.016,8167.5,-51.123295328965696,0.0
25.024,8169.0,-52.89891684883537,0.0
25.032,8173.5,-44.703111357431226,0.0
25.04,8176.0,-31.64850039761609,0.0
25.048,8177.0,-18.414685890304554,0.0
25.056,8174.5,-8.102797306206412,0.0
25.064,8175.0,-1.184485333594921,0.0
25.072,8176.0,3.3930261555374273,0.0
25.08,8176.0,5.79003691335447,0.0
25.088,8175.0,6.125486360911282,0.0
25.096,8179.5,6.110227461904742,0.0
25.104,8186.5,7.524280248518153,0.0
25.112,8188.0,8.956336043559304,0.0
25.12,8205.0,12.224930469349147,0.0
25.128,8188.5,12.406678480528171,0.0
25.136,8179.0,5.32134362337365,0.0
25.144,8179.0,-1.6165480647466666,0.0
25.152,8182.0,-4.861615530893005,0.0
25.16,8196.5,-2.4684003568713706,0.0
25.168,8512.0,66.74045380047232,0.0
25.176,8167.0,91.52494116929006,0.0
25.184,8170.0,22.435302835462153,0.0
25.192,8175.0,-20.191245503870505,0.0
25.2,8181.5,-39.98982529296268,0.0
25.208,8190.0,-42.57123084258569,0.0
25.216,8198.0,-34.272605143908095,0.0
25.224,8204.0,-21.308468571076446,0.0
25.232,8215.5,-6.835619800046061,0.0
25.24,8231.5,8.378232417185927,0.0
25.248,8253.0,23.766721521475347,0.0
25.256,8274.0,37.94691812855649,0.0
25.264,8283.0,46.70888705984089,0.0
25.272,8273.0,44.60478161120682,0.0
25.28,8237.0,27.199967816355638,0.0
25.288,8200.0,-2.131006717268974,1.0
25.296,8181.5,-30.492906678443205,0.0
25.304,8175.0,-47.75052359092547,0.0
25.312,8177.0,-51.636460493053846,0.0
25.32,8181.0,-44.880095324554986,0.0
25.328,8183.5,-32.7520845523527,0.0
25.336,8184.5,-19.898943484419533,0.0
25.344,8183.0,-9.38285274983059,0.0
25.352,8184.5,-1.7411027991142873,0.0
25.36,8184.0,3.246488083250142,0.0
25.368,8182.5,5.295333546683196,0.0
25.376,8186.5,6.214934367782689,0.0
25.384,8186.0,6.531580254418259,0.0
25.392,8187.5,5.932880272158172,0.0
25.4,8195.0,6.51802283052416,0.0
25.408,8197.0,7.816723809321047,0.0
25.416,8217.0,11.894283967775209,0.0
25.424,8199.0,12.911034128456322,0.0
25.432,8185.0,5.017246950757226,0.0
25.44,8185.5,-3.169860759153835,0.0
25.448,8187.0,-7.12251280647456,0.0
25.456,8189.5,-7.56304440187364,0.0
25.464,8522.0,61.76384888096277,0.0
25.472,8194.5,94.42103487937084,0.0
25.48,8172.0,27.913808951336478,0.0
25.488,8177.5,-19.12363174864231,0.0
25.496,8182.0,-41.99912009131276,0.0
25.504,8189.5,-46.70847395174519,0.0
25.512,8195.0,-39.756111371813176,0.0
25.52,8203.5,-26.756788319395127,0.0
25.528,8213.0,-11.334950327261367,0.0
25.536,8229.0,4.713682517873622,0.0
25.544,8247.0,20.436395643381957,0.0
25.552,8269.0,34.808416437386086,0.0
25.56,8278.5,44.46611501462348,0.0
25.568,8270.0,43.64037496505807,1.0
25.576,8235.5,27.7507022635059,0.0
25.584,8196.0,-0.9720189924710212,0.0
25.592,8172.0,-30.784321781571634,0.0
25.6,8166.5,-49.77487627536152,0.0
25.608,8167.0,-54.480904256952726,0.0
25.616,8172.0,-47.880438764076644,0.0
25.624,8171.0,-35.900491383870985,0.0
25.632,8171.5,-23.474782421278405,0.0
25.64,8172.5,-12.26073329038013,0.0
25.648,8171.5,-3.769891235811656,0.0
25.656,8172.0,1.7209883542575426,0.0
25.664,8172.0,4.809513755564467,0.0
25.672,8170.5,5.600432295398377,0.0
25.68,8171.0,5.0147877511194565,0.0
25.688,8173.0,4.418889578901144,0.0
25.696,8179.0,5.0309271582507336,0.0
25.704,8180.0,6.060243004176527,0.0
25.712,8187.0,7.384580921587485,0.0
25.72,8198.0,10.725617388638739,0.0
25.728,8174.0,8.419459935673558,0.0
25.736,8171.0,0.2629904587083729,0.0
25.744,8169.5,-5.5199583103010355,0.0
25.752,8168.0,-8.715996316907194,0.0
25.76,8306.0,18.602382512622853,0.0
25.768,8345.0,68.0993318548467,0.0
25.776,8147.5,54.66540292580339,0.0
25.784,8163.0,1.2499291566014108,0.0
25.792,8165.0,-26.954133558116155,0.0
25.8,8170.5,-38.015148768346535,0.0
25.808,8178.0,-36.13715894855545,0.0
25.816,8188.5,-25.870284187239577,0.0
25.824,8197.5,-11.892364863559123,0.0
25.832,8210.5,2.671794599576515,0.0
25.84,8225.0,16.498211566102782,0.0
25.848,8249.5,30.141540303980037,1.0
25.856,8265.5,41.91455252641458,0.0
25.864,8268.5,46.404067307225205,0.0
25.872,8248.0,38.44849018904483,0.0
25.88,8207.0,15.349829364122115,0.0
25.888,8175.5,-15.44970564192272,0.0
25.896,8162.0,-40.51567922639765,0.0
25.904,8157.5,-52.87441432147966,0.0
25.912,8161.0,-52.371265393593376,0.0
25.92,8162.0,-43.21424824135261,0.0
25.928,8166.0,-30.22550916072487,0.0
25.936,8166.5,-17.04209261761821,0.0
25.944,8166.0,-6.6616594115198495,0.0
25.952,8163.5,-0.12560460202553259,0.0
25.96,8162.5,3.043797692152566,0.0
25.968,8164.0,4.558851738490148,0.0
25.976,8163.0,4.865826882091824,0.0
25.984,8165.5,4.616105923412988,0.0
25.992,8164.5,4.075016452524778,0.0
26.0,8167.5,3.545798086537161,0.0
26.008,8174.5,4.738242617717333,0.0
26.016,8179.5,7.176688730636215,0.0
26.024,8189.5,10.595223384888413,0.0
26.032,8169.5,8.96756997504167,0.0
26.04,8161.5,0.9249658947246644,0.0
26.048,8164.0,-5.095307180434247,0.0
26.056,8162.5,-7.678877216888623,0.0
26.064,8267.0,13.00039704924643,0.0
26.072,8356.0,62.79128161799031,0.0
26.08,8130.0,54.728416289113966,0.0
26.088,8152.5,0.0873593862022517,0.0
26.096,8157.5,-26.622243630739604,0.0
26.104,8162.5,-36.33900420916575,0.0
26.112,8170.0,-34.022298127911654,0.0
26.12,8176.0,-24.735958865295288,0.0
26.128,8186.5,-12.122806199718752,0.0
26.136,8201.5,2.3842230233897226,0.0
26.144,8213.5,16.11830209329173,0.0
26.152,8237.0,29.049568226611882,1.0
26.16,8251.5,40.05627159385813,0.0
26.168,8258.0,44.782931553190565,0.0
26.176,8241.5,38.74564120022433,0.0
26.184,8205.0,18.472957411604057,0.0
26.192,8168.5,-11.230952921981498,0.0
26.2,8152.5,-37.820844771935754,0.0
26.208,8149.0,-51.79584256503949,0.0
26.216,8153.5,-52.00347129275883,0.0
26.224,8160.5,-41.89246303108712,0.0
26.232,8158.5,-28.53993342062313,0.0
26.24,8159.0,-16.622729881563373,0.0
26.248,8161.0,-6.543961238550537,0.0
26.256,8157.0,0.00014603769022869528,0.0
26.264,8157.0,3.053094854001756,0.0
26.272,8158.0,4.600019358189684,0.0
26.28,8156.0,4.61314990450478,0.0
26.288,8161.0,4.534409784140735,0.0
26.296,8156.5,3.902523373864369,0.0
26.304,8167.5,4.265113543704047,0.0
26.312,8167.0,5.978065871160197,0.0
26.32,8187.0,10.068623779498466,0.0
26.328,8176.0,12.799958191806127,0.0
26.336,8164.5,7.877871567784496,0.0
26.344,8156.0,-0.3134371490243666,0.0
26.352,8164.0,-5.212393260660974,0.0
26.36,8150.5,-8.44302201965911,0.0
26.368,8414.5,42.10380774065561,0.0
26.376,8163.0,68.16744560853294,0.0
26.384,8131.0,15.327165019160248,0.0
26.392,8152.5,-20.391427594699508,0.0
26.4,8159.0,-32.7033401874387,0.0
26.408,8166.5,-32.1661610717822,0.0
26.416,8180.5,-22.579236815059858,0.0
26.424,8183.0,-10.115303199137543,0.0
26.432,8192.0,1.1389054334110824,0.0
26.44,8210.0,13.138076614369766,0.0
26.448,8230.5,26.108060914852103,0.0
26.456,8246.0,37.17502772218859,1.0
26.464,8267.0,45.54082073692007,0.0
26.472,8264.0,47.26122580787023,0.0
26.48,8236.5,34.882135710386365,0.0
26.488,8196.0,8.380162678487068,0.0
26.496,8167.0,-22.76249934735324,0.0
