Time_Seconds,ECG_Raw,ECG_Filtered,R_Peak_Marker
0.0,8262.0,120.09594110159719,0.0
0.008,8269.0,294.4385673304796,0.0
0.016,8257.0,351.8826427347317,0.0
0.024,8217.0,321.881769287382,0.0
0.032,8179.0,239.4027623482625,0.0
0.04,8160.0,142.68338207850775,0.0
0.048,8154.0,58.74369454869429,0.0
0.056,8155.0,-0.8258398680566188,0.0
0.064,8162.0,-34.29555064957981,0.0
0.072,8164.0,-47.05116472384202,0.0
0.08,8167.0,-46.439797797711435,0.0
0.088,8165.0,-38.83311408421491,0.0
0.096,8164.0,-29.059877888598294,0.0
0.104,8164.0,-19.078482443609346,0.0
0.112,8163.0,-10.487279326293901,0.0
0.12,8162.0,-4.225062282602721,0.0
0.128,8170.0,1.5490776356903098,0.0
0.136,8170.0,6.363442604455713,0.0
0.144,8190.0,12.331893586472688,0.0
0.152,8184.0,16.852176570980873,0.0
0.16,8165.0,11.86295498601794,0.0
0.168,8161.0,2.4148546070618977,0.0
0.176,8163.0,-3.9474584916090407,0.0
0.184,8154.0,-8.541744438308797,0.0
0.192,8444.0,47.44476333441776,0.0
0.2,8217.0,86.23285752830907,0.0
0.208,8151.0,36.23801192012252,0.0
0.216,8156.0,-11.28531797479286,0.0
0.224,8159.0,-36.04514292234467,0.0
0.232,8166.0,-43.180185209404044,0.0
0.24,8174.0,-37.78869933678311,0.0
0.248,8183.0,-25.39785660970915,0.0
0.256,8190.0,-10.950504614744204,0.0
0.264,8203.0,3.3398777767401953,0.0
0.272,8223.0,18.026748672733447,0.0
0.28,8244.0,32.355805827143286,0.0
0.288,8260.0,43.483595030239485,0.0
0.296,8258.0,46.33213649589811,0.0
0.304,8226.0,34.04603242352232,0.0
0.312,8187.0,7.112911827884545,0.0
0.32,8159.0,-23.58184790869882,0.0
0.328,8146.0,-46.53572551918978,0.0
0.336,8147.0,-55.50685551602396,0.0
0.344,8149.0,-51.78397006360137,0.0
0.352,8152.0,-40.70969653080988,1.0
0.36,8152.0,-27.375416437838794,0.0
0.368,8149.0,-15.952011389721974,0.0
0.376,8149.0,-7.390617733997715,0.0
0.384,8148.0,-1.411219581198111,0.0
0.392,8145.0,1.5217408773278294,0.0
0.4,8149.0,3.229875802691595,0.0
0.408,8144.0,3.5460758617828105,0.0
0.416,8153.0,4.012652395989562,0.0
0.424,8154.0,5.723227765661932,0.0
0.432,8167.0,8.72736187620194,0.0
0.44,8167.0,11.836741478858812,0.0
0.448,8148.0,7.999318065199532,0.0
0.456,8146.0,0.22676383602379246,0.0
0.464,8150.0,-3.9956903468150813,0.0
0.472,8140.0,-7.1128539156113675,0.0
0.48,8375.0,38.089738766297614,0.0
0.488,8193.0,69.87556725714171,0.0
0.496,8122.0,26.39158450604782,0.0
0.504,8147.0,-12.723884846487636,0.0
0.512,8149.0,-28.41149555094171,0.0
0.52,8155.0,-31.747197984738023,0.0
0.528,8164.0,-25.842164598694353,0.0
0.536,8168.0,-15.776049692899505,0.0
0.544,8185.0,-3.1408132767060124,0.0
0.552,8197.0,10.732552979331103,0.0
0.56,8211.0,22.6218786302652,0.0
0.568,8235.0,33.986893725831806,0.0
0.576,8254.0,44.340266109709546,0.0
0.584,8253.0,47.41814059504645,0.0
0.592,8229.0,36.94172007108273,0.0
0.6,8184.0,11.048424564593006,0.0
0.608,8155.0,-21.058160282225344,0.0
0.616,8141.0,-45.638211416423474,0.0
0.624,8141.0,-56.11573313462986,0.0
0.632,8144.0,-53.19141222893836,0.0
0.64,8147.0,-42.17172278330008,0.0
0.648,8152.0,-27.626559071119345,0.0
0.656,8154.0,-13.405955016302414,0.0
0.664,8155.0,-2.350509732193359,0.0
0.672,8155.0,4.748328226692138,0.0
0.68,8153.0,7.8180650379028975,0.0
0.688,8156.0,8.652492211526578,0.0
0.696,8157.0,8.651354414855177,0.0
0.704,8166.0,9.38204232147109,0.0
0.712,8169.0,10.843351479826424,0.0
0.72,8185.0,13.945302895131363,0.0
0.728,8170.0,13.869820150671103,0.0
0.736,8160.0,6.614830725657157,0.0
0.744,8159.0,-0.9259535429980588,0.0
0.752,8162.0,-4.836573792553963,0.0
0.76,8171.0,-3.9644165941731444,0.0
0.768,8498.0,65.79750504955564,0.0
0.776,8171.0,97.07891209560012,0.0
0.784,8154.0,30.580892150889895,0.0
0.792,8159.0,-15.833961318120828,0.0
0.8,8164.0,-38.84000546559423,0.0
0.808,8172.0,-43.90122805523197,0.0
0.816,8180.0,-36.96966920191949,0.0
0.824,8190.0,-23.58790366457424,0.0
0.832,8204.0,-7.194525189059732,0.0
0.84,8219.0,9.515990658972441,0.0
0.848,8241.0,25.514956176014493,0.0
0.856,8265.0,40.50618740334994,1.0
0.864,8280.0,51.19849286036151,0.0
0.872,8272.0,51.189714612796024,0.0
0.88,8233.0,33.82141947788614,0.0
0.888,8195.0,2.690948494338045,0.0
0.896,8173.0,-28.385589735913754,0.0
0.904,8168.0,-47.97673501611871,0.0
0.912,8171.0,-52.697668364971605,0.0
0.92,8173.0,-46.478527903470194,0.0
0.928,8178.0,-34.32373927914955,0.0
0.936,8182.0,-20.09282589240297,0.0
0.944,8184.0,-7.404572660376516,0.0
0.952,8184.0,1.6304616467616597,0.0
0.96,8181.0,6.113666337182622,0.0
0.968,8182.0,7.429520572277852,0.0
0.976,8186.0,8.102815706201682,0.0
0.984,8187.0,8.294022957493098,0.0
0.992,8198.0,9.601240723662613,0.0
1.0,8200.0,11.57457644971646,0.0
1.008,8222.0,15.889981318103537,0.0
1.016,8212.0,18.48460580971914,0.0
1.024,8195.0,11.700455777175193,0.0
1.032,8191.0,1.624076120155678,0.0
1.04,8194.0,-4.785608130933497,0.0
1.048,8186.0,-8.872234272079595,0.0
1.056,8493.0,51.14202366985501,0.0
1.064,8256.0,93.18168013640616,0.0
1.072,8186.0,41.19606802791964,0.0
1.08,8187.0,-9.890704315914718,0.0
1.088,8192.0,-37.37798479363346,0.0
1.096,8199.0,-45.51536357629948,0.0
1.104,8207.0,-40.362617251094434,0.0
1.112,8218.0,-27.31412671319822,0.0
1.12,8227.0,-11.370110423580854,0.0
1.128,8241.0,4.4819164306850325,0.0
1.136,8261.0,20.123495571780495,0.0
1.144,8282.0,34.69927402962253,0.0
1.152,8298.0,45.6176763642668,0.0
1.16,8297.0,48.223135685610714,1.0
1.168,8265.0,35.710876260616715,0.0
1.176,8224.0,7.982996137038754,0.0
1.184,8200.0,-22.905096476810513,0.0
1.192,8191.0,-44.44150774287618,0.0
1.2,8189.0,-52.687557790082565,0.0
1.208,8197.0,-48.35039759067104,0.0
1.216,8200.0,-36.20760815437484,0.0
1.224,8203.0,-22.311076782867303,0.0
1.232,8206.0,-9.484263505334184,0.0
1.24,8206.0,0.15232148825521108,0.0
1.248,8205.0,5.623987406742799,0.0
1.256,8203.0,7.394356264004728,0.0
1.264,8206.0,7.524578623158959,0.0
1.272,8207.0,7.2779802734560235,0.0
1.28,8208.0,6.437316349692765,0.0
1.288,8216.0,6.802883368504354,0.0
1.296,8217.0,7.82638910314995,0.0
1.304,8239.0,11.94403469957183,0.0
1.312,8221.0,13.38555017261092,0.0
1.32,8211.0,6.488229564342419,0.0
1.328,8208.0,-1.2304373739543735,0.0
1.336,8211.0,-5.608695446940146,0.0
1.344,8217.0,-5.508938202767695,0.0
1.352,8554.0,65.46046085810372,0.0
1.36,8240.0,102.20598689462031,0.0
1.368,8204.0,36.936307910109235,0.0
1.376,8203.0,-14.823183392658848,0.0
1.384,8207.0,-42.57338917813422,0.0
1.392,8213.0,-50.48717857444899,0.0
1.4,8219.0,-45.06131848926816,0.0
1.408,8223.0,-32.977637773984725,0.0
1.416,8234.0,-17.767057418466948,0.0
1.424,8246.0,-1.3789306958756242,0.0
1.432,8264.0,14.651067329062926,0.0
1.44,8285.0,29.877639141111104,0.0
1.448,8291.0,39.86892811066218,0.0
1.456,8282.0,39.120257369359706,0.0
1.464,8242.0,22.73566156444531,0.0
1.472,8199.0,-7.35812445276224,0.0
1.48,8172.0,-38.34101907327158,0.0
1.488,8165.0,-57.797528850983326,0.0
1.496,8163.0,-62.37999649089443,0.0
1.504,8164.0,-55.836817354223285,0.0
1.512,8164.0,-43.297370596378414,0.0
1.52,8165.0,-29.11286919031818,0.0
1.528,8161.0,-16.923226314065232,0.0
1.536,8160.0,-8.17003487236343,0.0
1.544,8161.0,-1.7547381628296534,0.0
1.552,8155.0,1.28379263091324,0.0
1.56,8157.0,2.0689333197515225,0.0
1.568,8156.0,2.4238903411767296,0.0
1.576,8159.0,2.6749226010217626,0.0
1.584,8167.0,4.665141893256305,0.0
1.592,8168.0,6.973571144420703,0.0
1.6,8191.0,12.18471648324271,0.0
1.608,8179.0,15.666541472009612,0.0
1.616,8164.0,9.83433216738149,0.0
1.624,8165.0,2.0339608235656215,0.0
1.632,8165.0,-2.6832375738224528,0.0
1.64,8157.0,-6.700577035953529,0.0
1.648,8460.0,52.208204766431436,0.0
1.656,8206.0,89.14212151735614,0.0
1.664,8156.0,35.36233059873871,0.0
1.672,8159.0,-11.406434548297284,0.0
1.68,8161.0,-36.31455091869043,0.0
1.688,8167.0,-43.90504872514953,0.0
1.696,8174.0,-39.081622279544945,0.0
1.704,8179.0,-27.852210703504625,0.0
1.712,8192.0,-13.311016477405246,0.0
1.72,8204.0,2.414249636980003,0.0
1.728,8221.0,17.272841255558887,0.0
1.736,8243.0,31.409153376775294,1.0
1.744,8254.0,41.7492738730607,0.0
1.752,8254.0,43.782030449600825,0.0
1.76,8225.0,32.42160283692897,0.0
1.768,8183.0,6.28220847272587,0.0
1.776,8157.0,-24.02149926959919,0.0
1.784,8148.0,-45.45164809384755,0.0
1.792,8149.0,-52.86880303487601,0.0
1.8,8152.0,-48.422558366354224,0.0
1.808,8152.0,-37.838722723923865,0.0
1.816,8153.0,-25.638361955959454,0.0
1.824,8153.0,-14.331709592797552,0.0
1.832,8152.0,-5.676418511477095,0.0
1.84,8150.0,-0.30998406021581104,0.0
1.848,8147.0,1.8892095480689477,0.0
1.856,8148.0,2.4947809070972653,0.0
1.864,8148.0,2.6789774021892754,0.0
1.872,8152.0,3.1989496075148054,0.0
1.88,8160.0,5.473071684909883,0.0
1.888,8158.0,7.214006409484,0.0
1.896,8181.0,11.440181123796947,0.0
1.904,8168.0,14.248075633345934,0.0
1.912,8155.0,8.436661942614137,0.0
1.92,8155.0,1.0647932183089779,0.0
1.928,8156.0,-3.252052187830486,0.0
1.936,8146.0,-7.150685365788377,0.0
1.944,8443.0,50.26213427859943,0.0
1.952,8190.0,85.58488461037109,0.0
1.96,8143.0,32.20877492768227,0.0
1.968,8149.0,-12.61733259349512,0.0
1.976,8154.0,-34.967173064367216,0.0
1.984,8164.0,-39.81888333777488,0.0
1.992,8171.0,-33.178050066753485,0.0
2.0,8182.0,-20.5430733746457,0.0
2.008,8193.0,-5.461578451170681,0.0
2.016,8208.0,9.597453973804022,0.0
2.024,8226.0,23.790180819806892,0.0
2.032,8249.0,36.953197655692975,0.0
2.04,8261.0,46.28577202175484,0.0
2.048,8259.0,46.830579987851024,1.0
2.056,8229.0,33.515083453627085,0.0
2.064,8190.0,6.462281632587292,0.0
2.072,8162.0,-24.20461416608987,0.0
2.08,8155.0,-45.82178942841347,0.0
2.088,8156.0,-52.8848320527145,0.0
2.096,8158.0,-48.43103657986785,0.0
2.104,8163.0,-37.02424670976575,0.0
2.112,8162.0,-23.84777387276904,0.0
2.12,8163.0,-12.439625554068243,0.0
2.128,8162.0,-3.8068713811003363,0.0
2.136,8161.0,1.4670901919034804,0.0
2.144,8161.0,4.159373357371351,0.0
2.152,8165.0,5.93817838410655,0.0
2.16,8168.0,7.519968580328168,0.0
2.168,8173.0,8.949727290519832,0.0
2.176,8177.0,10.277107358230978,0.0
2.184,8182.0,11.342694379602335,0.0
2.192,8200.0,14.952113395097967,0.0
2.2,8201.0,18.7015166345293,0.0
2.208,8183.0,14.610422851335215,0.0
2.216,8181.0,5.889827688549985,0.0
2.224,8186.0,0.45241716095733864,0.0
2.232,8179.0,-3.240451891238081,0.0
2.24,8413.0,41.44316931081403,0.0
2.248,8305.0,87.32761944529489,0.0
2.256,8190.0,55.664625913728514,0.0
2.264,8193.0,5.6180770927880985,0.0
2.272,8199.0,-22.992428754528646,0.0
2.28,8205.0,-33.97510126405973,0.0
2.288,8213.0,-32.45899776416809,0.0
2.296,8225.0,-22.555192977859406,0.0
2.304,8236.0,-8.579546710717523,0.0
2.312,8252.0,6.502510257302902,0.0
2.32,8272.0,21.79098625150823,0.0
2.328,8295.0,36.31373046978001,0.0
2.336,8313.0,47.77320108725621,0.0
2.344,8316.0,51.59764925418244,0.0
2.352,8295.0,42.35919409937242,0.0
2.36,8260.0,19.032586979502184,0.0
2.368,8231.0,-10.723547606847433,0.0
2.376,8219.0,-35.07179394925515,0.0
2.384,8221.0,-46.19701700698397,0.0
2.392,8226.0,-44.34233674872257,0.0
2.4,8232.0,-34.27535118967762,0.0
2.408,8231.0,-22.103700596494264,0.0
2.416,8232.0,-11.554224591037382,0.0
2.424,8232.0,-3.3592242210149834,0.0
2.432,8233.0,2.200884354249183,0.0
2.44,8233.0,5.359744177381799,0.0
2.448,8234.0,6.619589012503866,0.0
2.456,8234.0,6.565352166885987,0.0
2.464,8237.0,6.150794176253157,0.0
2.472,8241.0,6.4031980362888135,0.0
2.48,8243.0,6.807473806532926,0.0
2.488,8257.0,9.283281638473909,0.0
2.496,8262.0,13.221730899023896,0.0
2.504,8236.0,9.256035521856802,0.0
2.512,8240.0,1.01278744057322,0.0
2.52,8238.0,-3.6072047666732487,0.0
2.528,8233.0,-7.222671491451365,0.0
2.536,8359.0,16.454589439011215,0.0
2.544,8355.0,52.8872731033357,0.0
2.552,8199.0,33.7270354155246,0.0
2.56,8219.0,-10.50262633541388,0.0
2.568,8217.0,-31.390238420566675,0.0
2.576,8222.0,-38.3711046411413,0.0
2.584,8228.0,-34.434755972173434,0.0
2.592,8234.0,-24.434480512152277,0.0
2.6,8244.0,-11.54696524540418,0.0
2.608,8253.0,1.707061924174468,0.0
2.616,8268.0,14.189880787911079,0.0
2.624,8287.0,26.36707389364551,1.0
2.632,8302.0,36.51731422196576,0.0
2.64,8304.0,40.456807764404175,0.0
2.648,8287.0,33.58837579836927,0.0
2.656,8243.0,11.97165194415743,0.0
2.664,8208.0,-18.767251767393873,0.0
2.672,8191.0,-44.72449472317999,0.0
2.68,8188.0,-57.38082059576118,0.0
2.688,8189.0,-56.57474280495876,0.0
2.696,8189.0,-47.3163301164584,0.0
2.704,8191.0,-34.2586043246738,0.0
2.712,8191.0,-20.93367638369068,0.0
2.72,8186.0,-10.90104765854926,0.0
2.728,8182.0,-5.153747493754054,0.0
2.736,8180.0,-2.1992396449306852,0.0
2.744,8180.0,-0.5271195337054451,0.0
2.752,8178.0,0.13308543796483718,0.0
2.76,8179.0,0.2990514222303773,0.0
2.768,8182.0,1.169067003459304,0.0
2.776,8182.0,2.119250900016823,0.0
2.784,8202.0,6.445901125011233,0.0
2.792,8181.0,7.823099416290006,0.0
2.8,8167.0,0.3009691535496586,0.0
2.808,8168.0,-6.849147474909614,0.0
2.816,8170.0,-9.426400587477474,0.0
2.824,8186.0,-5.844015398668262,0.0
2.832,8488.0,62.128285137665216,0.0
2.84,8164.0,88.41299212473746,0.0
2.848,8153.0,22.112495176941366,0.0
2.856,8155.0,-22.288732106693487,0.0
2.864,8158.0,-44.14680572904854,0.0
2.872,8165.0,-48.33744935696927,0.0
2.88,8170.0,-41.035651325978506,0.0
2.888,8176.0,-28.248581836719268,0.0
2.896,8185.0,-13.338999219247853,0.0
2.904,8196.0,1.5868695749250037,0.0
2.912,8214.0,16.09813951958222,0.0
2.92,8231.0,29.389941526968187,0.0
2.928,8234.0,36.88084576843198,0.0
2.936,8226.0,34.6978785253018,1.0
2.944,8192.0,19.565632736073894,0.0
2.952,8154.0,-7.059592691451371,0.0
2.96,8133.0,-33.78913816891668,0.0
2.968,8128.0,-49.78593655420241,0.0
2.976,8128.0,-52.71978523991015,0.0
2.984,8128.0,-46.461916797018375,0.0
2.992,8128.0,-35.71684871825937,0.0
3.0,8126.0,-24.355738970897846,0.0
3.008,8127.0,-14.14848071027086,0.0
3.016,8122.0,-6.78405162295644,0.0
3.024,8121.0,-2.626003046118967,0.0
3.032,8120.0,-0.17740856359409918,0.0
3.04,8122.0,1.5018842331951419,0.0
3.048,8123.0,2.880214320433197,0.0
3.056,8128.0,4.484486920004883,0.0
3.064,8127.0,5.570553238199864,0.0
3.072,8148.0,9.454305931516501,0.0
3.08,8126.0,10.113465674434337,0.0
3.088,8116.0,2.4323445118441214,0.0
3.096,8115.0,-4.726339086019834,0.0
3.104,8115.0,-8.447704795636128,0.0
3.112,8144.0,-3.4430186772854086,0.0
3.12,8427.0,63.78060389511256,0.0
3.128,8115.0,87.9419271717552,0.0
3.136,8107.0,23.521595969800728,0.0
3.144,8106.0,-19.981340703864817,0.0
3.152,8113.0,-41.453693688004705,0.0
3.16,8116.0,-45.82453033987895,0.0
3.168,8124.0,-39.214587174648386,0.0
3.176,8130.0,-26.499871859728046,0.0
3.184,8142.0,-11.285301982137526,0.0
3.192,8157.0,4.939676803065822,0.0
3.2,8175.0,20.5281164013536,0.0
3.208,8191.0,33.58101715738985,0.0
3.216,8200.0,41.31672317934408,0.0
3.224,8189.0,39.21890240426774,0.0
3.232,8154.0,22.634368214843562,0.0
3.24,8120.0,-4.702092225728393,1.0
3.248,8102.0,-30.779580044559225,0.0
3.256,8097.0,-46.23413466749798,0.0
3.264,8101.0,-48.568593078514596,0.0
3.272,8106.0,-40.74690852677077,0.0
3.28,8110.0,-28.104757471351377,0.0
3.288,8109.0,-15.754294739759871,0.0
3.296,8109.0,-6.26601522765327,0.0
3.304,8110.0,0.4996403269710754,0.0
3.312,8112.0,5.037988969953858,0.0
3.32,8113.0,7.57104475478468,0.0
3.328,8115.0,8.534132493397692,0.0
3.336,8116.0,8.422728248774774,0.0
3.344,8124.0,8.918566360917794,0.0
3.352,8126.0,9.902652515640057,0.0
3.36,8138.0,11.843491978329666,0.0
3.368,8146.0,15.281704544660897,0.0
3.376,8125.0,12.342260286105557,0.0
3.384,8122.0,3.829425673462765,0.0
3.392,8122.0,-2.398539287706626,0.0
3.4,8117.0,-6.739604752709738,0.0
3.408,8318.0,31.757861482068165,0.0
3.416,8253.0,77.495244997501,0.0
3.424,8114.0,51.11769619403003,0.0
3.432,8122.0,1.0046032250572807,0.0
3.44,8126.0,-26.332897155443334,0.0
3.448,8132.0,-36.46486354047397,0.0
3.456,8138.0,-34.47677814068402,0.0
3.464,8146.0,-25.21372966079275,0.0
3.472,8159.0,-11.622561724419938,0.0
3.48,8173.0,3.6934723868544097,0.0
3.488,8191.0,18.729002078203848,0.0
3.496,8210.0,32.340582266889896,0.0
3.504,8224.0,42.22916154951395,0.0
3.512,8226.0,44.94362488211618,0.0
3.52,8208.0,36.46615681020444,0.0
3.528,8171.0,14.687351032234801,0.0
3.536,8140.0,-14.311830630945906,0.0
3.544,8130.0,-37.6683902018533,0.0
3.552,8132.0,-47.40485504846674,0.0
3.56,8136.0,-44.75004379418829,0.0
3.568,8142.0,-34.35234970704414,0.0
3.576,8142.0,-21.769143927166397,0.0
3.584,8141.0,-11.231298427089314,0.0
3.592,8142.0,-3.2964365611792346,0.0
3.6,8143.0,2.3046080055742095,0.0
3.608,8143.0,5.471951576746278,0.0
3.616,8146.0,7.12840336889235,0.0
3.624,8146.0,7.64017861020784,0.0
3.632,8153.0,8.214606156369655,0.0
3.64,8160.0,10.169101946193223,0.0
3.648,8161.0,11.417638242762223,0.0
3.656,8179.0,14.306687486545343,0.0
3.664,8161.0,13.846203754886346,0.0
3.672,8151.0,5.754203432211625,0.0
3.68,8155.0,-1.129602323845802,0.0
3.688,8153.0,-4.620811005207543,0.0
3.696,8185.0,0.14408815525416685,0.0
3.704,8451.0,63.82184183973777,0.0
3.712,8149.0,84.44978617253128,0.0
3.72,8147.0,21.73808347198974,0.0
3.728,8144.0,-19.66676827927722,0.0
3.736,8146.0,-41.376115961930736,0.0
3.744,8153.0,-46.10317341105588,0.0
3.752,8160.0,-39.0487505866065,0.0
3.76,8168.0,-25.892012693887636,0.0
3.768,8176.0,-10.916791665496476,0.0
3.776,8188.0,3.680660321075038,0.0
3.784,8204.0,17.475960891727937,0.0
3.792,8220.0,29.52254333568135,1.0
3.8,8226.0,36.66552442943862,0.0
3.808,8216.0,34.51374209117239,0.0
3.816,8179.0,18.40635213863152,0.0
3.824,8140.0,-9.437014614546797,0.0
3.832,8123.0,-35.91361916549977,0.0
3.84,8119.0,-50.41722818700964,0.0
3.848,8119.0,-52.167995057386406,0.0
3.856,8121.0,-44.8855102354471,0.0
3.864,8120.0,-33.569186736806614,0.0
3.872,8119.0,-22.19584838215519,0.0
3.88,8119.0,-12.308823050798537,0.0
3.888,8117.0,-5.004091356841855,0.0
3.896,8115.0,-0.742609057472464,0.0
3.904,8117.0,1.8902128473705488,0.0
3.912,8118.0,3.7735832755884076,0.0
3.92,8121.0,5.132488973148611,0.0
3.928,8127.0,6.996705071576571,0.0
3.936,8128.0,8.468522094678292,0.0
3.944,8153.0,13.3668457799929,0.0
3.952,8133.0,15.258638858174436,0.0
3.96,8122.0,7.730726856677393,0.0
3.968,8123.0,0.06365442561946111,0.0
3.976,8127.0,-3.4587862109342495,0.0
3.984,8128.0,-3.9960548595297496,0.0
3.992,8458.0,63.91562727484575,0.0
4.0,8163.0,101.53864945921146,0.0
4.008,8125.0,40.36221049510914,0.0
4.016,8123.0,-10.108855150038607,0.0
4.024,8125.0,-38.42473840561979,0.0
4.032,8134.0,-47.09775212647469,0.0
4.04,8143.0,-41.4089681658802,0.0
4.048,8151.0,-28.29342835347211,0.0
4.056,8160.0,-12.774188018521727,0.0
4.064,8173.0,2.835200948523152,0.0
4.072,8194.0,18.582945947184726,0.0
4.08,8213.0,33.25077540078928,0.0
4.088,8224.0,43.01312026191408,0.0
4.096,8221.0,43.89966477711528,1.0
4.104,8195.0,31.84353448846855,0.0
4.112,8156.0,6.606149639271507,0.0
4.12,8133.0,-21.987419521609354,0.0
4.128,8130.0,-40.87587828842311,0.0
4.136,8136.0,-45.23631356488636,0.0
4.144,8135.0,-39.93520459527576,0.0
4.152,8135.0,-30.949789923649632,0.0
4.16,8140.0,-19.921972911306284,0.0
4.168,8139.0,-9.562530571668503,0.0
4.176,8136.0,-2.803384242063885,0.0
4.184,8139.0,1.6189898948960035,0.0
4.192,8137.0,4.193217515297874,0.0
4.2,8137.0,4.671268567685729,0.0
4.208,8137.0,4.245767719904052,0.0
4.216,8144.0,4.780524488971196,0.0
4.224,8145.0,6.006401415684877,0.0
4.232,8165.0,10.111058968459474,0.0
4.24,8163.0,14.683005630415437,0.0
4.248,8146.0,11.279014723261753,0.0
4.256,8146.0,4.082754335907794,0.0
4.264,8150.0,0.02510735578675849,0.0
4.272,8143.0,-2.9912874232097693,0.0
4.28,8396.0,45.93633893612264,0.0
4.288,8193.0,78.12260652693135,0.0
4.296,8139.0,32.807891005194506,0.0
4.304,8153.0,-7.137253543914994,0.0
4.312,8158.0,-25.796938633337504,0.0
4.32,8165.0,-30.4695153509972,0.0
4.328,8174.0,-25.3445181565246,0.0
4.336,8183.0,-14.793660321544394,0.0
4.344,8193.0,-2.429291209081839,0.0
4.352,8206.0,9.950204480396451,0.0
4.36,8225.0,22.300475753732144,0.0
4.368,8247.0,34.59972427312482,0.0
4.376,8259.0,43.57398100047544,0.0
4.384,8256.0,44.11371920883539,0.0
4.392,8231.0,32.024335887934285,0.0
4.4,8194.0,7.352776096940488,0.0
4.408,8166.0,-21.632264914006555,0.0
4.416,8158.0,-42.849093361141286,0.0
4.424,8160.0,-50.12606735088434,0.0
4.432,8166.0,-45.19554770517061,0.0
4.44,8165.0,-34.405963897169386,0.0
4.448,8168.0,-22.400069935590864,0.0
4.456,8166.0,-11.699388214504324,0.0
4.464,8165.0,-4.210159811985022,0.0
4.472,8163.0,0.2443649676183668,0.0
4.48,8166.0,3.0460157893980977,0.0
4.488,8169.0,5.466900465162553,0.0
4.496,8177.0,8.31707009971592,0.0
4.504,8182.0,11.397600441282748,0.0
4.512,8193.0,14.760223437370314,0.0
4.52,8198.0,17.779862227450394,0.0
4.528,8182.0,14.62272558463701,0.0
4.536,8183.0,7.474110016868508,0.0
4.544,8188.0,3.339072202098123,0.0
4.552,8185.0,0.7959765455859724,0.0
4.56,8378.0,37.98847114432624,0.0
4.568,8321.0,82.00946261795866,0.0
4.576,8186.0,56.384043607512695,0.0
4.584,8198.0,7.551725123507595,0.0
4.592,8204.0,-18.7951433508415,1.0
4.6,8212.0,-28.666860810972366,0.0
4.608,8222.0,-26.48132893754041,0.0
4.616,8234.0,-16.67930881750226,0.0
4.624,8245.0,-3.6547112287344135,0.0
4.632,8261.0,10.118233929568987,0.0
4.64,8280.0,23.88001614660152,0.0
4.648,8301.0,36.57025211915902,0.0
4.656,8314.0,45.476982901200245,0.0
4.664,8319.0,47.5269762453504,0.0
4.672,8297.0,38.06057433423166,0.0
4.68,8263.0,15.250881373506672,0.0
4.688,8236.0,-13.013297351283882,0.0
4.696,8229.0,-34.701944598449245,0.0
4.704,8232.0,-43.08455371715513,0.0
4.712,8236.0,-40.079782269441466,0.0
4.72,8243.0,-29.978888248996554,0.0
4.728,8245.0,-17.62137544542884,0.0
4.736,8246.0,-7.028651762163236,0.0
4.744,8245.0,0.3014941305877983,0.0
4.752,8243.0,3.9779177853031342,0.0
4.76,8245.0,5.549049384255113,0.0
4.768,8248.0,6.658416758506519,0.0
4.776,8249.0,7.1222035189114195,0.0
4.784,8255.0,7.746781894321202,0.0
4.792,8257.0,8.57605953615871,0.0
4.8,8269.0,10.626472653638075,0.0
4.808,8268.0,12.475293974743181,0.0
4.816,8248.0,7.386964727418217,0.0
4.824,8245.0,-1.4411348042408463,0.0
4.832,8247.0,-6.647866090837624,0.0
4.84,8235.0,-10.762231665642275,0.0
4.848,8469.0,33.79100366323269,0.0
4.856,8343.0,77.0810876041619,0.0
4.864,8237.0,43.59857793586684,0.0
4.872,8240.0,-3.8559670152747003,0.0
4.88,8238.0,-31.131595728177444,0.0
4.888,8240.0,-42.54244020906458,0.0
4.896,8250.0,-40.38924884734138,0.0
4.904,8256.0,-29.723554978344964,0.0
4.912,8267.0,-15.436325418720799,0.0
4.92,8275.0,-0.7648366136766072,0.0
4.928,8287.0,12.113832422568521,0.0
4.936,8311.0,25.248485753090563,1.0
4.944,8321.0,36.13455764521291,0.0
4.952,8318.0,38.52424293328136,0.0
4.96,8293.0,28.376345844096022,0.0
4.968,8253.0,4.79315368649668,0.0
4.976,8227.0,-23.3644603547898,0.0
4.984,8210.0,-45.259434351522714,0.0
4.992,8207.0,-55.43223789697686,0.0
5.0,8210.0,-53.04423558482404,0.0
5.008,8214.0,-42.159736963372325,0.0
5.016,8213.0,-28.71784619501682,0.0
5.024,8210.0,-17.231572998665115,0.0
5.032,8208.0,-8.847604229134504,0.0
5.04,8210.0,-2.547937687064632,0.0
5.048,8210.0,1.9725737967523855,0.0
5.056,8209.0,4.14263054065691,0.0
5.064,8212.0,5.206528482658996,0.0
5.072,8217.0,6.680751392934553,0.0
5.08,8213.0,6.744024448736809,0.0
5.088,8230.0,8.41488103619804,0.0
5.096,8214.0,8.331528401848345,0.0
5.104,8199.0,0.68575019131913,0.0
5.112,8195.0,-7.821633922496176,0.0
5.12,8199.0,-11.667034837041683,0.0
5.128,8211.0,-8.903525216755725,0.0
5.136,8507.0,57.00534321660962,0.0
5.144,8184.0,81.8249342019933,0.0
5.152,8182.0,17.699805652237046,0.0
5.16,8185.0,-22.70288828710568,0.0
5.168,8192.0,-41.111940794698285,0.0
5.176,8196.0,-43.5186595430971,0.0
5.184,8202.0,-36.301038342170386,0.0
5.192,8209.0,-23.872972456053276,0.0
5.2,8223.0,-8.613293061316199,0.0
5.208,8236.0,7.233255326581229,0.0
5.216,8253.0,21.63725576252773,0.0
5.224,8268.0,33.41292088317232,0.0
5.232,8274.0,39.60155393809714,0.0
5.24,8261.0,35.82733254124878,1.0
5.248,8225.0,18.152677338456215,0.0
5.256,8189.0,-9.761904108775525,0.0
5.264,8164.0,-37.25287195173951,0.0
5.272,8161.0,-53.58343299174021,0.0
5.28,8159.0,-56.138923077631944,0.0
5.288,8162.0,-48.93461150437474,0.0
5.296,8164.0,-36.233424693105235,0.0
5.304,8161.0,-23.432849712718507,0.0
5.312,8160.0,-13.127117464121511,0.0
5.32,8155.0,-6.26790339501531,0.0
5.328,8153.0,-2.691193135045978,0.0
5.336,8151.0,-0.9851192363719292,0.0
5.344,8152.0,-0.03109506556938868,0.0
5.352,8151.0,0.5378276352084868,0.0
5.36,8159.0,2.222852334893105,0.0
5.368,8157.0,4.1081674588106125,0.0
5.376,8177.0,8.277707874973657,0.0
5.384,8157.0,9.488568983647383,0.0
5.392,8142.0,1.6155623406032191,0.0
5.4,8140.0,-6.758573141834631,0.0
5.408,8144.0,-10.277741949013489,0.0
5.416,8150.0,-8.757737344363932,0.0
5.424,8474.0,60.888239245145314,0.0
5.432,8143.0,91.41527344949941,0.0
5.44,8131.0,25.53409394352184,0.0
5.448,8136.0,-18.72930280746641,0.0
5.456,8141.0,-40.024011053927325,0.0
5.464,8149.0,-43.89364319044762,0.0
5.472,8155.0,-36.667131311247886,0.0
5.48,8165.0,-23.56540100447637,0.0
5.488,8174.0,-8.362550693038656,0.0
5.496,8190.0,7.003771917422,0.0
5.504,8209.0,22.180064135323846,0.0
5.512,8228.0,35.5559701320783,0.0
5.52,8236.0,43.5918763872221,0.0
5.528,8228.0,41.73525510272316,0.0
5.536,8191.0,25.116157947901,0.0
5.544,8152.0,-4.047117360795255,0.0
5.552,8135.0,-32.121485698649394,0.0
5.56,8130.0,-48.3492426078742,0.0
5.568,8135.0,-50.61599542262002,0.0
5.576,8138.0,-42.64816035533886,0.0
5.584,8144.0,-29.631323907391106,0.0
5.592,8139.0,-17.236429010477877,0.0
5.6,8140.0,-8.11006581218021,0.0
5.608,8138.0,-1.6874687826737045,0.0
5.616,8142.0,2.77528634632381,0.0
5.624,8142.0,5.810989501396534,0.0
5.632,8145.0,7.338187217282211,0.0
5.64,8146.0,7.946016927692199,0.0
5.648,8157.0,9.552386351137557,0.0
5.656,8156.0,11.097144300747914,0.0
5.664,8178.0,14.61857085493989,0.0
5.672,8159.0,15.097691295064578,0.0
5.68,8148.0,6.963029398960998,0.0
5.688,8148.0,-1.1507827476941657,0.0
5.696,8150.0,-5.3662039784082936,0.0
5.704,8160.0,-4.594007390139041,0.0
5.712,8486.0,65.20425110959081,0.0
5.72,8163.0,97.20999448502494,0.0
5.728,8146.0,31.937675511111365,0.0
5.736,8144.0,-15.388110566727164,0.0
5.744,8150.0,-40.226279939597134,0.0
5.752,8157.0,-46.160842793981146,0.0
5.76,8163.0,-40.01609414065774,0.0
5.768,8173.0,-27.046374527946682,0.0
5.776,8185.0,-10.780935976711135,0.0
5.784,8202.0,6.397658618531068,0.0
5.792,8222.0,23.146221079473662,0.0
5.8,8241.0,37.50978513347786,1.0
5.808,8250.0,46.037870143713235,0.0
5.816,8244.0,44.71438351176744,0.0
5.824,8208.0,28.571812753570157,0.0
5.832,8172.0,-0.01636038982678656,0.0
5.84,8154.0,-27.95312294036148,0.0
5.848,8150.0,-44.731473009131605,0.0
5.856,8154.0,-47.872342284135584,0.0
5.864,8156.0,-41.246030099409836,0.0
5.872,8159.0,-30.052350866574898,0.0
5.88,8159.0,-18.263233835828714,0.0
5.888,8159.0,-8.522247640310752,0.0
5.896,8157.0,-1.877972777495188,0.0
5.904,8155.0,1.5189599650850596,0.0
5.912,8157.0,3.2976081291537866,0.0
5.92,8158.0,4.462443878399881,0.0
5.928,8160.0,5.087669128759671,0.0
5.936,8170.0,7.13768551059934,0.0
5.944,8167.0,8.698010216385683,0.0
5.952,8187.0,11.77517667261668,0.0
5.96,8179.0,14.261361961880766,0.0
5.968,8161.0,8.257675604411588,0.0
5.976,8160.0,-0.42657136229081516,0.0
5.984,8161.0,-5.497747447998108,0.0
5.992,8149.0,-9.910618286420686,0.0
6.0,8438.0,45.573512217896905,0.0
6.008,8229.0,87.82131909309965,0.0
6.016,8153.0,41.26611893277459,0.0
6.024,8153.0,-8.049843051618836,0.0
6.032,8156.0,-35.381867971245356,0.0
6.04,8166.0,-43.525762919892486,0.0
6.048,8174.0,-38.065614715311995,0.0
6.056,8182.0,-25.796482382666227,0.0
6.064,8195.0,-10.339169220464328,0.0
6.072,8206.0,5.273020175849297,0.0
6.08,8226.0,20.039916701269476,0.0
6.088,8247.0,34.111080845493916,0.0
6.096,8259.0,44.003028839206536,0.0
6.104,8258.0,45.429041081581545,1.0
6.112,8229.0,33.25577879341154,0.0
6.12,8188.0,6.7135052452836135,0.0
6.128,8162.0,-23.6895534394464,0.0
6.136,8155.0,-44.82018350460703,0.0
6.144,8154.0,-52.15594103050148,0.0
6.152,8158.0,-47.973937183271346,0.0
6.16,8160.0,-37.001486920667276,0.0
6.168,8161.0,-24.289633288464984,0.0
6.176,8161.0,-12.884968074313292,0.0
6.184,8158.0,-4.799657093876931,0.0
6.192,8157.0,-0.10753613864653744,0.0
6.2,8158.0,2.6836802067623466,0.0
6.208,8155.0,3.5189217071467738,0.0
6.216,8160.0,3.887973735798141,0.0
6.224,8166.0,5.764076854490213,0.0
6.232,8164.0,6.816902355880984,0.0
6.24,8175.0,8.24472618015011,0.0
6.248,8186.0,12.333759165212996,0.0
6.256,8162.0,10.226152344867614,0.0
6.264,8160.0,2.1174903145263215,0.0
6.272,8165.0,-2.3860930947919314,0.0
6.28,8159.0,-4.8920458453999345,0.0
6.288,8275.0,16.84072039552302,0.0
6.296,8297.0,55.33370428425974,0.0
6.304,8135.0,41.10703339514953,0.0
6.312,8160.0,-1.5281207121283842,0.0
6.32,8159.0,-21.60757964254003,0.0
6.328,8166.0,-28.980769486908684,0.0
6.336,8175.0,-25.678621888705266,0.0
6.344,8178.0,-17.38094517622676,0.0
6.352,8187.0,-7.386946512203622,0.0
6.36,8200.0,4.138054239059784,0.0
6.368,8215.0,16.04696589759351,0.0
6.376,8237.0,28.21609767853556,0.0
6.384,8252.0,38.69413919487488,0.0
6.392,8257.0,43.11036393241011,0.0
6.4,8237.0,36.121559572970455,0.0
6.408,8195.0,13.845286298851534,0.0
6.416,8165.0,-16.137633165759325,0.0
6.424,8152.0,-40.20776208415555,0.0
6.432,8151.0,-51.20703686152274,0.0
6.44,8157.0,-48.9268945009178,0.0
6.448,8164.0,-37.50461663843225,0.0
6.456,8163.0,-23.837552828454363,0.0
6.464,8166.0,-11.732217799482441,0.0
6.472,8168.0,-1.772895799403841,0.0
6.48,8169.0,4.9987252149155665,0.0
6.488,8171.0,8.858487447093012,0.0
6.496,8176.0,11.228198980211346,0.0
6.504,8177.0,12.153119922860014,0.0
6.512,8187.0,13.104869281504989,0.0
6.52,8190.0,14.336790133023896,0.0
6.528,8194.0,14.321825255702379,0.0
6.536,8210.0,16.22763378190416,0.0
6.544,8195.0,15.098725802926992,0.0
6.552,8185.0,7.034425828662052,0.0
6.56,8191.0,0.3815068352171238,0.0
6.568,8193.0,-1.9764528344226164,0.0
6.576,8253.0,9.59535838960619,0.0
6.584,8408.0,58.9088161043519,0.0
6.592,8160.0,60.141465188759184,0.0
6.6,8188.0,6.806114478362133,0.0
6.608,8191.0,-19.434885740472055,0.0
6.616,8200.0,-29.555602039976975,0.0
6.624,8207.0,-27.7911856577025,0.0
6.632,8213.0,-19.878330223952617,0.0
6.64,8225.0,-8.507476232902036,0.0
6.648,8240.0,5.023184142181435,0.0
6.656,8258.0,19.005547576292884,0.0
6.664,8277.0,31.95235941499118,1.0
6.672,8298.0,42.93676072819744,0.0
6.68,8300.0,47.6221167855997,0.0
6.688,8285.0,40.5170429067482,0.0
6.696,8246.0,19.140007469568218,0.0
6.704,8212.0,-11.318147270634654,0.0
6.712,8195.0,-38.03442709031242,0.0
6.72,8191.0,-52.35824015631874,0.0
6.728,8192.0,-53.504094845494365,0.0
6.736,8199.0,-44.43549251255604,0.0
6.744,8200.0,-30.700984290965152,0.0
6.752,8198.0,-18.128087999017907,0.0
6.76,8199.0,-8.148366568915435,0.0
6.768,8195.0,-1.6238896897643826,0.0
6.776,8193.0,1.2550710790123958,0.0
6.784,8190.0,1.7458960201349782,0.0
6.792,8193.0,1.7714706368535644,0.0
6.8,8198.0,3.152426159369952,0.0
6.808,8200.0,4.921281733509886,0.0
6.816,8213.0,8.285767969412973,0.0
6.824,8212.0,11.470909249242823,0.0
6.832,8191.0,7.120853177762683,0.0
6.84,8190.0,-1.0259863385510926,0.0
6.848,8190.0,-5.8927629827901455,0.0
6.856,8183.0,-9.307660013671011,0.0
6.864,8364.0,25.63227006108923,0.0
6.872,8294.0,65.08692391160366,0.0
6.88,8165.0,37.896531201404514,0.0
6.888,8181.0,-7.015376808016072,0.0
6.896,8184.0,-28.630875571388742,0.0
6.904,8188.0,-35.64336145426432,0.0
6.912,8196.0,-31.93496984112312,0.0
6.92,8200.0,-22.44850489173041,0.0
6.928,8205.0,-11.596059429464958,0.0
6.936,8221.0,0.8704757191458157,0.0
6.944,8234.0,14.035913564747261,0.0
6.952,8256.0,26.844450483670244,0.0
6.96,8269.0,37.49999140082787,0.0
6.968,8269.0,40.77213012194693,1.0
6.976,8241.0,30.805308307579708,0.0
6.984,8200.0,6.143741092131677,0.0
6.992,8168.0,-24.28649294297361,0.0
7.0,8151.0,-48.6115045796555,0.0
7.008,8149.0,-59.50891414226203,0.0
7.016,8152.0,-56.72706957204832,0.0
7.024,8154.0,-45.45989383437791,0.0
7.032,8155.0,-31.291345715418856,0.0
7.04,8154.0,-18.167952359164474,0.0
7.048,8153.0,-8.060924789544742,0.0
7.056,8156.0,-0.45291235372769734,0.0
7.064,8153.0,4.115120517004698,0.0
7.072,8150.0,4.966941837005379,0.0
7.08,8157.0,5.5348638488933375,0.0
7.088,8159.0,6.870288719047494,0.0
7.096,8166.0,8.45714734130911,0.0
7.104,8164.0,9.134913675276266,0.0
7.112,8176.0,10.193791073952298,0.0
7.12,8167.0,9.887412845826702,0.0
7.128,8160.0,4.938359584777118,0.0
7.136,8152.0,-1.8017283221406615,0.0
7.144,8162.0,-5.106040269692585,0.0
7.152,8202.0,3.9289722809169234,0.0
7.16,8382.0,53.622766580977896,0.0
7.168,8128.0,59.763489258102936,0.0
7.176,8149.0,6.73216007559904,0.0
7.184,8153.0,-20.54363489827324,0.0
7.192,8163.0,-30.699626001931847,0.0
7.2,8163.0,-30.00842849039418,0.0
7.208,8179.0,-21.781210269988378,0.0
7.216,8188.0,-8.505837799496021,0.0
7.224,8201.0,5.129399137194014,0.0
7.232,8213.0,17.52309893608276,0.0
7.24,8238.0,29.755134431879014,0.0
7.248,8257.0,41.46714673379779,0.0
7.256,8266.0,47.82712567998442,0.0
7.264,8245.0,41.885640072870956,0.0
7.272,8203.0,19.150545918020043,0.0
7.28,8168.0,-12.929563559293683,1.0
7.288,8154.0,-39.952153358275154,0.0
7.296,8147.0,-54.166367703007836,0.0
7.304,8147.0,-55.790475708047325,0.0
7.312,8152.0,-47.27097174456776,0.0
7.32,8154.0,-33.63560809765886,0.0
7.328,8158.0,-19.24631636578215,0.0
7.336,8158.0,-7.001340926135754,0.0
7.344,8156.0,0.8932016377309537,0.0
7.352,8156.0,5.017999535293711,0.0
7.36,8156.0,6.696610252401115,0.0
7.368,8156.0,6.674052705624945,0.0
7.376,8158.0,6.057448691083891,0.0
7.384,8167.0,7.021718440227232,0.0
7.392,8168.0,8.570418826982632,0.0
7.4,8184.0,11.660055040757243,0.0
7.408,8168.0,11.719458830696567,0.0
7.416,8159.0,4.8702612375902845,0.0
7.424,8158.0,-1.96174025999494,0.0
7.432,8157.0,-6.113353352264767,0.0
7.44,8169.0,-5.394444896380719,0.0
7.448,8487.0,63.26784991779368,0.0
7.456,8149.0,90.19644856036825,0.0
7.464,8147.0,22.984850907995224,0.0
7.472,8155.0,-19.022946891435822,0.0
7.48,8160.0,-38.326275254477196,0.0
7.488,8166.0,-41.68420704590699,0.0
7.496,8179.0,-33.46854890323857,0.0
7.504,8187.0,-19.245277852889103,0.0
7.512,8191.0,-5.464237627006469,0.0
7.52,8212.0,8.621810371886568,0.0
7.528,8230.0,23.612839864201305,0.0
7.536,8255.0,37.683460199743195,0.0
7.544,8263.0,47.03347170931397,0.0
7.552,8255.0,45.43222363224572,0.0
7.56,8212.0,27.17784475934809,0.0
7.568,8173.0,-4.490914462971205,0.0
7.576,8155.0,-34.184037802063585,0.0
7.584,8147.0,-51.87361980338778,0.0
7.592,8151.0,-55.287759682109254,0.0
7.6,8151.0,-48.10739612530483,0.0
7.608,8157.0,-35.341486922665126,0.0
7.616,8160.0,-20.594855277681745,0.0
7.624,8159.0,-8.342696834650269,0.0
7.632,8156.0,-0.649142514636651,0.0
7.64,8157.0,3.590628845375477,0.0
7.648,8159.0,6.166543396052475,0.0
7.656,8162.0,7.776518370706754,0.0
7.664,8160.0,7.753943765896793,0.0
7.672,8169.0,7.995109553563225,0.0
7.68,8170.0,8.968589867434503,0.0
7.688,8188.0,12.066276097481023,0.0
7.696,8181.0,14.316161814057068,0.0
7.704,8164.0,8.573021623045861,0.0
7.712,8160.0,-0.41355059755323964,0.0
7.72,8162.0,-6.074097090226132,0.0
7.728,8154.0,-9.726635085501812,0.0
7.736,8446.0,47.609366753969425,0.0
7.744,8198.0,83.28887803115617,0.0
7.752,8151.0,31.493362003189077,0.0
7.76,8159.0,-11.880918344043494,0.0
7.768,8163.0,-33.2794988858891,0.0
7.776,8173.0,-38.02880775569042,0.0
7.784,8177.0,-32.21171352364718,0.0
7.792,8186.0,-21.231906888737058,0.0
7.8,8196.0,-7.637743989911769,0.0
7.808,8210.0,6.463013461083165,0.0
7.816,8232.0,21.17713871919659,0.0
7.824,8255.0,35.86188103904965,1.0
7.832,8269.0,46.66845947662091,0.0
7.84,8267.0,48.43557273396641,0.0
7.848,8227.0,33.55660144609351,0.0
7.856,8185.0,2.916957899673207,0.0
7.864,8163.0,-28.720774784185323,0.0
7.872,8153.0,-49.61449565090402,0.0
7.88,8148.0,-57.51337692660309,0.0
7.888,8152.0,-53.66935631564934,0.0
7.896,8156.0,-41.62469436699075,0.0
7.904,8161.0,-26.351998746740946,0.0
7.912,8162.0,-12.09867273461441,0.0
7.92,8160.0,-2.03927846047236,0.0
7.928,8162.0,4.219009414506218,0.0
7.936,8157.0,6.667596447252663,0.0
7.944,8155.0,5.674694689384069,0.0
7.952,8155.0,3.8185418820683026,0.0
7.96,8158.0,2.754782623403571,0.0
7.968,8165.0,3.751027832838872,0.0
7.976,8168.0,5.814513755680991,0.0
7.984,8190.0,11.260827619281372,0.0
7.992,8173.0,13.795998396974255,0.0
8.0,8163.0,7.687535761649997,0.0
8.008,8165.0,1.2750732740535113,0.0
8.016,8167.0,-1.8933593309589014,0.0
8.024,8176.0,-1.2328004599935412,0.0
8.032,8491.0,65.5382271416438,0.0
8.04,8165.0,92.8428249059009,0.0
8.048,8155.0,26.269573921008032,0.0
8.056,8163.0,-17.493116085964175,0.0
8.064,8167.0,-38.270526039153765,0.0
8.072,8173.0,-42.712980316203584,0.0
8.08,8180.0,-36.208537758514694,0.0
8.088,8188.0,-23.807667077971473,0.0
8.096,8201.0,-8.57397194912437,0.0
8.104,8217.0,7.659849490630222,0.0
8.112,8238.0,23.65831163052644,0.0
8.12,8262.0,38.726433565094794,0.0
8.128,8274.0,49.1211412758546,0.0
8.136,8263.0,48.02551028614653,1.0
8.144,8222.0,29.472678834335284,0.0
8.152,8183.0,-2.3119070353016014,0.0
8.16,8160.0,-33.42539743005432,0.0
8.168,8153.0,-52.88720429866635,0.0
8.176,8153.0,-57.80866614181173,0.0
8.184,8157.0,-51.13753113505595,0.0
8.192,8160.0,-38.00907379950809,0.0
8.2,8165.0,-22.847894953403966,0.0
8.208,8164.0,-9.600384921922114,0.0
8.216,8165.0,-0.3102976571185536,0.0
8.224,8164.0,5.230889423052304,0.0
8.232,8162.0,7.101971274969628,0.0
8.24,8161.0,6.518880851422409,0.0
8.248,8165.0,5.798605326617917,0.0
8.256,8167.0,5.719303503306264,0.0
8.264,8172.0,6.235396387098945,0.0
8.272,8173.0,6.821058121934129,0.0
8.28,8192.0,10.21928106894552,0.0
8.288,8180.0,12.109726654548695,0.0
8.296,8163.0,5.467031654929087,0.0
8.304,8164.0,-2.559126934341748,0.0
8.312,8166.0,-6.30488756937757,0.0
8.32,8158.0,-8.790033804395307,0.0
8.328,8475.0,54.20188239567369,0.0
8.336,8201.0,92.02248809121852,0.0
8.344,8153.0,34.65297114432519,0.0
8.352,8158.0,-13.314001494414242,0.0
8.36,8163.0,-37.620022013589505,0.0
8.368,8171.0,-43.63501237767446,0.0
8.376,8181.0,-36.89927000417447,0.0
8.384,8189.0,-23.643983359499998,0.0
8.392,8199.0,-8.542706894713547,0.0
8.4,8212.0,6.382257268334342,0.0
8.408,8235.0,21.59606060919259,0.0
8.416,8262.0,37.534302341656485,0.0
8.424,8274.0,49.23724110407352,0.0
8.432,8270.0,50.32779946732785,0.0
8.44,8232.0,34.76183082283546,0.0
8.448,8192.0,4.350374470090401,0.0
8.456,8169.0,-27.165430730685102,0.0
8.464,8159.0,-48.42715322618892,0.0
8.472,8157.0,-56.11078271191286,0.0
8.48,8161.0,-51.739209912759634,0.0
8.488,8164.0,-39.879488271130185,0.0
8.496,8166.0,-25.797963184389346,0.0
8.504,8167.0,-12.945994265712216,0.0
8.512,8168.0,-2.9739938480070123,0.0
8.52,8167.0,3.3743233299894655,0.0
8.528,8168.0,6.617120397660528,0.0
8.536,8169.0,7.940273328724743,0.0
8.544,8169.0,7.7232454556778976,0.0
8.552,8170.0,6.628261181458811,0.0
8.56,8175.0,6.201571601074875,0.0
8.568,8177.0,6.439102401978971,0.0
8.576,8183.0,7.237740392538171,0.0
8.584,8194.0,10.085840722650346,0.0
8.592,8172.0,7.993760993704427,0.0
8.6,8168.0,0.23273853842351855,0.0
8.608,8169.0,-5.005305729252541,0.0
8.616,8172.0,-6.527009747972215,0.0
8.624,8254.0,10.928198788730242,0.0
8.632,8406.0,67.40072929987286,0.0
8.64,8154.0,70.149662189016,0.0
8.648,8165.0,11.903361113976871,0.0
8.656,8163.0,-22.509387944083755,1.0
8.664,8171.0,-38.22253715709121,0.0
8.672,8176.0,-39.064369189395165,0.0
8.68,8186.0,-30.57509543665401,0.0
8.688,8195.0,-17.03729191252205,0.0
8.696,8208.0,-1.9533845390396891,0.0
8.704,8226.0,13.596695120446384,0.0
8.712,8242.0,27.67779515293705,0.0
8.72,8264.0,39.57248538219005,0.0
8.728,8267.0,45.714850305024356,0.0
8.736,8247.0,38.94340988078466,0.0
8.744,8201.0,15.550656168100204,0.0
8.752,8170.0,-16.372606310213087,0.0
8.76,8150.0,-43.18903278026664,0.0
8.768,8147.0,-57.199174993963425,0.0
8.776,8149.0,-57.01698074837532,0.0
8.784,8151.0,-47.4475807949143,0.0
8.792,8149.0,-34.59464014385867,0.0
8.8,8150.0,-21.95277727381699,0.0
8.808,8151.0,-10.739498611554836,0.0
8.816,8152.0,-2.0711476954274985,0.0
8.824,8149.0,2.9607095344822483,0.0
8.832,8151.0,5.2833622683490375,0.0
8.84,8151.0,6.264556832732069,0.0
8.848,8154.0,6.507955394048167,0.0
8.856,8157.0,6.891022993538627,0.0
8.864,8162.0,7.707214710937251,0.0
8.872,8165.0,8.655811019364364,0.0
8.88,8177.0,10.968998557657642,0.0
8.888,8183.0,14.351399038079535,0.0
8.896,8163.0,11.315692075261722,0.0
8.904,8158.0,2.6972668915495888,0.0
8.912,8159.0,-3.6257963488312726,0.0
8.92,8155.0,-7.428434474419873,0.0
8.928,8302.0,20.66394782971588,0.0
8.936,8287.0,61.112546821587785,0.0
8.944,8130.0,40.62865636377069,0.0
8.952,8148.0,-6.043081124918672,0.0
8.96,8152.0,-28.233849170196436,0.0
8.968,8153.0,-36.05534389531272,0.0
8.976,8161.0,-33.375839849755266,0.0
8.984,8168.0,-23.66650193812893,0.0
8.992,8177.0,-11.06748127449714,0.0
9.0,8191.0,2.7604385300469403,0.0
9.008,8206.0,16.444456346532206,0.0
9.016,8228.0,29.603118739019237,1.0
9.024,8243.0,40.45607826325204,0.0
9.032,8247.0,44.62259730850087,0.0
9.04,8228.0,37.25684498488863,0.0
9.048,8183.0,14.176920988837765,0.0
9.056,8153.0,-16.94445839416835,0.0
9.064,8137.0,-42.17844887637307,0.0
9.072,8137.0,-53.97585173378798,0.0
9.08,8139.0,-52.360838460565446,0.0
9.088,8144.0,-42.0370953528834,0.0
9.096,8148.0,-27.719623440854548,0.0
9.104,8149.0,-14.028167932940505,0.0
9.112,8152.0,-2.987024580379739,0.0
9.12,8152.0,4.608460052437067,0.0
9.128,8153.0,8.606021026886765,0.0
9.136,8156.0,10.482600925392717,0.0
9.144,8159.0,11.22892609806513,0.0
9.152,8161.0,10.989367959512265,0.0
9.16,8163.0,9.998779073150672,0.0
9.168,8174.0,10.552924226947653,0.0
9.176,8173.0,11.323705126391587,0.0
9.184,8187.0,12.718647039319876,0.0
9.192,8193.0,15.701332857574926,0.0
9.2,8172.0,12.020268577279694,0.0
9.208,8169.0,3.117658850093221,0.0
9.216,8170.0,-3.028605395191107,0.0
9.224,8166.0,-6.817226084049025,0.0
9.232,8328.0,24.255292067202845,0.0
9.24,8310.0,68.3734582008749,0.0
9.248,8152.0,48.141700534803476,0.0
9.256,8168.0,-0.13289468574907914,0.0
9.264,8176.0,-23.759042527475913,0.0
9.272,8180.0,-31.67774623303353,0.0
9.28,8185.0,-29.719426894702792,0.0
9.288,8196.0,-20.786650968038202,0.0
9.296,8206.0,-8.062003059877043,0.0
9.304,8218.0,5.180245693258257,0.0
9.312,8238.0,18.763929760310248,0.0
9.32,8261.0,32.73740033722629,1.0
9.328,8276.0,43.801342817044315,0.0
9.336,8278.0,47.17685359370785,0.0
9.344,8256.0,37.93454076067974,0.0
9.352,8214.0,13.642075294286087,0.0
9.36,8180.0,-18.319611019254125,0.0
9.368,8171.0,-43.229165792407,0.0
9.376,8171.0,-53.24529104967337,0.0
9.384,8175.0,-50.278993114602144,0.0
9.392,8181.0,-38.858832340181834,0.0
9.4,8184.0,-24.374803014862664,0.0
9.408,8182.0,-11.909163281590963,0.0
9.416,8181.0,-3.344337244131566,0.0
9.424,8181.0,2.0236269311458273,0.0
9.432,8180.0,4.687125541890737,0.0
9.44,8180.0,5.347389848434432,0.0
9.448,8179.0,4.722840827723303,0.0
9.456,8181.0,3.8417459754048195,0.0
9.464,8187.0,4.372620490907366,0.0
9.472,8192.0,6.2709469929538955,0.0
9.48,8193.0,7.668669519405057,0.0
9.488,8207.0,10.397131865699066,0.0
9.496,8191.0,10.025810437458631,0.0
9.504,8181.0,2.9743589234601586,0.0
9.512,8179.0,-4.0984156890535814,0.0
9.52,8181.0,-7.6598747407192604,0.0
9.528,8224.0,0.5887487648703882,0.0
9.536,8469.0,64.2163472438333,0.0
9.544,8169.0,80.87310253326837,0.0
9.552,8170.0,17.376616757887632,0.0
9.56,8171.0,-22.40099880563571,0.0
9.568,8177.0,-41.099053473908725,0.0
9.576,8180.0,-44.087243142231955,0.0
9.584,8187.0,-37.127298899845755,0.0
9.592,8195.0,-24.317750240315945,0.0
9.6,8208.0,-8.765029000279355,0.0
9.608,8222.0,7.27782881117696,0.0
9.616,8244.0,23.016973395995365,0.0
9.624,8264.0,37.41606732947412,0.0
9.632,8267.0,44.95786925563743,0.0
9.64,8251.0,39.94602412734662,1.0
9.648,8211.0,19.484892260711376,0.0
9.656,8174.0,-11.301090520206799,0.0
9.664,8154.0,-39.439638253201565,0.0
9.672,8150.0,-55.00443409262857,0.0
9.68,8151.0,-56.483009713100046,0.0
9.688,8152.0,-48.38534428074081,0.0
9.696,8158.0,-34.83050321574456,0.0
9.704,8156.0,-20.716273850849348,0.0
9.712,8152.0,-10.45411517923253,0.0
9.72,8153.0,-3.4130266759127608,0.0
9.728,8152.0,1.2685165866412262,0.0
9.736,8152.0,3.6405506423859606,0.0
9.744,8155.0,5.104319696794391,0.0
9.752,8154.0,5.604716836273383,0.0
9.76,8155.0,5.050909652109567,0.0
9.768,8161.0,5.387717244973828,0.0
9.776,8163.0,6.404469766427383,0.0
9.784,8186.0,11.142302927333503,0.0
9.792,8170.0,13.685050776357457,0.0
9.8,8156.0,6.984987704478726,0.0
9.808,8153.0,-1.509539146712541,0.0
9.816,8157.0,-6.10002354568087,0.0
9.824,8149.0,-8.707196177574815,0.0
9.832,8470.0,55.01719794775795,0.0
9.84,8205.0,95.8032891353937,0.0
9.848,8147.0,39.41004053044594,0.0
9.856,8149.0,-11.3567072051178,0.0
9.864,8157.0,-37.61525901796995,0.0
9.872,8162.0,-44.785695296547146,0.0
9.88,8171.0,-39.37602791665563,0.0
9.888,8177.0,-27.14237657605986,0.0
9.896,8187.0,-12.52349748962115,0.0
9.904,8204.0,3.536915797691563,0.0
9.912,8224.0,20.05791005489573,0.0
9.92,8245.0,35.1637167010972,0.0
9.928,8255.0,45.0993568956992,0.0
9.936,8251.0,45.36348823830622,0.0
9.944,8219.0,31.287225140480587,0.0
9.952,8180.0,3.713675196062468,0.0
9.96,8153.0,-26.640168181098716,0.0
9.968,8147.0,-47.294344372166734,0.0
9.976,8148.0,-53.36031339829378,0.0
9.984,8153.0,-47.63185918604199,0.0
9.992,8157.0,-35.183801316230074,0.0
10.0,8157.0,-21.670557546145574,0.0
10.008,8158.0,-10.189034322344924,0.0
10.016,8158.0,-1.6498017226861066,0.0
10.024,8161.0,4.2633182464169295,0.0
10.032,8158.0,7.113958279657709,0.0
10.04,8158.0,7.108359578246109,0.0
10.048,8160.0,6.435938948676949,0.0
10.056,8161.0,5.675408658759352,0.0
10.064,8167.0,5.795279127019967,0.0
10.072,8170.0,6.8262450229626666,0.0
10.08,8173.0,7.626822181101261,0.0
10.088,8192.0,11.438584061562096,0.0
10.096,8172.0,11.754328570555117,0.0
10.104,8166.0,4.847142967646732,0.0
10.112,8165.0,-1.4027450678363493,0.0
10.12,8165.0,-5.090546663206396,0.0
10.128,8204.0,1.468012660980321,0.0
10.136,8450.0,63.349900711384635,0.0
10.144,8162.0,81.76151996864951,0.0
10.152,8159.0,20.80256987556163,0.0
10.16,8157.0,-19.42387196971913,0.0
10.168,8162.0,-39.65593262704715,0.0
10.176,8169.0,-43.15722258965434,0.0
10.184,8179.0,-35.211621338550685,0.0
10.192,8191.0,-20.679490308856657,0.0
10.2,8200.0,-4.659639844662934,0.0
10.208,8214.0,10.219848668812347,0.0
10.216,8237.0,25.029234456570066,0.0
10.224,8255.0,38.36908721751729,1.0
10.232,8262.0,45.548568245140586,0.0
10.24,8255.0,42.88880091157125,0.0
10.248,8213.0,24.802630049727895,0.0
10.256,8179.0,-5.180735700601645,0.0
10.264,8161.0,-32.75103095548798,0.0
10.272,8156.0,-48.78953420700418,0.0
10.28,8158.0,-51.490511790087794,0.0
10.288,8160.0,-44.46409282850209,0.0
10.296,8165.0,-32.13729316480453,0.0
10.304,8166.0,-18.749046244439114,0.0
10.312,8166.0,-7.784381548808142,0.0
10.32,8167.0,0.08460802566469283,0.0
10.328,8167.0,4.9297887361285575,0.0
10.336,8170.0,7.660708932409989,0.0
10.344,8173.0,9.34012168297977,0.0
10.352,8173.0,9.530153394882973,0.0
10.36,8175.0,8.606255741054383,0.0
10.368,8180.0,8.185160007778677,0.0
10.376,8185.0,8.738166057855324,0.0
10.384,8208.0,13.460826889523332,0.0
10.392,8189.0,15.030183775847945,0.0
10.4,8178.0,7.550520853399121,0.0
10.408,8178.0,-0.26499661899993043,0.0
10.416,8179.0,-4.642603327889901,0.0
10.424,8187.0,-4.688931836554275,0.0
10.432,8512.0,64.02674146388381,0.0
10.44,8188.0,95.16216844959808,0.0
10.448,8171.0,29.481319571736094,0.0
10.456,8176.0,-16.283552093755134,0.0
10.464,8177.0,-39.654238103070384,0.0
10.472,8188.0,-45.011962834339556,0.0
10.48,8195.0,-37.678752707134436,0.0
10.488,8205.0,-24.156246663833826,0.0
10.496,8213.0,-8.81927192381545,0.0
10.504,8231.0,6.89991680637263,0.0
10.512,8247.0,22.096338302131926,0.0
10.52,8270.0,35.70114336949382,0.0
10.528,8279.0,44.871914302792675,0.0
10.536,8269.0,43.28808043682375,1.0
10.544,8235.0,26.799183486522907,0.0
10.552,8198.0,-1.5207540515662004,0.0
10.56,8175.0,-30.296603616948687,0.0
10.568,8169.0,-48.64599480130323,0.0
10.576,8173.0,-52.53108914200402,0.0
10.584,8178.0,-45.02568694826027,0.0
10.592,8182.0,-31.921871444799763,0.0
10.6,8181.0,-18.719661586164875,0.0
10.608,8180.0,-8.482376436076493,0.0
10.616,8177.0,-1.9592377835078878,0.0
10.624,8178.0,1.7869775867588942,0.0
10.632,8179.0,4.140157934629997,0.0
10.64,8178.0,4.9041281017789515,0.0
10.648,8181.0,5.02101674178175,0.0
10.656,8188.0,6.371907330295016,0.0
10.664,8190.0,8.043472854063339,0.0
10.672,8211.0,12.511467482400576,0.0
10.68,8192.0,13.665547639174292,0.0
10.688,8180.0,5.94288486495816,0.0
10.696,8179.0,-2.181207376233033,0.0
10.704,8182.0,-6.246483701633224,0.0
10.712,8184.0,-6.68213663759434,0.0
10.72,8517.0,62.514085861555714,0.0
10.728,8200.0,97.2275576595598,0.0
10.736,8167.0,31.51091378322326,0.0
10.744,8170.0,-18.26025226147908,0.0
10.752,8175.0,-43.29196143592844,0.0
10.76,8181.0,-49.28479155796799,0.0
10.768,8190.0,-42.2922729160141,0.0
10.776,8199.0,-28.067486311904304,0.0
10.784,8211.0,-11.109291436247531,0.0
10.792,8228.0,6.528780670579181,0.0
10.8,8250.0,23.937799372192558,0.0
10.808,8268.0,38.77624436985275,0.0
10.816,8272.0,46.16735807262535,0.0
10.824,8265.0,42.92603163962576,0.0
10.832,8226.0,25.103185540213644,0.0
10.84,8186.0,-5.382920612588123,0.0
10.848,8163.0,-35.46719116084023,0.0
10.856,8153.0,-54.623661552062686,0.0
10.864,8161.0,-58.07977636851706,0.0
10.872,8163.0,-49.27512908973608,0.0
10.88,8164.0,-35.98448154390394,0.0
10.888,8164.0,-22.464441528093857,0.0
10.896,8163.0,-11.267138482125347,0.0
10.904,8163.0,-3.141141559676498,0.0
10.912,8165.0,2.549395409160752,0.0
10.92,8163.0,5.528251155363023,0.0
10.928,8164.0,6.247492580713242,0.0
10.936,8163.0,5.72565715658402,0.0
10.944,8171.0,5.979073109582487,0.0
10.952,8175.0,7.674054720773029,0.0
10.96,8177.0,8.738791720926201,0.0
10.968,8194.0,11.925287116220716,0.0
10.976,8173.0,11.184557655928074,0.0
10.984,8167.0,3.5346582609199686,0.0
10.992,8168.0,-2.546879664756034,0.0
11.0,8171.0,-4.940150851573435,0.0
11.008,8217.0,4.404198084834206,0.0
11.016,8427.0,61.563713247105625,0.0
11.024,8159.0,74.1845228776292,0.0
11.032,8163.0,16.465781967996463,0.0
11.04,8166.0,-18.73528738045502,0.0
11.048,8169.0,-35.486846106510484,0.0
11.056,8175.0,-38.174758164030436,0.0
11.064,8186.0,-30.50352697809717,0.0
11.072,8194.0,-17.460363102423344,0.0
11.08,8204.0,-3.4220455126790057,0.0
11.088,8223.0,11.32373876276597,0.0
11.096,8245.0,26.703892613799553,0.0
11.104,8265.0,40.331699547283506,0.0
11.112,8269.0,47.17962017869149,0.0
11.12,8253.0,41.6248719566056,1.0
11.128,8212.0,20.383834123880888,0.0
11.136,8178.0,-10.59107230811992,0.0
11.144,8164.0,-37.110288899835496,0.0
11.152,8162.0,-50.43616523391779,0.0
11.16,8165.0,-50.46604773322497,0.0
11.168,8166.0,-42.01526838591576,0.0
11.176,8171.0,-29.421675852729322,0.0
11.184,8170.0,-16.69596935600657,0.0
11.192,8169.0,-7.047303137275549,0.0
11.2,8169.0,-0.4769443283587407,0.0
11.208,8169.0,3.481065429115688,0.0
11.216,8167.0,4.885453618196607,0.0
11.224,8169.0,4.975314044110746,0.0
11.232,8176.0,6.1128484354878765,0.0
11.24,8179.0,7.901812666556225,0.0
11.248,8180.0,8.578998391649975,0.0
11.256,8199.0,11.764823980926167,0.0
11.264,8182.0,12.27383144959299,0.0
11.272,8171.0,4.993576825422224,0.0
11.28,8169.0,-2.724949661262144,0.0
11.288,8172.0,-6.672238143906043,0.0
11.296,8194.0,-2.887547379341413,0.0
11.304,8494.0,65.57336418985687,0.0
11.312,8182.0,93.66772853103748,0.0
11.32,8166.0,29.070885665832066,0.0
11.328,8166.0,-16.80788330338828,0.0
11.336,8172.0,-40.166433190048565,0.0
11.344,8177.0,-45.64362664182113,0.0
11.352,8185.0,-39.30680655142646,0.0
11.36,8194.0,-26.126731753763806,0.0
11.368,8204.0,-10.489220665384437,0.0
11.376,8220.0,5.660888706174774,0.0
11.384,8243.0,22.32151136514949,0.0
11.392,8262.0,37.37100616527755,0.0
11.4,8266.0,45.30428589609619,0.0
11.408,8258.0,42.31014666317765,0.0
11.416,8216.0,23.90965880119029,0.0
11.424,8180.0,-6.5328101720022005,1.0
11.432,8158.0,-35.39543281277611,0.0
11.44,8162.0,-50.775789693585466,0.0
11.448,8160.0,-51.764896700075724,0.0
11.456,8164.0,-44.093081959235406,0.0
11.464,8165.0,-31.849447571284372,0.0
11.472,8168.0,-18.962626896044412,0.0
11.48,8167.0,-8.057822683051882,0.0
11.488,8161.0,-1.8171841902214965,0.0
11.496,8160.0,0.7189199283366179,0.0
11.504,8168.0,3.53987674624409,0.0
11.512,8168.0,6.305905454559252,0.0
11.52,8163.0,5.964176452589982,0.0
11.528,8166.0,4.449237287397409,0.0
11.536,8172.0,4.717455292117393,0.0
11.544,8193.0,9.676979329395408,0.0
11.552,8184.0,13.594499272080611,0.0
11.56,8162.0,7.516902002513461,0.0
11.568,8159.0,-2.3245506798077713,0.0
11.576,8160.0,-8.200941899281588,0.0
11.584,8153.0,-11.658675332939765,0.0
11.592,8405.0,38.11772156170127,0.0
11.6,8188.0,68.926832964097,0.0
11.608,8142.0,22.966052411292367,0.0
11.616,8158.0,-13.826026790383594,0.0
11.624,8166.0,-28.58539313506617,0.0
11.632,8174.0,-29.71136186404692,0.0
11.64,8184.0,-22.195249920873948,0.0
11.648,8195.0,-10.094854529428403,0.0
11.656,8209.0,3.6993190648543077,0.0
11.664,8223.0,17.016733232798288,0.0
11.672,8247.0,30.07612372540939,0.0
11.68,8267.0,42.22876664277942,0.0
11.688,8280.0,49.7553673620605,0.0
11.696,8278.0,48.91039470821829,0.0
11.704,8246.0,34.04905809731281,0.0
11.712,8205.0,5.183888847457638,0.0
11.72,8176.0,-26.973921097952825,0.0
11.728,8167.0,-49.66586338332627,0.0
11.736,8167.0,-57.394616941114236,0.0
11.744,8175.0,-51.62928107513858,0.0
11.752,8180.0,-37.736151817072596,0.0
11.76,8183.0,-22.16412545059393,0.0
11.768,8185.0,-8.573007576065493,0.0
11.776,8179.0,-0.05267702880905745,0.0
11.784,8183.0,4.585617220955783,0.0
11.792,8181.0,7.042064745271773,0.0
11.8,8180.0,6.814241152354043,0.0
11.808,8183.0,6.0549889132921635,0.0
11.816,8189.0,6.526668020370153,0.0
11.824,8193.0,7.85910660045738,0.0
11.832,8206.0,10.928689267792834,0.0
11.84,8189.0,10.269913810064281,0.0
11.848,8180.0,3.011453504369456,0.0
11.856,8184.0,-2.7592639724878154,0.0
11.864,8184.0,-4.936516490368376,0.0
11.872,8238.0,5.556538640164945,0.0
11.88,8439.0,63.016387497776805,0.0
11.888,8163.0,72.12145740448818,0.0
11.896,8172.0,12.023396422405995,0.0
11.904,8173.0,-23.29837833715851,0.0
11.912,8178.0,-39.42950359499923,0.0
11.92,8183.0,-40.94843808566134,0.0
11.928,8191.0,-32.98255617589393,0.0
11.936,8197.0,-20.4107903818699,0.0
11.944,8208.0,-6.4082380639167695,0.0
11.952,8227.0,8.973437551261213,0.0
11.96,8246.0,24.47308742475957,1.0
11.968,8261.0,36.87537391243063,0.0
11.976,8263.0,42.092437765362774,0.0
11.984,8241.0,34.71007383899109,0.0
11.992,8202.0,12.619348807814958,0.0
12.0,8165.0,-17.88517443505566,0.0
12.008,8146.0,-44.654741800422244,0.0
12.016,8144.0,-58.00635118034779,0.0
12.024,8148.0,-56.69942179228701,0.0
12.032,8149.0,-46.30870019154736,0.0
12.04,8152.0,-32.325495717336935,0.0
12.048,8149.0,-19.154924940178034,0.0
12.056,8148.0,-9.278961677227699,0.0
12.064,8150.0,-1.8272323465057525,0.0
12.072,8149.0,3.061038910474508,0.0
12.08,8146.0,4.6706615461303045,0.0
12.088,8149.0,4.914462298816716,0.0
12.096,8154.0,5.94796176420914,0.0
12.104,8156.0,7.087496204262379,0.0
12.112,8166.0,9.138476803447247,0.0
12.12,8175.0,12.8476380611055,0.0
12.128,8152.0,10.233164796957226,0.0
12.136,8151.0,2.232281265463598,0.0
12.144,8148.0,-3.6550715505154585,0.0
12.152,8146.0,-7.604194431901533,0.0
12.16,8293.0,20.836805961882874,0.0
12.168,8321.0,70.25030522898942,0.0
12.176,8134.0,56.33876069847338,0.0
12.184,8146.0,3.817230830291237,0.0
12.192,8149.0,-24.758140232674805,0.0
12.2,8156.0,-35.86093303565167,0.0
12.208,8160.0,-34.742856596238425,0.0
12.216,8171.0,-25.749688522404767,0.0
12.224,8178.0,-12.849772196554568,0.0
12.232,8195.0,1.6306139718735722,0.0
12.24,8208.0,16.076094883475434,0.0
12.248,8229.0,29.128030767908967,0.0
12.256,8247.0,40.39850300393687,0.0
12.264,8249.0,45.024968291829964,1.0
12.272,8224.0,36.23581663300047,0.0
12.28,8184.0,12.26459574224441,0.0
12.288,8152.0,-18.481061602535874,0.0
12.296,8141.0,-42.6469810342071,0.0
12.304,8144.0,-52.10728683332309,0.0
12.312,8145.0,-48.98481305862538,0.0
12.32,8150.0,-38.48570641962647,0.0
12.328,8153.0,-24.80725810958279,0.0
12.336,8152.0,-12.548171539532404,0.0
12.344,8155.0,-2.987115386357118,0.0
12.352,8151.0,2.915858586872673,0.0
12.36,8151.0,5.147585786769014,0.0
12.368,8152.0,5.891291633202854,0.0
12.376,8153.0,5.846530344021403,0.0
12.384,8162.0,6.976663824885463,0.0
12.392,8163.0,8.630286560624427,0.0
12.4,8177.0,11.364295374945186,0.0
12.408,8178.0,14.322734727967145,0.0
12.416,8159.0,10.22344040389794,0.0
12.424,8155.0,1.5502113025133895,0.0
12.432,8155.0,-4.63135571789303,0.0
12.44,8145.0,-9.62796431291963,0.0
12.448,8347.0,28.102520900289164,0.0
12.456,8269.0,71.48889599031577,0.0
12.464,8140.0,44.01869561229387,0.0
12.472,8148.0,-3.621289172474917,0.0
12.48,8149.0,-29.40776003384849,0.0
12.488,8156.0,-38.564866260471945,0.0
12.496,8162.0,-35.47756414617993,0.0
12.504,8174.0,-24.595506445117735,0.0
12.512,8186.0,-9.527686588219922,0.0
12.52,8192.0,4.505321818293623,0.0
12.528,8212.0,17.4331813207948,0.0
12.536,8235.0,31.220555502310617,0.0
12.544,8251.0,42.60871328599683,0.0
12.552,8247.0,45.33527705144138,0.0
12.56,8219.0,33.5367728750341,0.0
12.568,8177.0,7.173528636896435,0.0
12.576,8151.0,-23.397698209395003,0.0
12.584,8138.0,-45.89783629164299,0.0
12.592,8136.0,-55.310239488614116,0.0
12.6,8133.0,-53.51253818417899,0.0
12.608,8135.0,-44.54054899826451,0.0
12.616,8138.0,-31.460152302183133,0.0
12.624,8134.0,-19.158997656734527,0.0
12.632,8138.0,-8.97938489165449,0.0
12.64,8133.0,-1.8020987713091472,0.0
12.648,8132.0,1.4899509067363397,0.0
12.656,8132.0,3.006668690702554,0.0
12.664,8131.0,3.243505800738376,0.0
12.672,8139.0,4.321922883244042,0.0
12.68,8139.0,5.938849039565639,0.0
12.688,8149.0,8.037705132315523,0.0
12.696,8157.0,11.737769031911512,0.0
12.704,8136.0,9.49048567463683,0.0
12.712,8137.0,2.6365598670556665,0.0
12.72,8135.0,-2.0208749768685266,0.0
12.728,8132.0,-5.490389886982712,0.0
12.736,8260.0,18.827755665082577,0.0
12.744,8299.0,64.47319452009879,0.0
12.752,8119.0,52.8865182847353,0.0
12.76,8131.0,3.693418161998352,0.0
12.768,8132.0,-23.303355223430344,0.0
12.776,8135.0,-34.918935487105955,0.0
12.784,8146.0,-33.634036180868634,0.0
12.792,8155.0,-23.688815480019002,0.0
12.8,8165.0,-10.334008654488343,0.0
12.808,8179.0,4.033979557796556,0.0
12.816,8195.0,18.04860991255032,0.0
12.824,8219.0,31.77248987283224,0.0
12.832,8235.0,43.24371833774444,0.0
12.84,8243.0,48.37474559760949,0.0
12.848,8212.0,39.37612527862461,1.0
12.856,8177.0,14.600616286061268,0.0
12.864,8140.0,-16.974864003773746,0.0
12.872,8133.0,-42.06419751573776,0.0
12.88,8131.0,-52.363266564167134,0.0
12.888,8131.0,-50.92383138948367,0.0
12.896,8133.0,-41.943296234969694,0.0
12.904,8134.0,-29.660221291263724,0.0
12.912,8138.0,-16.877687256593845,0.0
12.92,8135.0,-6.554960274075029,0.0
12.928,8135.0,-0.06920967872838446,0.0
12.936,8136.0,3.9812463594578276,0.0
12.944,8141.0,6.998880388035332,0.0
12.952,8143.0,9.15249706985037,0.0
12.96,8147.0,10.2643207837923,0.0
12.968,8154.0,11.612968377122343,0.0
12.976,8157.0,12.69290150412121,0.0
12.984,8174.0,15.493194972724268,0.0
12.992,8158.0,15.004633506434402,0.0
13.0,8150.0,7.537599731160981,0.0
13.008,8148.0,-0.06418906547332881,0.0
13.016,8153.0,-3.9372401346095103,0.0
13.024,8166.0,-1.9534092368676284,0.0
13.032,8472.0,64.68794793461689,0.0
13.04,8152.0,91.43186871138778,0.0
13.048,8145.0,26.57965931240051,0.0
13.056,8151.0,-16.007921319096113,0.0
13.064,8158.0,-36.11124575772692,0.0
13.072,8161.0,-40.48241935043279,0.0
13.08,8169.0,-34.68260253291146,0.0
13.088,8178.0,-22.521194496391445,0.0
13.096,8188.0,-8.032763257252554,0.0
13.104,8210.0,8.291159193842077,0.0
13.112,8234.0,26.085900339353202,0.0
13.12,8257.0,42.2568892628633,0.0
13.128,8266.0,51.95136864007873,0.0
13.136,8255.0,49.399625420482835,0.0
13.144,8214.0,29.77731952276872,0.0
13.152,8179.0,-1.8687355980221128,1.0
13.16,8159.0,-31.537383387041018,0.0
13.168,8154.0,-49.40945381313031,0.0
13.176,8159.0,-52.487910398043596,0.0
13.184,8165.0,-44.103408723993425,0.0
13.192,8164.0,-31.436726799248845,0.0
13.2,8168.0,-18.56659067306464,0.0
13.208,8165.0,-7.9359982651840255,0.0
13.216,8165.0,-1.0587949043297158,0.0
13.224,8166.0,3.373198454771,0.0
13.232,8169.0,6.3000586167611345,0.0
13.24,8170.0,7.893038939673943,0.0
13.248,8173.0,8.455650305139216,0.0
13.256,8179.0,9.345108765566238,0.0
13.264,8186.0,11.110214955015863,0.0
13.272,8197.0,14.14707095661538,0.0
13.28,8206.0,17.884216133826385,0.0
13.288,8181.0,14.114086180034292,0.0
13.296,8181.0,4.637054873180205,0.0
13.304,8182.0,-1.4663772456754032,0.0
13.312,8176.0,-5.875120961359471,0.0
13.32,8349.0,26.52653061615365,0.0
13.328,8262.0,59.23694968496943,0.0
13.336,8159.0,30.783660204888974,0.0
13.344,8181.0,-7.259101294973789,0.0
13.352,8184.0,-23.54944168225302,0.0
13.36,8194.0,-26.957238090919418,0.0
13.368,8205.0,-20.595250475017792,0.0
13.376,8213.0,-9.828582758171478,0.0
13.384,8223.0,1.7063507745815514,0.0
13.392,8242.0,14.194112435771785,0.0
13.4,8259.0,26.782188784608252,0.0
13.408,8283.0,38.54259423835174,0.0
13.416,8300.0,48.03050020883302,0.0
13.424,8306.0,51.058560358595514,0.0
13.432,8278.0,40.61365158585136,0.0
13.44,8232.0,13.16077979640204,0.0
13.448,8201.0,-20.801296352208965,0.0
13.456,8190.0,-46.313324762699494,0.0
13.464,8186.0,-57.4439619779705,0.0
13.472,8194.0,-54.500216505853814,0.0
13.48,8197.0,-42.24910510533891,0.0
13.488,8197.0,-27.985452527267398,0.0
13.496,8198.0,-15.102726154723769,0.0
13.504,8197.0,-5.194151466810808,0.0
13.512,8196.0,1.0446562911283763,0.0
13.52,8198.0,4.78019551386592,0.0
13.528,8196.0,6.264653188975444,0.0
13.536,8196.0,5.784161994050464,0.0
13.544,8197.0,4.827353886318406,0.0
13.552,8204.0,5.164021914500154,0.0
13.56,8209.0,7.031810047313002,0.0
13.568,8213.0,8.909018885579371,0.0
13.576,8230.0,12.958801987659854,0.0
13.584,8210.0,12.776227224670265,0.0
13.592,8204.0,5.419404527925053,0.0
13.6,8210.0,0.24694601930900717,0.0
13.608,8213.0,-1.010769928013815,0.0
13.616,8253.0,7.183599030803407,0.0
13.624,8490.0,67.53194525050117,0.0
13.632,8204.0,82.97247731240668,0.0
13.64,8211.0,22.52444561490779,0.0
13.648,8211.0,-15.20928672811533,0.0
13.656,8220.0,-33.380339018854556,0.0
13.664,8231.0,-34.97979950163335,0.0
13.672,8241.0,-26.332049996443175,0.0
13.68,8254.0,-12.52661664777861,0.0
13.688,8265.0,2.440296599554358,0.0
13.696,8285.0,17.255052204409367,0.0
13.704,8313.0,33.20684422820682,0.0
13.712,8337.0,48.2298010555121,0.0
13.72,8344.0,56.13547139051616,0.0
13.728,8328.0,50.46136431838045,1.0
13.736,8288.0,28.014322139477372,0.0
13.744,8251.0,-5.239286972650007,0.0
13.752,8239.0,-34.121819223527154,0.0
13.76,8235.0,-49.29844381952057,0.0
13.768,8239.0,-50.799648609563064,0.0
13.776,8241.0,-42.75982736027004,0.0
13.784,8247.0,-29.88778919125093,0.0
13.792,8248.0,-16.313839647766144,0.0
13.8,8248.0,-5.60855679091992,0.0
13.808,8248.0,1.5728532518298834,0.0
13.816,8245.0,4.9685617208283475,0.0
13.824,8245.0,5.610583035170066,0.0
13.832,8246.0,5.34394359384396,0.0
13.84,8245.0,4.376048541910677,0.0
13.848,8248.0,3.5487780409503102,0.0
13.856,8248.0,3.134397464511494,0.0
13.864,8255.0,3.844227592463085,0.0
13.872,8268.0,7.767206167662607,0.0
13.88,8247.0,7.275242500191553,0.0
13.888,8240.0,0.16086028174390776,0.0
13.896,8239.0,-5.705368545296096,0.0
13.904,8238.0,-8.718247036516004,0.0
13.912,8323.0,7.982999988351821,0.0
13.92,8465.0,63.02606003598362,0.0
13.928,8218.0,64.57135382482261,0.0
13.936,8221.0,5.8460574887005805,0.0
13.944,8218.0,-29.770317268989857,0.0
13.952,8221.0,-46.320251092431135,0.0
13.96,8229.0,-46.83784879868608,0.0
13.968,8230.0,-38.20407708303719,0.0
13.976,8238.0,-25.467182278801147,0.0
13.984,8247.0,-10.6003642418857,0.0
13.992,8262.0,4.702207559079852,0.0
14.0,8281.0,19.985441152220346,0.0
14.008,8298.0,33.34872120179625,0.0
14.016,8302.0,40.486000537823884,0.0
14.024,8279.0,34.68710455201858,0.0
14.032,8230.0,11.289013198106659,0.0
14.04,8196.0,-21.217095521796182,1.0
14.048,8179.0,-47.64373455197665,0.0
14.056,8171.0,-61.156573395398254,0.0
14.064,8173.0,-61.10179056928723,0.0
14.072,8177.0,-50.57983448686582,0.0
14.08,8177.0,-35.871463783158106,0.0
14.088,8179.0,-21.325818631270295,0.0
14.096,8175.0,-9.898903893800707,0.0
14.104,8174.0,-2.661758806245871,0.0
14.112,8177.0,2.430432568995684,0.0
14.12,8174.0,5.0734638883218395,0.0
14.128,8174.0,5.254448770409681,0.0
14.136,8171.0,3.9519440040712652,0.0
14.144,8174.0,2.5824834748914327,0.0
14.152,8174.0,1.9939542714637355,0.0
14.16,8171.0,0.7306895947683643,0.0
14.168,8184.0,1.915824023351206,0.0
14.176,8159.0,-0.12536085631654714,0.0
14.184,8156.0,-7.033931123949969,0.0
14.192,8154.0,-11.074725329057628,0.0
14.2,8151.0,-12.806889401709668,0.0
14.208,8255.0,8.744770474755796,0.0
14.216,8286.0,47.745187453529525,0.0
14.224,8114.0,34.76481955539657,0.0
14.232,8140.0,-8.01042595812578,0.0
14.24,8146.0,-25.555534131832246,0.0
14.248,8157.0,-28.58404754936805,0.0
14.256,8160.0,-23.181214851999357,0.0
14.264,8169.0,-14.019832819903286,0.0
14.272,8176.0,-3.2074212625764176,0.0
14.28,8193.0,8.576523812398818,0.0
14.288,8212.0,21.600056934812983,0.0
14.296,8230.0,33.58645986493184,0.0
14.304,8253.0,43.959428840965074,0.0
14.312,8254.0,48.332437089541145,0.0
14.32,8232.0,39.30054169476148,0.0
14.328,8188.0,14.516813240692727,0.0
14.336,8154.0,-18.276627440082848,0.0
14.344,8142.0,-44.29749966564668,0.0
14.352,8143.0,-55.21748585551882,0.0
14.36,8143.0,-53.099624247473685,0.0
14.368,8148.0,-42.775090466641586,0.0
14.376,8149.0,-28.958164654565735,0.0
14.384,8152.0,-15.57925464217874,0.0
14.392,8151.0,-4.896388775681544,0.0
14.4,8149.0,1.5508883458667242,0.0
14.408,8149.0,4.720062778864758,0.0
14.416,8147.0,5.470088434832405,0.0
14.424,8147.0,4.675720749922675,0.0
14.432,8152.0,4.518542676736388,0.0
14.44,8153.0,4.96632836489448,0.0
14.448,8167.0,7.542706447120054,0.0
14.456,8167.0,10.783020410226754,0.0
14.464,8146.0,6.774186264450236,0.0
14.472,8147.0,-0.7096947230090791,0.0
14.48,8149.0,-4.4151490312915485,0.0
14.488,8141.0,-7.162964838966218,0.0
14.496,8337.0,30.706526408316677,0.0
14.504,8217.0,63.97387189999358,0.0
14.512,8121.0,29.81995303651138,0.0
14.52,8148.0,-8.996432009215141,0.0
14.528,8149.0,-24.867989770407803,0.0
14.536,8154.0,-29.25831714090441,0.0
14.544,8162.0,-24.762932565730807,0.0
14.552,8173.0,-14.46830101181763,0.0
14.56,8181.0,-2.3047920112871907,0.0
14.568,8196.0,9.937039791224151,0.0
14.576,8216.0,22.82079526392863,0.0
14.584,8240.0,35.969561352904066,1.0
14.592,8256.0,46.46434284606448,0.0
14.6,8258.0,49.303811340792436,0.0
14.608,8227.0,37.58330466730081,0.0
14.616,8182.0,9.426881095167118,0.0
14.624,8153.0,-23.77226882887112,0.0
14.632,8143.0,-47.769766959757135,0.0
14.64,8144.0,-56.558094690575444,0.0
14.648,8145.0,-52.77202083656539,0.0
14.656,8147.0,-41.919179276236946,0.0
14.664,8147.0,-28.736782650725445,0.0
14.672,8149.0,-16.175297926646408,0.0
14.68,8148.0,-6.089789655041841,0.0
14.688,8148.0,0.5937464778760386,0.0
14.696,8148.0,4.456359754086634,0.0
14.704,8147.0,5.860765314194396,0.0
14.712,8149.0,6.007068072428183,0.0
14.72,8155.0,6.817255452815516,0.0
14.728,8155.0,7.488627485772668,0.0
14.736,8163.0,8.384718074993998,0.0
14.744,8173.0,11.320857180615349,0.0
14.752,8155.0,9.706502838756023,0.0
14.76,8149.0,2.376936158410672,0.0
14.768,8148.0,-3.7482348406340407,0.0
14.776,8151.0,-6.393772578883727,0.0
14.784,8268.0,17.527131071856047,0.0
14.792,8312.0,61.909026815739026,0.0
14.8,8124.0,49.35094888469075,0.0
14.808,8146.0,0.5279991022202921,0.0
14.816,8153.0,-22.501139901003626,0.0
14.824,8157.0,-30.461787273791515,0.0
14.832,8167.0,-27.691122960369512,0.0
14.84,8176.0,-17.972539899240928,0.0
14.848,8185.0,-5.822721874450963,0.0
14.856,8200.0,7.148673622920796,0.0
14.864,8217.0,20.273738612622083,0.0
14.872,8245.0,34.15567942887628,0.0
14.88,8263.0,46.5848701026257,0.0
14.888,8265.0,50.95867329155203,0.0
14.896,8240.0,41.120477967654324,1.0
14.904,8199.0,15.583981244234337,0.0
14.912,8168.0,-16.59063566984446,0.0
14.92,8152.0,-42.70545361720201,0.0
14.928,8154.0,-54.5352745975797,0.0
14.936,8157.0,-52.24171576664912,0.0
14.944,8163.0,-41.126140692647596,0.0
14.952,8160.0,-27.704297085872895,0.0
14.96,8160.0,-16.179244931874564,0.0
14.968,8160.0,-6.910383585271575,0.0
14.976,8159.0,-0.5853993717948924,0.0
14.984,8158.0,2.8353376705913433,0.0
14.992,8156.0,3.815582787438643,0.0
15.0,8160.0,4.225412394410114,0.0
15.008,8163.0,5.257268324900451,0.0
15.016,8164.0,5.887645586201188,0.0
15.024,8168.0,6.389317215267965,0.0
15.032,8185.0,10.007626393986811,0.0
15.04,8166.0,10.22161254246862,0.0
15.048,8157.0,3.0780234055405344,0.0
15.056,8157.0,-3.4520555314591093,0.0
15.064,8159.0,-6.381959435898807,0.0
15.072,8180.0,-2.4482004360756946,0.0
15.08,8464.0,62.561145646177465,0.0
15.088,8152.0,85.8021345456857,0.0
15.096,8155.0,23.409245996754862,0.0
15.104,8159.0,-15.608817663517812,0.0
15.112,8164.0,-34.47884777227,0.0
15.12,8172.0,-37.75524146115322,0.0
15.128,8182.0,-30.291340201446246,0.0
15.136,8190.0,-17.607261746519725,0.0
15.144,8198.0,-4.167636762858592,0.0
15.152,8220.0,10.541422950746664,0.0
15.16,8240.0,26.222767091897367,0.0
15.168,8262.0,40.10164177448587,0.0
15.176,8270.0,48.35872787844187,0.0
15.184,8257.0,44.888696918925234,0.0
15.192,8217.0,25.202926346865297,0.0
15.2,8176.0,-6.808633800018697,1.0
15.208,8155.0,-37.374599553626695,0.0
15.216,8149.0,-55.30095312298431,0.0
15.224,8152.0,-58.13119430671554,0.0
15.232,8156.0,-49.56151329991758,0.0
15.24,8158.0,-35.75350272047831,0.0
15.248,8159.0,-21.55391252690083,0.0
15.256,8157.0,-10.092771570091827,0.0
15.264,8154.0,-2.805992524807607,0.0
15.272,8157.0,1.9288181768004051,0.0
15.28,8158.0,5.253749114766833,0.0
15.288,8157.0,6.423577411718497,0.0
15.296,8155.0,5.528619308922998,0.0
15.304,8160.0,4.774041091123536,0.0
15.312,8163.0,5.238390391842813,0.0
15.32,8182.0,9.213422122770226,0.0
15.328,8171.0,11.801792385422232,0.0
15.336,8154.0,5.822836183403524,0.0
15.344,8151.0,-2.6819358386526346,0.0
15.352,8155.0,-7.100730037930816,0.0
15.36,8147.0,-9.45464645274069,0.0
15.368,8427.0,46.15651146977007,0.0
15.376,8184.0,79.60611713776393,0.0
15.384,8135.0,27.663091102447197,0.0
15.392,8151.0,-13.991907195097383,0.0
15.4,8155.0,-32.419249745947354,0.0
15.408,8165.0,-35.541797289800115,0.0
15.416,8172.0,-28.526796760556635,0.0
15.424,8181.0,-16.784324719546476,0.0
15.432,8192.0,-3.2091278863447315,0.0
15.44,8211.0,11.43478753616273,0.0
15.448,8232.0,26.53355918640159,0.0
15.456,8259.0,41.24658665414313,0.0
15.464,8275.0,52.479312897876525,0.0
15.472,8277.0,54.84326024413258,0.0
15.48,8243.0,41.38878283600252,0.0
15.488,8201.0,11.62993642179913,0.0
15.496,8173.0,-22.03368962330228,0.0
15.504,8163.0,-46.36516647098438,0.0
15.512,8164.0,-55.5639626775785,0.0
15.52,8168.0,-51.5584588779227,0.0
15.528,8168.0,-40.555536302366136,0.0
15.536,8175.0,-26.4696222609316,0.0
15.544,8174.0,-12.900323804870595,0.0
15.552,8175.0,-2.9196217108806195,0.0
15.56,8178.0,4.242801463557726,0.0
15.568,8175.0,7.835387939282782,0.0
15.576,8176.0,8.363498713309355,0.0
15.584,8179.0,8.22502072836619,0.0
15.592,8185.0,8.734822268846528,0.0
15.6,8186.0,9.142121672342682,0.0
15.608,8206.0,12.287261624098164,0.0
15.616,8193.0,13.714504082028043,0.0
15.624,8179.0,6.963169964988765,0.0
15.632,8177.0,-1.3540698466529193,0.0
15.64,8178.0,-6.271879612274006,0.0
15.648,8167.0,-10.272381463985312,0.0
15.656,8465.0,47.55347919002429,0.0
15.664,8210.0,83.32686455260864,0.0
15.672,8160.0,29.538098055957107,0.0
15.68,8166.0,-15.740050360579517,0.0
15.688,8171.0,-37.88378619933064,0.0
15.696,8178.0,-42.78431602856517,0.0
15.704,8180.0,-37.35716655845272,0.0
15.712,8191.0,-25.827861198598384,0.0
15.72,8199.0,-11.211924738152675,0.0
15.728,8212.0,3.4220934289623983,0.0
15.736,8231.0,18.09542426853841,0.0
15.744,8251.0,31.997460176370396,1.0
15.752,8269.0,43.13133997290811,0.0
15.76,8264.0,45.8325886057105,0.0
15.768,8220.0,30.470600786858768,0.0
15.776,8179.0,-0.5997262871198927,0.0
15.784,8152.0,-32.77619696455167,0.0
15.792,8142.0,-54.39518084340148,0.0
15.8,8142.0,-60.97666904343828,0.0
15.808,8140.0,-56.03276919990981,0.0
15.816,8142.0,-44.61372579103886,0.0
15.824,8141.0,-30.89225409339224,0.0
15.832,8140.0,-18.502369644818145,0.0
15.84,8137.0,-9.187038074747761,0.0
15.848,8136.0,-3.10230622759218,0.0
15.856,8136.0,0.7622395733105805,0.0
15.864,8135.0,2.72786024818447,0.0
15.872,8133.0,2.8638467900339037,0.0
15.88,8138.0,3.12297850289292,0.0
15.888,8140.0,4.23285393774745,0.0
15.896,8154.0,7.516295009648275,0.0
15.904,8152.0,10.770167496250906,0.0
15.912,8130.0,6.158398019484139,0.0
15.92,8129.0,-2.2015996352479306,0.0
15.928,8130.0,-6.8118999747366615,0.0
15.936,8118.0,-10.752968622029357,0.0
15.944,8341.0,31.65404077002836,0.0
15.952,8214.0,71.54722913678097,0.0
15.96,8114.0,37.916303409941065,0.0
15.968,8122.0,-6.517205597543807,0.0
15.976,8124.0,-29.764016034220504,0.0
15.984,8129.0,-37.56945948215002,0.0
15.992,8136.0,-34.038002470040055,0.0
16.0,8145.0,-23.520128485171426,0.0
16.008,8150.0,-10.873734512560986,0.0
16.016,8165.0,2.33992501991861,0.0
16.024,8182.0,16.337327608730675,0.0
16.032,8207.0,30.71907134156868,0.0
16.04,8224.0,43.14767168895196,0.0
16.048,8220.0,46.612139840124655,1.0
16.056,8192.0,35.0564436307493,0.0
16.064,8148.0,8.1977939514627,0.0
16.072,8126.0,-22.41310391897332,0.0
16.08,8114.0,-44.06447537405643,0.0
16.088,8114.0,-52.639976069228624,0.0
16.096,8115.0,-49.526370511903906,0.0
16.104,8120.0,-38.950402019863986,0.0
16.112,8122.0,-25.360345222929027,0.0
16.12,8124.0,-12.661077064676874,0.0
16.128,8124.0,-2.8225804356338813,0.0
16.136,8121.0,2.810924288421802,0.0
16.144,8124.0,5.716400394038828,0.0
16.152,8127.0,7.793825345625237,0.0
16.16,8129.0,8.86227924205582,0.0
16.168,8132.0,9.172039097692732,0.0
16.176,8138.0,9.803348595232364,0.0
16.184,8139.0,10.120506400814975,0.0
16.192,8156.0,12.451099614097984,0.0
16.2,8138.0,11.737374106214247,0.0
16.208,8131.0,4.428232953725683,0.0
16.216,8131.0,-1.9958592284119732,0.0
16.224,8136.0,-4.470956815569707,0.0
16.232,8185.0,5.775368890100253,0.0
16.24,8406.0,66.12063748826313,0.0
16.248,8120.0,78.50450717614922,0.0
16.256,8132.0,17.94767152158829,0.0
16.264,8133.0,-17.930709382094165,0.0
16.272,8139.0,-35.00051174236228,0.0
16.28,8151.0,-36.11165917183507,0.0
16.288,8155.0,-28.025022967577797,0.0
16.296,8168.0,-15.520561360451893,0.0
16.304,8178.0,-1.0734241231987198,0.0
16.312,8201.0,14.375259990471932,0.0
16.32,8222.0,30.32136348326617,0.0
16.328,8236.0,42.30531504923397,0.0
16.336,8243.0,47.26893644784218,0.0
16.344,8231.0,42.016381135392066,0.0
16.352,8190.0,21.711905575760284,0.0
16.36,8154.0,-9.319072428510253,1.0
16.368,8147.0,-35.04279572988844,0.0
16.376,8141.0,-47.59877253877676,0.0
16.384,8142.0,-48.82932489761106,0.0
16.392,8152.0,-39.906660456590316,0.0
16.4,8156.0,-25.71927911351122,0.0
16.408,8153.0,-13.22523806184131,0.0
16.416,8153.0,-4.444083060566072,0.0
16.424,8161.0,3.0572595725650444,0.0
16.432,8156.0,7.642927074503859,0.0
16.44,8165.0,10.013328614847978,0.0
16.448,8161.0,10.918545489409325,0.0
16.456,8169.0,10.615712180945593,0.0
16.464,8178.0,12.30026380578397,0.0
16.472,8182.0,14.08755039668904,0.0
16.48,8198.0,17.09472630389041,0.0
16.488,8183.0,16.485703717286015,0.0
16.496,8175.0,8.927182532615461,0.0
16.504,8177.0,1.8778143754889243,0.0
16.512,8186.0,-0.3285600877941306,0.0
16.52,8223.0,7.814245197321952,0.0
16.528,8439.0,63.133263559535635,0.0
16.536,8154.0,72.18033499593844,0.0
16.544,8178.0,13.264852222109994,0.0
16.552,8184.0,-17.45975060141086,0.0
16.56,8192.0,-30.12291424159116,0.0
16.568,8198.0,-30.184687447693932,0.0
16.576,8209.0,-22.17175110565813,0.0
16.584,8219.0,-9.78109728154459,0.0
16.592,8231.0,3.524262896192795,0.0
16.6,8245.0,16.170532548288747,0.0
16.608,8269.0,28.96130329255402,0.0
16.616,8285.0,40.30690157277036,0.0
16.624,8296.0,46.421789907625225,0.0
16.632,8277.0,41.36562690515848,0.0
16.64,8236.0,19.845853686239252,0.0
16.648,8202.0,-11.212332209250462,0.0
16.656,8188.0,-37.68660980434356,0.0
16.664,8186.0,-50.89853223819887,0.0
16.672,8189.0,-50.790922293391304,0.0
16.68,8195.0,-41.18807120183237,0.0
16.688,8193.0,-28.447159843909503,0.0
16.696,8194.0,-16.803581488218015,0.0
16.704,8193.0,-7.369967150055345,0.0
16.712,8194.0,-0.6735691715787198,0.0
16.72,8192.0,3.184489765773151,0.0
16.728,8195.0,5.1876340486985555,0.0
16.736,8195.0,6.198686194260972,0.0
16.744,8201.0,7.0826317190587815,0.0
16.752,8204.0,8.370292495599415,0.0
16.76,8210.0,9.701485233864332,0.0
16.768,8220.0,12.286703940811321,0.0
16.776,8202.0,10.318382084512677,0.0
16.784,8194.0,2.278109835121768,0.0
16.792,8196.0,-4.048087204382227,0.0
16.8,8195.0,-6.9713510782048616,0.0
16.808,8291.0,11.765352904238398,0.0
16.816,8405.0,63.96561548087584,0.0
16.824,8171.0,60.622723472040434,0.0
16.832,8189.0,5.325644163276138,0.0
16.84,8191.0,-24.098371407371587,1.0
16.848,8194.0,-36.82458403609621,0.0
16.856,8201.0,-36.72479536346464,0.0
16.864,8210.0,-27.829054860985934,0.0
16.872,8220.0,-14.467199735244549,0.0
16.88,8233.0,0.32729655971229477,0.0
16.888,8250.0,15.156139985655045,0.0
16.896,8273.0,29.800076796031135,0.0
16.904,8288.0,41.70586482044769,0.0
16.912,8293.0,46.50984333542033,0.0
16.92,8269.0,38.417751420349305,0.0
16.928,8227.0,14.323662620410914,0.0
16.936,8194.0,-17.41973991906889,0.0
16.944,8178.0,-43.56243805429813,0.0
16.952,8180.0,-55.27881837576456,0.0
16.96,8185.0,-52.396839264400796,0.0
16.968,8184.0,-41.93125897486766,0.0
16.976,8186.0,-29.180357425870852,0.0
16.984,8187.0,-16.60250618274472,0.0
16.992,8185.0,-6.851150613192658,0.0
17.0,8181.0,-1.2713046509272772,0.0
17.008,8180.0,1.1998477216075116,0.0
17.016,8182.0,2.6836729081171597,0.0
17.024,8181.0,3.3586290119555997,0.0
17.032,8187.0,4.2700932588381875,0.0
17.04,8188.0,5.591840941940063,0.0
17.048,8186.0,5.3214304284565515,0.0
17.056,8201.0,7.010629148176122,0.0
17.064,8183.0,6.333821884675899,0.0
17.072,8174.0,-0.5428452300861863,0.0
17.08,8174.0,-6.366100499242293,0.0
17.088,8179.0,-7.823283965924702,0.0
17.096,8222.0,2.3074818917521043,0.0
17.104,8425.0,58.20696140517407,0.0
17.112,8148.0,67.32269804202224,0.0
17.12,8165.0,9.388599678030914,0.0
17.128,8170.0,-21.802334978904582,0.0
17.136,8175.0,-34.90010274457177,0.0
17.144,8177.0,-35.924727719638895,0.0
17.152,8184.0,-29.245369063181897,0.0
17.16,8199.0,-16.36664608387059,0.0
17.168,8210.0,-0.9569923844062487,0.0
17.176,8226.0,13.817465006509565,0.0
17.184,8249.0,28.427896108982168,0.0
17.192,8274.0,42.564915944637505,0.0
17.2,8280.0,50.805508051456854,0.0
17.208,8262.0,45.524656044393396,1.0
17.216,8220.0,23.241444210086456,0.0
17.224,8179.0,-10.417456221512793,0.0
17.232,8170.0,-38.95890633635963,0.0
17.24,8164.0,-52.99615519438521,0.0
17.248,8168.0,-53.67152000970782,0.0
17.256,8173.0,-44.0949862856296,0.0
17.264,8172.0,-30.92891633705335,0.0
17.272,8173.0,-18.453335489762594,0.0
17.28,8172.0,-8.277554070248698,0.0
17.288,8172.0,-1.2089396379203663,0.0
17.296,8170.0,2.746115154230438,0.0
17.304,8168.0,3.851581269727376,0.0
17.312,8172.0,4.330008574038857,0.0
17.32,8175.0,5.3865750542161095,0.0
17.328,8180.0,6.829164964632355,0.0
17.336,8179.0,7.464131540104063,0.0
17.344,8194.0,9.568210822088759,0.0
17.352,8180.0,9.56620696623213,0.0
17.36,8170.0,3.2114522154395218,0.0
17.368,8168.0,-3.485243221477276,0.0
17.376,8173.0,-6.304351379447098,0.0
17.384,8212.0,1.9734830550830793,0.0
17.392,8451.0,63.36540652319309,0.0
17.4,8152.0,77.80749583274746,0.0
17.408,8164.0,15.917652300169266,0.0
17.416,8166.0,-20.236991565432618,0.0
17.424,8170.0,-37.324816609101845,0.0
17.432,8179.0,-39.1157346926625,0.0
17.44,8186.0,-30.975660425084016,0.0
17.448,8195.0,-18.196544993383895,0.0
17.456,8207.0,-3.5898688810225394,0.0
17.464,8222.0,11.108884042640739,0.0
17.472,8246.0,26.08519649276832,0.0
17.48,8268.0,40.3851772194414,0.0
17.488,8272.0,48.03111412627459,0.0
17.496,8253.0,42.20631240792591,0.0
17.504,8210.0,19.695908025784547,0.0
17.512,8178.0,-11.925401974475108,1.0
17.52,8163.0,-38.420299619354864,0.0
17.528,8160.0,-51.9417823292174,0.0
17.536,8162.0,-52.267678442128044,0.0
17.544,8166.0,-43.31021092832816,0.0
17.552,8171.0,-29.60773280165722,0.0
17.56,8171.0,-15.993723939181336,0.0
17.568,8172.0,-5.31328338702383,0.0
17.576,8170.0,1.6043672001057985,0.0
17.584,8169.0,4.8393108753518845,0.0
17.592,8167.0,5.405852109488478,0.0
17.6,8170.0,5.1256134980346815,0.0
17.608,8172.0,5.204281460386483,0.0
17.616,8177.0,5.891880835746406,0.0
17.624,8177.0,6.426751414909631,0.0
17.632,8195.0,9.446116458563438,0.0
17.64,8179.0,10.208222864165464,0.0
17.648,8169.0,3.799422825543388,0.0
17.656,8169.0,-2.6097765414822334,0.0
17.664,8169.0,-6.004493552818985,0.0
17.672,8244.0,8.220790322206767,0.0
17.68,8413.0,65.23663203663659,0.0
17.688,8148.0,69.45218426186989,0.0
17.696,8164.0,10.544578736339417,0.0
17.704,8167.0,-22.010248993712594,0.0
17.712,8170.0,-36.70030195275467,0.0
17.72,8178.0,-37.576467020378914,0.0
17.728,8183.0,-29.74168294795959,0.0
17.736,8192.0,-17.73880283372614,0.0
17.744,8204.0,-3.6605901227635513,0.0
17.752,8223.0,11.553555888742721,0.0
17.76,8245.0,27.17585510940353,0.0
17.768,8262.0,40.262408857253604,0.0
17.776,8263.0,45.574933587665555,0.0
17.784,8241.0,37.51673677035592,0.0
17.792,8199.0,13.987899579994519,0.0
17.8,8165.0,-17.57460927365878,0.0
17.808,8148.0,-43.99544880776034,0.0
17.816,8146.0,-56.83217607422216,0.0
17.824,8149.0,-55.603065882825604,0.0
17.832,8152.0,-45.22028609908057,0.0
17.84,8151.0,-31.815396474431736,0.0
17.848,8144.0,-20.69858380646201,0.0
17.856,8142.0,-12.824676920298089,0.0
17.864,8143.0,-6.427989796216934,0.0
17.872,8141.0,-1.8747412752138644,0.0
17.88,8140.0,0.4893728264971742,0.0
17.888,8137.0,0.9961080147727444,0.0
17.896,8142.0,1.5533702857430853,0.0
17.904,8144.0,3.077530773712624,0.0
17.912,8148.0,4.738131728524422,0.0
17.92,8154.0,7.044859942086077,0.0
17.928,8131.0,3.867857270581908,0.0
17.936,8123.0,-4.930755241410452,0.0
17.944,8123.0,-11.02108607537889,0.0
17.952,8119.0,-13.769174251158802,0.0
17.96,8252.0,13.047986607456096,0.0
17.968,8296.0,63.090628448368534,0.0
17.976,8092.0,50.4323484834822,0.0
17.984,8104.0,-3.9256349918603064,0.0
17.992,8107.0,-32.413171839185,0.0
18.0,8111.0,-42.91632895723842,0.0
18.008,8117.0,-40.57824848674136,0.0
18.016,8123.0,-30.59176022464044,0.0
18.024,8131.0,-17.18748405092174,0.0
18.032,8144.0,-2.3640744556705613,0.0
18.04,8161.0,12.889911861853989,0.0
18.048,8182.0,27.720262761748472,1.0
18.056,8196.0,39.43871765510676,0.0
18.064,8198.0,43.65843063848138,0.0
18.072,8171.0,34.42730792686757,0.0
18.08,8128.0,9.447393229158706,0.0
18.088,8098.0,-21.671983640666213,0.0
18.096,8086.0,-45.370837914095546,0.0
18.104,8085.0,-55.16345741617329,0.0
18.112,8091.0,-51.56986105947044,0.0
18.12,8095.0,-39.5830062154962,0.0
18.128,8096.0,-25.47124494163222,0.0
18.136,8096.0,-13.059530382349976,0.0
18.144,8098.0,-3.330682251584676,0.0
18.152,8095.0,2.723612412620014,0.0
18.16,8099.0,6.095481330381517,0.0
18.168,8097.0,7.574053780552731,0.0
18.176,8101.0,7.708764785346148,0.0
18.184,8109.0,9.071302811452597,0.0
18.192,8111.0,10.544797217729638,0.0
18.2,8116.0,11.247609427074394,0.0
18.208,8131.0,14.043997545043112,0.0
18.216,8111.0,12.547036950622442,0.0
18.224,8108.0,5.06053906375314,0.0
18.232,8110.0,-0.3385017225930369,0.0
18.24,8114.0,-2.254359740334394,0.0
18.248,8188.0,12.889856827785025,0.0
18.256,8363.0,70.76277235001794,0.0
18.264,8102.0,76.69037675606592,0.0
18.272,8112.0,17.289279001256546,0.0
18.28,8116.0,-17.60147951216254,0.0
18.288,8125.0,-32.911313807559054,0.0
18.296,8132.0,-33.70696774025714,0.0
18.304,8138.0,-26.411231279765616,0.0
18.312,8152.0,-14.006273872541442,0.0
18.32,8165.0,0.9696361851163147,0.0
18.328,8181.0,15.60408031789234,0.0
18.336,8205.0,30.06513666515798,0.0
18.344,8224.0,42.844087401902925,0.0
18.352,8230.0,49.013389048624504,0.0
18.36,8217.0,43.80078979374707,1.0
18.368,8174.0,22.636504292967402,0.0
18.376,8140.0,-9.043143972018242,0.0
18.384,8133.0,-34.783722158503,0.0
18.392,8124.0,-48.00184800294687,0.0
18.4,8139.0,-47.31557414442841,0.0
18.408,8135.0,-37.48880432024316,0.0
18.416,8145.0,-24.76771866783838,0.0
18.424,8148.0,-10.833500373975312,0.0
18.432,8144.0,-1.154640941632806,0.0
18.44,8149.0,4.948778589905487,0.0
18.448,8150.0,9.033842537559394,0.0
18.456,8150.0,10.284406286462627,0.0
18.464,8161.0,11.712059308458265,0.0
18.472,8165.0,13.845196882415394,0.0
18.48,8167.0,14.233440603996769,0.0
18.488,8178.0,14.961000417202285,0.0
18.496,8191.0,18.026233619486675,0.0
18.504,8174.0,16.28881439591487,0.0
18.512,8171.0,8.705714518415334,0.0
18.52,8175.0,3.1054934980161306,0.0
18.528,8179.0,0.9571091435768722,0.0
18.536,8286.0,22.21884063214111,0.0
18.544,8303.0,56.757657296315074,0.0
18.552,8144.0,39.56800869662311,0.0
18.56,8171.0,-3.564607112293288,0.0
18.568,8189.0,-19.33919138675742,0.0
18.576,8190.0,-21.85448917514782,0.0
18.584,8197.0,-18.3942270282771,0.0
18.592,8209.0,-9.677336104273536,0.0
18.6,8221.0,1.848236980290494,0.0
18.608,8232.0,13.083146318516583,0.0
18.616,8255.0,24.69012179703759,0.0
18.624,8273.0,36.18748786248966,0.0
18.632,8296.0,45.876894697394846,0.0
18.64,8303.0,50.78073991184124,0.0
18.648,8276.0,41.895889841505095,0.0
18.656,8234.0,16.192735863827238,0.0
18.664,8204.0,-16.17273626141673,0.0
18.672,8195.0,-40.82937755459284,0.0
18.68,8195.0,-51.059766419440166,0.0
18.688,8196.0,-49.16443743227978,0.0
18.696,8203.0,-38.95522737372107,0.0
18.704,8204.0,-25.37703850480807,0.0
18.712,8205.0,-13.090859769651388,0.0
18.72,8206.0,-3.431503413405153,0.0
18.728,8204.0,2.5969796080848937,0.0
18.736,8199.0,4.33837599637036,0.0
18.744,8202.0,4.301884291985743,0.0
18.752,8211.0,6.079696613940769,0.0
18.76,8210.0,7.843744716443325,0.0
18.768,8222.0,9.945104640922182,0.0
18.776,8230.0,13.766066671634007,0.0
18.784,8208.0,11.078467582352232,0.0
18.792,8205.0,2.7018788543562096,0.0
18.8,8205.0,-3.2745611085042583,0.0
18.808,8201.0,-7.129759031739695,0.0
18.816,8386.0,28.649688095610372,0.0
18.824,8270.0,59.56272013634475,0.0
18.832,8172.0,25.09384850217316,0.0
18.84,8206.0,-12.17076173955843,0.0
18.848,8209.0,-24.804629165991173,0.0
18.856,8215.0,-26.67689555277252,0.0
18.864,8222.0,-21.083707845604522,0.0
18.872,8231.0,-11.310553697366004,0.0
18.88,8240.0,-0.13849816439619644,0.0
18.888,8253.0,10.984253150632867,0.0
18.896,8272.0,22.43451388901599,0.0
18.904,8293.0,33.97687507407113,1.0
18.912,8309.0,43.210843642959844,0.0
18.92,8305.0,44.57213338882639,0.0
18.928,8272.0,31.060405873528225,0.0
18.936,8233.0,3.6508089957476386,0.0
18.944,8203.0,-27.209444022990965,0.0
18.952,8192.0,-49.71120769856043,0.0
18.96,8192.0,-57.72921685522988,0.0
18.968,8194.0,-53.31002192294682,0.0
18.976,8199.0,-41.183982988514344,0.0
18.984,8201.0,-26.338579848538075,0.0
18.992,8198.0,-13.77009413826977,0.0
19.0,8198.0,-4.862306076248842,0.0
19.008,8198.0,1.1429280914987885,0.0
19.016,8195.0,3.9082298159808033,0.0
19.024,8196.0,4.542489277577488,0.0
19.032,8203.0,5.863300880301949,0.0
19.04,8209.0,8.411391779804944,0.0
19.048,8219.0,11.911875448346109,0.0
19.056,8217.0,13.81048139396762,0.0
19.064,8199.0,8.753465343205335,0.0
19.072,8195.0,-0.058992414134309,0.0
19.08,8196.0,-5.874623930205189,0.0
19.088,8190.0,-9.444820613879983,0.0
19.096,8374.0,26.24126396540896,0.0
19.104,8290.0,63.79755262835056,0.0
19.112,8170.0,34.658449659963935,0.0
19.12,8191.0,-8.05477946101314,0.0
19.128,8192.0,-27.599494970848127,0.0
19.136,8200.0,-33.135090875789274,0.0
19.144,8206.0,-28.5249507418971,0.0
19.152,8213.0,-18.81789152516285,0.0
19.16,8225.0,-6.342422574075272,0.0
19.168,8235.0,6.4917534559756405,0.0
19.176,8256.0,19.430963105871115,0.0
19.184,8278.0,32.922162446465336,0.0
19.192,8295.0,43.87717921990043,0.0
19.2,8294.0,46.97247299527794,0.0
19.208,8266.0,35.75671938207552,0.0
19.216,8220.0,8.584339475549768,0.0
19.224,8195.0,-23.292206919591763,0.0
19.232,8185.0,-45.76309925857595,0.0
19.24,8185.0,-54.15713017427174,0.0
19.248,8186.0,-50.706185218525434,0.0
19.256,8191.0,-39.75184092696327,0.0
19.264,8190.0,-26.429408180804558,0.0
19.272,8189.0,-14.952134827709187,0.0
19.28,8189.0,-6.101874985443374,0.0
19.288,8188.0,-0.14703045846749774,0.0
19.296,8185.0,2.579743033398472,0.0
19.304,8186.0,3.3926312387395683,0.0
19.312,8190.0,4.380513164131116,0.0
19.32,8192.0,5.526412351040108,0.0
19.328,8193.0,5.979128370678154,0.0
19.336,8206.0,8.200568983079165,0.0
19.344,8190.0,7.658119773063618,0.0
19.352,8179.0,0.6601325984372579,0.0
19.36,8181.0,-5.417256792233502,0.0
19.368,8183.0,-7.3728914893467845,0.0
19.376,8238.0,4.233513735458473,0.0
19.384,8446.0,64.18678878959622,0.0
19.392,8159.0,73.77181689042959,0.0
19.4,8171.0,12.072981820649375,0.0
19.408,8174.0,-23.18150170549484,0.0
19.416,8178.0,-39.08625009143725,0.0
19.424,8183.0,-40.7276477802875,0.0
19.432,8190.0,-33.07196564472292,0.0
19.44,8199.0,-20.261494306349732,0.0
19.448,8211.0,-5.323203673058288,0.0
19.456,8225.0,9.63015872112419,0.0
19.464,8247.0,24.368336532301782,0.0
19.472,8267.0,37.97057776380257,0.0
19.48,8271.0,45.161352813015355,0.0
19.488,8245.0,38.07235304058554,1.0
19.496,8202.0,14.010955278478377,0.0
19.504,8172.0,-17.25710206245253,0.0
19.512,8153.0,-43.14333964966886,0.0
19.52,8150.0,-56.40599648520151,0.0
19.528,8151.0,-56.106296667760716,0.0
19.536,8154.0,-46.60547456868085,0.0
19.544,8158.0,-32.49065822122134,0.0
19.552,8154.0,-19.2172118141184,0.0
19.56,8157.0,-8.658062175028363,0.0
19.568,8148.0,-2.3265390111637316,0.0
19.576,8155.0,1.3620424765231292,0.0
19.584,8151.0,3.949864243973707,0.0
19.592,8152.0,4.268549256560846,0.0
19.6,8150.0,3.605555772324351,0.0
19.608,8158.0,3.8926226513992788,0.0
19.616,8167.0,6.945340003115916,0.0
19.624,8170.0,10.149326380214688,0.0
19.632,8154.0,7.849490249104292,0.0
19.64,8150.0,1.213279093669371,0.0
19.648,8151.0,-3.5082151476003673,0.0
19.656,8149.0,-5.972913056834386,0.0
19.664,8274.0,18.604034172406955,0.0
19.672,8275.0,56.060112935313555,0.0
19.68,8111.0,36.41116697967982,0.0
19.688,8148.0,-6.675754643659275,0.0
19.696,8152.0,-22.768832061208286,0.0
19.704,8164.0,-25.565414634337685,0.0
19.712,8170.0,-19.665875501014852,0.0
19.72,8179.0,-10.130806567483887,0.0
19.728,8191.0,1.334484644913573,0.0
19.736,8201.0,12.407333477125349,0.0
19.744,8221.0,23.203724546054445,0.0
19.752,8247.0,35.46857181740256,0.0
19.76,8266.0,46.53806522754621,0.0
19.768,8269.0,50.52344351649617,0.0
19.776,8243.0,40.52152031823084,0.0
19.784,8195.0,13.3445976548619,0.0
19.792,8163.0,-21.095054065447357,0.0
19.8,8153.0,-46.8449827450213,0.0
19.808,8151.0,-57.422805688794824,0.0
19.816,8155.0,-54.56393595964164,0.0
19.824,8161.0,-42.557660136584445,0.0
19.832,8163.0,-27.370518209126203,0.0
19.84,8167.0,-13.013368937309451,0.0
19.848,8161.0,-2.9581958419305465,0.0
19.856,8164.0,2.824011883430103,0.0
19.864,8164.0,6.42834893788563,0.0
19.872,8163.0,7.381033529658907,0.0
19.88,8167.0,7.438300294619921,0.0
19.888,8172.0,8.183141061277183,0.0
19.896,8176.0,9.221685307070402,0.0
19.904,8192.0,12.523778807437793,0.0
19.912,8176.0,12.577878768442815,0.0
19.92,8170.0,6.208300377651312,0.0
19.928,8174.0,1.091488952876034,0.0
19.936,8172.0,-1.691465848172811,0.0
19.944,8210.0,4.273975133029808,0.0
19.952,8449.0,63.74527034794437,0.0
19.96,8147.0,76.3810089624626,0.0
19.968,8167.0,14.660668975325052,0.0
19.976,8173.0,-18.751547372530013,1.0
19.984,8178.0,-33.42121205491276,0.0
19.992,8188.0,-33.96526496529009,0.0
20.0,8198.0,-25.051465396766844,0.0
20.008,8207.0,-12.100045517113585,0.0
20.016,8217.0,1.2756282326424753,0.0
20.024,8236.0,14.917303244902314,0.0
20.032,8260.0,29.508263554494533,0.0
20.04,8282.0,43.06137028991293,0.0
20.048,8287.0,50.06416551606162,0.0
20.056,8269.0,43.959377928883896,0.0
20.064,8224.0,20.813304115964456,0.0
20.072,8190.0,-12.170553471318499,0.0
20.08,8174.0,-40.046994125207675,0.0
20.088,8169.0,-54.75179547815651,0.0
20.096,8173.0,-55.351473124478616,0.0
20.104,8175.0,-46.088379884853566,0.0
20.112,8178.0,-32.601155299136735,0.0
20.12,8179.0,-18.86490966681822,0.0
20.128,8177.0,-8.085474492826052,0.0
20.136,8176.0,-1.0975834050266258,0.0
20.144,8174.0,2.5885479906532964,0.0
20.152,8174.0,3.967463943263283,0.0
20.16,8171.0,3.5685357278066476,0.0
20.168,8173.0,2.5872772771117525,0.0
20.176,8179.0,3.2491074674112497,0.0
20.184,8182.0,4.9866171267551636,0.0
20.192,8197.0,8.935562296425132,0.0
20.2,8181.0,9.711924420437754,0.0
20.208,8168.0,2.7738974193946433,0.0
20.216,8170.0,-3.997104968690792,0.0
20.224,8173.0,-6.373952203855424,0.0
20.232,8181.0,-4.565940284086992,0.0
20.24,8505.0,65.02343909327806,0.0
20.248,8158.0,91.6212435041798,0.0
20.256,8157.0,22.363592363132057,0.0
20.264,8161.0,-21.372950440867953,0.0
20.272,8168.0,-41.75096912190702,0.0
20.28,8176.0,-44.40804368488443,0.0
20.288,8183.0,-36.18213724474549,0.0
20.296,8190.0,-22.971499115933057,0.0
20.304,8201.0,-7.998584258793471,0.0
20.312,8216.0,7.380874119868167,0.0
20.32,8236.0,22.507761664422333,0.0
20.328,8259.0,36.82627112692899,0.0
20.336,8265.0,45.635640541561315,0.0
20.344,8254.0,42.90508120364029,1.0
20.352,8212.0,23.95737248548835,0.0
20.36,8178.0,-6.407354309017592,0.0
20.368,8157.0,-34.630118470224716,0.0
20.376,8153.0,-51.17820055888865,0.0
20.384,8153.0,-54.02269303696812,0.0
20.392,8154.0,-47.31014245502752,0.0
20.4,8158.0,-35.14607096556051,0.0
20.408,8159.0,-21.60219581484239,0.0
20.416,8160.0,-9.908620864104932,0.0
20.424,8161.0,-1.0821943885457586,0.0
20.432,8161.0,4.50611394510338,0.0
20.44,8162.0,7.332151043168778,0.0
20.448,8160.0,7.687523256674922,0.0
20.456,8161.0,6.527869708398612,0.0
20.464,8167.0,6.28245618253527,0.0
20.472,8173.0,7.636434407464094,0.0
20.48,8187.0,11.365417790912488,0.0
20.488,8177.0,12.664804224988984,0.0
20.496,8161.0,6.201303978956503,0.0
20.504,8162.0,-1.6259026554482716,0.0
20.512,8164.0,-5.395491248335247,0.0
20.52,8161.0,-7.01110039314608,0.0
20.528,8472.0,56.02105048151611,0.0
20.536,8191.0,90.93373282706807,0.0
20.544,8160.0,34.05255119713297,0.0
20.552,8168.0,-9.448573503187845,0.0
20.56,8174.0,-30.882340125721385,0.0
20.568,8184.0,-35.60729389987068,0.0
20.576,8195.0,-28.712820417121748,0.0
20.584,8205.0,-15.991920369145873,0.0
20.592,8216.0,-1.7539198540041525,0.0
20.6,8235.0,13.06134985909398,0.0
20.608,8253.0,27.40195163415342,0.0
20.616,8281.0,41.12633849390795,0.0
20.624,8293.0,51.17971287948785,0.0
20.632,8289.0,51.0002199406897,0.0
20.64,8252.0,34.78549899361337,0.0
20.648,8215.0,4.803986521797697,0.0
20.656,8191.0,-26.117721869237357,0.0
20.664,8189.0,-45.756835750784376,0.0
20.672,8190.0,-50.63839975823339,0.0
20.68,8193.0,-45.03076625501103,0.0
20.688,8195.0,-33.865721240807034,0.0
20.696,8200.0,-20.698183182807952,0.0
20.704,8202.0,-8.342728232277977,0.0
20.712,8204.0,1.0463268266285013,0.0
20.72,8202.0,6.440363012458647,0.0
20.728,8203.0,8.449651244515053,0.0
20.736,8205.0,8.969776601450803,0.0
20.744,8205.0,8.326055521378066,0.0
20.752,8207.0,7.091633291059225,0.0
20.76,8212.0,6.716528476400526,0.0
20.768,8215.0,7.110793706433697,0.0
20.776,8232.0,10.3518977415456,0.0
20.784,8214.0,10.494910614371975,0.0
20.792,8207.0,3.8808152585622793,0.0
20.8,8211.0,-1.232029704055094,0.0
20.808,8209.0,-3.6603658919448208,0.0
20.816,8236.0,0.5659953716449309,0.0
20.824,8519.0,66.31290240938051,0.0
20.832,8194.0,86.56106149275706,0.0
20.84,8202.0,20.64874944699568,0.0
20.848,8204.0,-19.419269133891476,0.0
20.856,8210.0,-38.53683225657346,0.0
20.864,8218.0,-41.14007739138515,0.0
20.872,8223.0,-33.786400228215825,0.0
20.88,8232.0,-21.4548190655662,0.0
20.888,8246.0,-6.210219525226194,0.0
20.896,8258.0,9.05877552465904,0.0
20.904,8281.0,23.865945580656444,0.0
20.912,8300.0,37.58515711023006,0.0
20.92,8305.0,44.90354252126963,0.0
20.928,8288.0,39.97210663273336,1.0
20.936,8244.0,18.533070120744014,0.0
20.944,8206.0,-13.708440505538874,0.0
20.952,8189.0,-41.934200685233236,0.0
20.96,8181.0,-57.37666953696635,0.0
20.968,8184.0,-58.8318439332088,0.0
20.976,8183.0,-50.36422806325254,0.0
20.984,8186.0,-37.312080901735044,0.0
20.992,8188.0,-22.914606589886944,0.0
21.0,8187.0,-10.72153836230109,0.0
21.008,8187.0,-2.0893669712038445,0.0
21.016,8183.0,2.5152543559065634,0.0
21.024,8181.0,3.63127262268722,0.0
21.032,8184.0,3.9450410188694605,0.0
21.04,8185.0,4.3496916446524665,0.0
21.048,8186.0,4.338138411441378,0.0
21.056,8187.0,4.082194508697967,0.0
21.064,8189.0,3.924823307878796,0.0
21.072,8208.0,7.527022009445773,0.0
21.08,8185.0,7.698967704139932,0.0
21.088,8178.0,0.5043769970077392,0.0
21.096,8174.0,-6.074270659633157,0.0
21.104,8175.0,-9.656843381626004,0.0
21.112,8207.0,-3.569552340338305,0.0
21.12,8433.0,53.281260483342294,0.0
21.128,8137.0,64.52361176883187,0.0
21.136,8160.0,5.615653604157615,0.0
21.144,8161.0,-25.17059532613348,0.0
21.152,8172.0,-37.10976294582133,0.0
21.16,8174.0,-35.88837819065179,0.0
21.168,8180.0,-28.090544924450796,0.0
21.176,8187.0,-16.56415029392315,0.0
21.184,8200.0,-3.1501223268026024,0.0
21.192,8221.0,12.206735451911527,0.0
21.2,8243.0,28.223006093461436,0.0
21.208,8265.0,42.40529756242495,0.0
21.216,8272.0,50.28826162074165,0.0
21.224,8260.0,46.3044354096819,0.0
21.232,8211.0,24.46575791267219,0.0
21.24,8174.0,-9.728768526074418,1.0
21.248,8152.0,-40.53010758075152,0.0
21.256,8148.0,-57.91294744516199,0.0
21.264,8147.0,-60.43434799858119,0.0
21.272,8151.0,-52.150037164475634,0.0
21.28,8158.0,-37.096839141768214,0.0
21.288,8160.0,-20.731376543755687,0.0
21.296,8158.0,-7.909747557147284,0.0
21.304,8160.0,0.8721537799353882,0.0
21.312,8154.0,5.116323648156822,0.0
21.32,8153.0,5.420517885737127,0.0
21.328,8154.0,4.778603363939055,0.0
21.336,8158.0,4.695987621425957,0.0
21.344,8159.0,4.956665776639056,0.0
21.352,8163.0,5.380845491775517,0.0
21.36,8181.0,9.310523121398319,0.0
21.368,8169.0,11.448747737188114,0.0
21.376,8154.0,5.4614027018508295,0.0
21.384,8151.0,-2.5849312318262037,0.0
21.392,8156.0,-6.543012120503818,0.0
21.4,8159.0,-6.257410170643425,0.0
21.408,8477.0,60.44075619308023,0.0
21.416,8135.0,85.81918998910828,0.0
21.424,8135.0,17.945869819741574,0.0
21.432,8149.0,-22.054893980469842,0.0
21.44,8151.0,-39.09868430606912,0.0
21.448,8158.0,-41.41182434650227,0.0
21.456,8163.0,-34.049680287132105,0.0
21.464,8174.0,-21.264573802876612,0.0
21.472,8185.0,-5.984904386699554,0.0
21.48,8198.0,8.862068846837246,0.0
21.488,8220.0,23.44947895057112,0.0
21.496,8239.0,36.897565239245296,0.0
21.504,8253.0,45.99856209210884,0.0
21.512,8240.0,44.61125249538486,0.0
21.52,8203.0,26.8121662260221,0.0
21.528,8166.0,-2.8974859248319262,0.0
21.536,8146.0,-31.673579146015754,0.0
21.544,8141.0,-48.997145387510045,0.0
21.552,8142.0,-52.630931623114066,0.0
21.56,8147.0,-45.57467140459903,0.0
21.568,8152.0,-32.448944377029875,0.0
21.576,8154.0,-18.336662304142692,0.0
21.584,8155.0,-6.597725037265491,0.0
21.592,8153.0,1.140655276958796,0.0
21.6,8153.0,5.135582185013163,0.0
21.608,8151.0,6.310958846849644,0.0
21.616,8154.0,6.253559638825664,0.0
21.624,8155.0,6.088703684067923,0.0
21.632,8163.0,6.906796216560451,0.0
21.64,8164.0,8.182170379665422,0.0
21.648,8183.0,11.781927435572925,0.0
21.656,8172.0,13.758945151394983,0.0
21.664,8157.0,7.530310249138665,0.0
21.672,8154.0,-0.9723929185045108,0.0
21.68,8155.0,-6.262052958830509,0.0
21.688,8149.0,-9.462452165119203,0.0
21.696,8445.0,49.326695505558746,0.0
21.704,8176.0,82.13211350937695,0.0
21.712,8143.0,27.38213684300854,0.0
21.72,8154.0,-13.642982380930562,0.0
21.728,8158.0,-32.77222072792233,0.0
21.736,8167.0,-36.46065454561722,0.0
21.744,8174.0,-29.845309444416216,0.0
21.752,8184.0,-17.934990054477566,0.0
21.76,8195.0,-3.881773304911121,0.0
21.768,8207.0,9.716717522974704,0.0
21.776,8232.0,23.844804011731867,0.0
21.784,8254.0,38.187116072071376,1.0
21.792,8265.0,47.621445444643314,0.0
21.8,8263.0,47.81962647304226,0.0
21.808,8227.0,32.92337927217454,0.0
21.816,8186.0,3.3910268565775823,0.0
21.824,8163.0,-27.663730127519102,0.0
21.832,8155.0,-48.16863974893977,0.0
21.84,8153.0,-55.03528339452009,0.0
21.848,8158.0,-50.139304083231764,0.0
21.856,8161.0,-38.00771307876198,0.0
21.864,8163.0,-24.04918811165021,0.0
21.872,8162.0,-11.943697852188961,0.0
21.88,8164.0,-2.7694244740671365,0.0
21.888,8165.0,3.6890055890355598,0.0
21.896,8162.0,6.540612042011389,0.0
21.904,8165.0,7.235413409641751,0.0
21.912,8164.0,6.957945365707928,0.0
21.92,8171.0,6.964749522406919,0.0
21.928,8172.0,7.547241848041267,0.0
21.936,8189.0,10.424890738708655,0.0
21.944,8181.0,12.384898481365099,0.0
21.952,8165.0,6.763127251319702,0.0
21.96,8164.0,-1.0600629188611492,0.0
21.968,8163.0,-5.934568285869091,0.0
21.976,8153.0,-10.164901190460341,0.0
21.984,8449.0,47.304441655368464,0.0
21.992,8190.0,81.67893505790994,0.0
22.0,8149.0,28.33421584649045,0.0
22.008,8159.0,-13.842890268768087,0.0
22.016,8158.0,-34.84890831451821,0.0
22.024,8168.0,-40.14961949894837,0.0
22.032,8174.0,-33.92848194491398,0.0
22.04,8184.0,-21.83653992609152,0.0
22.048,8193.0,-7.492992489455901,0.0
22.056,8207.0,6.824702881424628,0.0
22.064,8230.0,21.81658930670028,0.0
22.072,8251.0,36.36435004179316,0.0
22.08,8265.0,46.60513591566996,0.0
22.088,8259.0,47.23003768568901,1.0
22.096,8221.0,31.449736101479175,0.0
22.104,8179.0,1.0050746069086927,0.0
22.112,8154.0,-30.840384411790183,0.0
22.12,8151.0,-50.71839315497664,0.0
22.128,8152.0,-55.19330934797813,0.0
22.136,8154.0,-48.858907764438754,0.0
22.144,8157.0,-36.68366186749563,0.0
22.152,8161.0,-22.491459612373546,0.0
22.16,8161.0,-9.871040544217522,0.0
22.168,8161.0,-0.9107792542863535,0.0
22.176,8161.0,4.526389385994662,0.0
22.184,8165.0,7.872871195311973,0.0
22.192,8162.0,8.862655644207507,0.0
22.2,8164.0,7.900028505456021,0.0
22.208,8171.0,7.9717022520967475,0.0
22.216,8175.0,9.052794899820128,0.0
22.224,8182.0,10.566949815473663,0.0
22.232,8186.0,12.107653284936305,0.0
22.24,8168.0,8.322948086226233,0.0
22.248,8168.0,1.1454076642155542,0.0
22.256,8167.0,-3.4773360544470506,0.0
22.264,8162.0,-6.909818823915202,0.0
22.272,8348.0,29.08627581692008,0.0
22.28,8253.0,64.55585912276842,0.0
22.288,8143.0,33.86341300683716,0.0
22.296,8165.0,-7.400614682645937,0.0
22.304,8172.0,-24.75734818676392,0.0
22.312,8179.0,-28.408374018798213,0.0
22.32,8188.0,-22.991726669281206,0.0
22.328,8196.0,-12.82939919829687,0.0
22.336,8207.0,-0.992611473955094,0.0
22.344,8219.0,10.857055846705407,0.0
22.352,8241.0,23.165099773670818,0.0
22.36,8269.0,37.14699532175064,0.0
22.368,8284.0,48.56887778894247,0.0
22.376,8284.0,51.02465746023313,0.0
22.384,8257.0,39.22493891404474,0.0
22.392,8212.0,11.589981739398127,0.0
22.4,8186.0,-21.015822933718482,0.0
22.408,8175.0,-44.67172574613528,0.0
22.416,8182.0,-52.70623006289111,0.0
22.424,8182.0,-48.036830305989724,0.0
22.432,8185.0,-37.379502039066665,0.0
22.44,8189.0,-23.97949618455823,0.0
22.448,8188.0,-11.806277677669186,0.0
22.456,8183.0,-4.042890216269598,0.0
22.464,8182.0,-0.0644907391963443,0.0
22.472,8179.0,1.480902412828982,0.0
22.48,8178.0,1.3531197924246499,0.0
22.488,8178.0,0.8680996050368321,0.0
22.496,8177.0,0.24534449480688636,0.0
22.504,8182.0,0.6570543251627896,0.0
22.512,8183.0,2.026726594674983,0.0
22.52,8200.0,6.2068876800635735,0.0
22.528,8180.0,7.125088146523694,0.0
22.536,8170.0,0.4588381958435548,0.0
22.544,8161.0,-7.434851983084172,0.0
22.552,8164.0,-12.201760969459656,0.0
22.56,8170.0,-11.33226468045791,0.0
22.568,8497.0,58.93223356901922,0.0
22.576,8158.0,89.10010989004059,0.0
22.584,8144.0,21.31452288354717,0.0
22.592,8145.0,-24.66120549115999,0.0
22.6,8146.0,-47.703643967444805,0.0
22.608,8148.0,-53.48556612755601,0.0
22.616,8153.0,-47.36583645054884,0.0
22.624,8164.0,-33.29660533252854,0.0
22.632,8174.0,-15.63760954961026,0.0
22.64,8191.0,2.692859885691405,0.0
22.648,8214.0,21.29723291835103,0.0
22.656,8231.0,37.2429495389847,1.0
22.664,8241.0,46.542871570198486,0.0
22.672,8230.0,44.78208060578186,0.0
22.68,8188.0,26.123316040485406,0.0
22.688,8152.0,-4.807513915567142,0.0
22.696,8131.0,-34.016226889153586,0.0
22.704,8127.0,-51.240470689764834,0.0
22.712,8132.0,-53.45389908122365,0.0
22.72,8134.0,-45.228569170461014,0.0
22.728,8138.0,-32.28113273532972,0.0
22.736,8136.0,-19.321237772023323,0.0
22.744,8140.0,-8.318847903886763,0.0
22.752,8137.0,-0.3465163165994909,0.0
22.76,8134.0,3.195038458822637,0.0
22.768,8137.0,4.80510257149399,0.0
22.776,8140.0,6.2545865124452575,0.0
22.784,8140.0,6.776442257281815,0.0
22.792,8149.0,7.896385671399003,0.0
22.8,8150.0,9.404541330620305,0.0
22.808,8169.0,12.95663911518136,0.0
22.816,8162.0,15.544574357396414,0.0
22.824,8147.0,10.223715906036887,0.0
22.832,8145.0,2.053818970069642,0.0
22.84,8151.0,-2.2720245098209944,0.0
22.848,8142.0,-5.09875795167477,0.0
22.856,8420.0,48.95947017625849,0.0
22.864,8208.0,86.99043800406002,0.0
22.872,8149.0,40.92758910356906,0.0
22.88,8148.0,-4.777058850709864,0.0
22.888,8156.0,-29.652348024414096,0.0
22.896,8162.0,-37.00769553096575,0.0
22.904,8171.0,-32.682320094017314,0.0
22.912,8178.0,-21.900461511517506,0.0
22.92,8191.0,-8.11770316817092,0.0
22.928,8208.0,7.393161740205642,0.0
22.936,8233.0,24.026005711618154,0.0
22.944,8253.0,39.413553252742986,0.0
22.952,8264.0,48.871489164068635,0.0
22.96,8259.0,48.28120720494735,1.0
22.968,8228.0,33.25728485450941,0.0
22.976,8187.0,4.6203056599160846,0.0
22.984,8162.0,-26.499903902335973,0.0
22.992,8153.0,-47.832874336401574,0.0
23.0,8150.0,-55.64873942977738,0.0
23.008,8154.0,-51.629722590572555,0.0
23.016,8157.0,-39.99510153280676,0.0
23.024,8162.0,-25.4162697522529,0.0
23.032,8163.0,-11.71516123143374,0.0
23.04,8162.0,-1.8361915176139973,0.0
23.048,8161.0,3.8760015435689184,0.0
23.056,8162.0,6.666535518547562,0.0
23.064,8165.0,8.123330535198647,0.0
23.072,8166.0,8.570487210933834,0.0
23.08,8170.0,8.557052030599607,0.0
23.088,8176.0,9.294764639339746,0.0
23.096,8180.0,10.364858873140747,0.0
23.104,8199.0,14.125194851269953,0.0
23.112,8183.0,14.820407556551118,0.0
23.12,8178.0,8.694289176183247,0.0
23.128,8179.0,2.9359527064470967,0.0
23.136,8179.0,-0.7103422489908553,0.0
23.144,8216.0,4.800071694208555,0.0
23.152,8472.0,67.19131540936951,0.0
23.16,8175.0,85.52606378110227,0.0
23.168,8180.0,23.74660227208483,0.0
23.176,8181.0,-15.164129665694645,0.0
23.184,8186.0,-34.65100639294474,0.0
23.192,8193.0,-38.470401700410775,0.0
23.2,8202.0,-31.627805617696367,0.0
23.208,8213.0,-18.69994043952306,0.0
23.216,8225.0,-3.5203716322769196,0.0
23.224,8241.0,11.710953307751652,0.0
23.232,8262.0,26.502345514660192,0.0
23.24,8283.0,39.812516701626464,0.0
23.248,8290.0,47.36850562096129,0.0
23.256,8274.0,42.816773027382396,0.0
23.264,8230.0,21.375308239983497,0.0
23.272,8197.0,-10.277051190026441,1.0
23.28,8182.0,-37.24452167595723,0.0
23.288,8179.0,-51.22374499941452,0.0
23.296,8184.0,-51.316308618205085,0.0
23.304,8187.0,-41.956485898227584,0.0
23.312,8189.0,-29.03849955636565,0.0
23.32,8189.0,-16.5876427939279,0.0
23.328,8187.0,-7.117945840376478,0.0
23.336,8192.0,0.1744844049819676,0.0
23.344,8187.0,4.46076173446545,0.0
23.352,8191.0,6.115054125041752,0.0
23.36,8188.0,6.370586357635375,0.0
23.368,8192.0,5.760152436165981,0.0
23.376,8197.0,6.364543140952719,0.0
23.384,8197.0,6.778543064991254,0.0
23.392,8219.0,10.490292933157662,0.0
23.4,8210.0,13.750874171357282,0.0
23.408,8195.0,8.69116192459137,0.0
23.416,8191.0,0.4994580479394699,0.0
23.424,8192.0,-5.033728328172401,0.0
23.432,8184.0,-8.972978769071233,0.0
23.44,8488.0,50.530808501004,0.0
23.448,8250.0,91.54403759063757,0.0
23.456,8186.0,40.22118808491791,0.0
23.464,8188.0,-8.895718471841974,0.0
23.472,8192.0,-35.36887516885554,0.0
23.48,8196.0,-44.02831085028379,0.0
23.488,8204.0,-40.02266533289344,0.0
23.496,8209.0,-28.92991399084167,0.0
23.504,8224.0,-13.897546214223667,0.0
23.512,8234.0,2.207123959378123,0.0
23.52,8252.0,17.117196386318483,0.0
23.528,8275.0,31.7161534206557,0.0
23.536,8286.0,42.48763734982572,0.0
23.544,8283.0,44.05065445819696,0.0
23.552,8248.0,30.532989709361118,0.0
23.56,8206.0,2.178339955782576,0.0
23.568,8180.0,-28.81327126468227,0.0
23.576,8166.0,-50.94525999932512,0.0
23.584,8168.0,-58.76178879494432,0.0
23.592,8168.0,-54.06688861530188,0.0
23.6,8179.0,-40.84584483069193,0.0
23.608,8178.0,-24.791220890575232,0.0
23.616,8175.0,-12.35510434776188,0.0
23.624,8172.0,-4.353030820084086,0.0
23.632,8171.0,0.22214982796276672,0.0
23.64,8169.0,2.2813211116133516,0.0
23.648,8171.0,3.1532364059830797,0.0
23.656,8172.0,3.8037202882496786,0.0
23.664,8176.0,4.6332306125309515,0.0
23.672,8179.0,5.851454971814292,0.0
23.68,8194.0,9.362176045722435,0.0
23.688,8188.0,11.85770172504408,0.0
23.696,8174.0,7.449767468098798,0.0
23.704,8167.0,-0.576867576126233,0.0
23.712,8167.0,-6.666452145087078,0.0
23.72,8155.0,-11.708719479005595,0.0
23.728,8419.0,38.568279732625115,0.0
23.736,8207.0,73.07825059623724,0.0
23.744,8147.0,26.838040894680944,0.0
23.752,8157.0,-14.792347887894493,0.0
23.76,8158.0,-34.922487573858234,0.0
23.768,8168.0,-39.285448607477065,0.0
23.776,8169.0,-33.662249789093494,0.0
23.784,8176.0,-23.598698284461307,0.0
23.792,8186.0,-10.596175295796911,0.0
23.8,8196.0,2.786017096238538,0.0
23.808,8218.0,16.815456916143148,0.0
23.816,8234.0,30.32645407084192,1.0
23.824,8243.0,38.82650772681177,0.0
23.832,8241.0,39.39697435688299,0.0
23.84,8214.0,27.836577143143813,0.0
23.848,8164.0,1.0482601551377684,0.0
23.856,8141.0,-29.867195134882877,0.0
23.864,8129.0,-50.77285395762692,0.0
23.872,8131.0,-57.48167040738804,0.0
23.88,8131.0,-52.32575202997532,0.0
23.888,8135.0,-40.52614547113353,0.0
23.896,8135.0,-26.586432305227163,0.0
23.904,8132.0,-14.924594443149772,0.0
23.912,8137.0,-5.356456429015907,0.0
23.92,8134.0,1.5228282865277833,0.0
23.928,8129.0,3.7259405888073616,0.0
23.936,8133.0,4.259660175724775,0.0
23.944,8140.0,6.176795365421185,0.0
23.952,8144.0,8.621419938291865,0.0
23.96,8159.0,12.641773516849753,0.0
23.968,8151.0,14.5328676833808,0.0
23.976,8141.0,9.770488539307507,0.0
23.984,8134.0,1.999589963412518,0.0
23.992,8137.0,-3.7164713810227568,0.0
24.0,8123.0,-8.78078877529424,0.0
24.008,8323.0,27.555406808747648,0.0
24.016,8153.0,50.99587278060994,0.0
24.024,8094.0,10.342060705751237,0.0
24.032,8120.0,-22.01044241054774,0.0
24.04,8130.0,-30.451786873285755,0.0
24.048,8133.0,-28.17122302943949,0.0
24.056,8140.0,-20.508403159421732,0.0
24.064,8145.0,-10.415698240289657,0.0
24.072,8160.0,1.2182700906812443,0.0
24.08,8170.0,13.021396263793577,0.0
24.088,8189.0,23.952272157363495,0.0
24.096,8218.0,36.59176652755764,0.0
24.104,8231.0,47.09963356575827,0.0
24.112,8225.0,47.60321419120555,1.0
24.12,8199.0,34.14619541069442,0.0
24.128,8157.0,7.118314368810388,0.0
24.136,8126.0,-24.8591105742355,0.0
24.144,8117.0,-48.173605352696086,0.0
24.152,8122.0,-55.47527523832355,0.0
24.16,8117.0,-51.38276424416358,0.0
24.168,8131.0,-39.333519016000764,0.0
24.176,8131.0,-23.38397795734045,0.0
24.184,8136.0,-9.384654477709319,0.0
24.192,8138.0,1.7474525092804924,0.0
24.2,8136.0,8.066027802575263,0.0
24.208,8142.0,11.397121089421262,0.0
24.216,8146.0,13.682194327867364,0.0
24.224,8150.0,14.593607310812104,0.0
24.232,8163.0,16.393166335921023,0.0
24.24,8167.0,18.44513907691703,0.0
24.248,8152.0,14.614862505014116,0.0
24.256,8153.0,7.273646052903587,0.0
24.264,8152.0,1.829292149961475,0.0
24.272,8154.0,-1.4635312303062165,0.0
24.28,8291.0,25.208801638154682,0.0
24.288,8242.0,55.139295983236934,0.0
24.296,8118.0,29.13633028535378,0.0
24.304,8154.0,-8.637664879410295,0.0
24.312,8159.0,-21.291237599159103,0.0
24.32,8164.0,-23.503528471371737,0.0
24.328,8171.0,-18.79685141491268,0.0
24.336,8179.0,-10.098993456040262,0.0
24.344,8182.0,-1.1766589200319686,0.0
24.352,8197.0,7.955805233540104,0.0
24.36,8218.0,19.505365173458586,0.0
24.368,8244.0,32.98065103210183,0.0
24.376,8254.0,43.30448656569456,0.0
24.384,8258.0,45.70472611393416,0.0
24.392,8228.0,34.88302644059627,0.0
24.4,8185.0,8.28045237130732,0.0
24.408,8159.0,-22.80443727054808,0.0
24.416,8146.0,-45.698300044136204,0.0
24.424,8150.0,-54.1479984790119,0.0
24.432,8147.0,-50.73135967512212,0.0
24.44,8152.0,-40.61069053764595,0.0
24.448,8161.0,-25.608071921826877,0.0
24.456,8156.0,-12.035858741048514,0.0
24.464,8162.0,-1.9801951667300273,0.0
24.472,8157.0,4.471229478104078,0.0
24.48,8162.0,7.60870021232472,0.0
24.488,8157.0,8.310626470838997,0.0
24.496,8163.0,7.670056260003321,0.0
24.504,8169.0,8.579962922652612,0.0
24.512,8186.0,12.516175529351358,0.0
24.52,8164.0,11.92494110963321,0.0
24.528,8160.0,4.455502788786589,0.0
24.536,8157.0,-2.0675233033261975,0.0
24.544,8165.0,-4.590265122098799,0.0
24.552,8208.0,5.033069938161589,0.0
24.56,8403.0,58.58481780090233,0.0
24.568,8131.0,65.64191984749868,0.0
24.576,8161.0,10.422589031411007,0.0
24.584,8168.0,-16.25508919939466,1.0
24.592,8170.0,-27.729053316439376,0.0
24.6,8184.0,-27.04187180859776,0.0
24.608,8191.0,-18.24528953328445,0.0
24.616,8202.0,-6.599389189300837,0.0
24.624,8215.0,6.191742154702752,0.0
24.632,8230.0,18.538078029780536,0.0
24.64,8249.0,29.97531729533671,0.0
24.648,8268.0,39.958101150168886,0.0
24.656,8283.0,46.75001131181216,0.0
24.664,8260.0,42.044475662542936,0.0
24.672,8217.0,19.403336452066924,0.0
24.68,8180.0,-13.27243672770578,0.0
24.688,8172.0,-39.77811414168377,0.0
24.696,8171.0,-51.261403862006546,0.0
24.704,8169.0,-50.89367105612746,0.0
24.712,8178.0,-41.53000745674717,0.0
24.72,8176.0,-28.265807142192898,0.0
24.728,8184.0,-14.910146000314398,0.0
24.736,8180.0,-3.9338725968191284,0.0
24.744,8182.0,2.7452972689500257,0.0
24.752,8183.0,6.892030319171681,0.0
24.76,8181.0,8.095187438193307,0.0
24.768,8188.0,8.60091072941077,0.0
24.776,8192.0,9.84330413021712,0.0
24.784,8208.0,13.171708933944274,0.0
24.792,8198.0,14.368940447177692,0.0
24.8,8185.0,8.199561256264133,0.0
24.808,8183.0,0.24333793935488757,0.0
24.816,8184.0,-4.703153141770372,0.0
24.824,8176.0,-8.345552052633366,0.0
24.832,8446.0,44.292439400680905,0.0
24.84,8194.0,72.38461898684727,0.0
24.848,8162.0,20.002490951825393,0.0
24.856,8183.0,-16.25613600532256,0.0
24.864,8187.0,-30.12728550702991,0.0
24.872,8195.0,-31.311398473317922,0.0
24.88,8197.0,-25.22149509468136,0.0
24.888,8209.0,-14.935848378607034,0.0
24.896,8215.0,-2.9110681211748215,0.0
24.904,8236.0,10.157841642999529,0.0
24.912,8254.0,24.314456788953976,0.0
24.92,8273.0,36.559427502564404,1.0
24.928,8292.0,46.02167358137376,0.0
24.936,8285.0,47.09181127405304,0.0
24.944,8247.0,31.391477411743836,0.0
24.952,8208.0,1.6158438739898884,0.0
24.96,8186.0,-28.700747998293537,0.0
24.968,8179.0,-48.203282191306016,0.0
24.976,8182.0,-53.246065512076484,0.0
24.984,8179.0,-48.15562723437506,0.0
24.992,8185.0,-37.23128646381588,0.0
25.0,8193.0,-22.265735315418624,0.0
25.008,8191.0,-8.813579805871314,0.0
25.016,8188.0,-0.5432586068452565,0.0
25.024,8187.0,3.61295683573735,0.0
25.032,8188.0,5.52316889480926,0.0
25.04,8191.0,6.632690857546777,0.0
25.048,8194.0,7.509071040168692,0.0
25.056,8201.0,8.931905275574309,0.0
25.064,8214.0,12.505201315442946,0.0
25.072,8209.0,14.356913172671966,0.0
25.08,8189.0,8.167814406398975,0.0
25.088,8190.0,-0.6124611349064253,0.0
25.096,8188.0,-5.916546101948143,0.0
25.104,8180.0,-10.199363225300885,0.0
25.112,8459.0,44.17965302682774,0.0
25.12,8202.0,74.13577485150631,0.0
25.128,8167.0,20.956076690240934,0.0
25.136,8183.0,-17.553213372661048,0.0
25.144,8183.0,-34.39745650446457,0.0
25.152,8188.0,-38.12254958619519,0.0
25.16,8192.0,-32.70702757912727,0.0
25.168,8203.0,-21.48101299019845,0.0
25.176,8214.0,-7.090573215065888,0.0
25.184,8226.0,7.193842695552803,0.0
25.192,8248.0,21.497179277040004,0.0
25.2,8271.0,35.8904599246041,0.0
25.208,8283.0,46.11173386470682,0.0
25.216,8278.0,46.59560105974265,0.0
25.224,8242.0,31.440982414346536,0.0
25.232,8202.0,2.1848792377834343,0.0
25.24,8182.0,-27.7064348888332,0.0
25.248,8169.0,-47.92541342511322,0.0
25.256,8173.0,-54.45553305563453,0.0
25.264,8175.0,-48.83552851817535,0.0
25.272,8177.0,-37.2906212505186,0.0
25.28,8182.0,-23.379178014885156,0.0
25.288,8184.0,-10.1773083071148,0.0
25.296,8185.0,-0.21384178671655718,0.0
25.304,8183.0,5.506656002312411,0.0
25.312,8181.0,7.237671619117236,0.0
25.32,8181.0,6.7554733054298595,0.0
25.328,8186.0,6.467596648026074,0.0
25.336,8189.0,6.951189469897145,0.0
25.344,8196.0,8.22631133869686,0.0
25.352,8211.0,12.227828546362844,0.0
25.36,8203.0,14.170541857715307,0.0
25.368,8189.0,8.676419765462697,0.0
25.376,8185.0,0.43434253199120576,0.0
25.384,8189.0,-4.505859810590664,0.0
25.392,8185.0,-6.744345799497978,0.0
25.4,8484.0,53.22308287550936,0.0
25.408,8190.0,81.639977871984,0.0
25.416,8169.0,21.713338789629006,0.0
25.424,8182.0,-18.653581816281303,0.0
25.432,8188.0,-35.81669327160762,0.0
25.44,8191.0,-38.6979882111616,0.0
25.448,8202.0,-31.674697964676625,0.0
25.456,8210.0,-18.837161946947617,0.0
25.464,8218.0,-5.120315026157641,0.0
25.472,8231.0,8.05842313496214,0.0
25.48,8250.0,21.168181469950696,0.0
25.488,8275.0,34.70116103683972,1.0
25.496,8284.0,44.38966526106469,0.0
25.504,8278.0,44.002335953954116,0.0
25.512,8241.0,28.31706108441267,0.0
25.52,8196.0,-2.0050529073357666,0.0
25.528,8175.0,-33.11736584948244,0.0
25.536,8161.0,-53.64668171952235,0.0
25.544,8162.0,-60.3101258305453,0.0
25.552,8160.0,-55.311449571959656,0.0
25.56,8160.0,-44.37797369980217,0.0
25.568,8162.0,-30.775107818285505,0.0
25.576,8158.0,-18.47312741187602,0.0
25.584,8156.0,-9.62281726369747,0.0
25.592,8156.0,-3.338427401461331,0.0
25.6,8152.0,0.06709210451117542,0.0
25.608,8153.0,1.4580362981373582,0.0
25.616,8154.0,2.4681845370489555,0.0
25.624,8157.0,3.5085819284479385,0.0
25.632,8157.0,4.204831269621309,0.0
25.64,8164.0,5.409195700173541,0.0
25.648,8173.0,8.570170112254573,0.0
25.656,8150.0,6.280014681391549,0.0
25.664,8145.0,-1.7469268969525729,0.0
25.672,8147.0,-6.8420946486851335,0.0
25.68,8143.0,-9.226627796551384,0.0
25.688,8268.0,15.482428651474265,0.0
25.696,8304.0,60.64043768184024,0.0
25.704,8120.0,47.91648165817196,0.0
25.712,8140.0,-0.3784843429725697,0.0
25.72,8144.0,-23.97944513991274,0.0
25.728,8149.0,-32.462740104046134,0.0
25.736,8160.0,-29.289198998651045,0.0
25.744,8165.0,-19.702970549584506,0.0
25.752,8174.0,-8.186276409687707,0.0
25.76,8184.0,3.7475293101165335,0.0
25.768,8202.0,15.957415741866953,0.0
25.776,8226.0,29.33962448961438,0.0
25.784,8242.0,40.977640271067,0.0
25.792,8243.0,45.120763687363706,1.0
25.8,8219.0,36.031240729828596,0.0
25.808,8177.0,11.70909604553708,0.0
25.816,8148.0,-18.95557591706097,0.0
25.824,8139.0,-41.98015463472257,0.0
25.832,8134.0,-52.0923771160185,0.0
25.84,8138.0,-50.37921040304309,0.0
25.848,8143.0,-39.88925606791804,0.0
25.856,8148.0,-25.594824073256632,0.0
25.864,8147.0,-12.443439822928212,0.0
25.872,8148.0,-2.7791605057145716,0.0
25.88,8147.0,3.3576318863590586,0.0
25.888,8151.0,7.0907666371274445,0.0
25.896,8148.0,8.427793280730612,0.0
25.904,8149.0,7.5321540463539804,0.0
25.912,8148.0,5.86051102069905,0.0
25.92,8155.0,5.2091863918844865,0.0
25.928,8159.0,6.281529003985497,0.0
25.936,8173.0,9.640771553466948,0.0
25.944,8178.0,14.047482958804494,0.0
25.952,8155.0,10.846425755984228,0.0
25.96,8151.0,1.7927573773049517,0.0
25.968,8155.0,-3.833370355124316,0.0
25.976,8148.0,-7.192371300830473,0.0
25.984,8337.0,29.094319484336438,0.0
25.992,8250.0,66.98185042324508,0.0
26.0,8135.0,37.96446810790417,0.0
26.008,8153.0,-4.7694053901338975,0.0
26.016,8159.0,-24.415829789893905,0.0
26.024,8169.0,-29.06415161429277,0.0
26.032,8174.0,-24.342180670888183,0.0
26.04,8180.0,-15.611743860346905,0.0
26.048,8196.0,-3.587035146980952,0.0
26.056,8204.0,8.971414413119646,0.0
26.064,8221.0,20.14580906773608,0.0
26.072,8244.0,31.872018171213313,0.0
26.08,8259.0,41.73813607135776,0.0
26.088,8263.0,45.12666351058624,0.0
26.096,8232.0,34.77277595620035,0.0
26.104,8192.0,8.872182126197686,0.0
26.112,8169.0,-20.661465828933842,0.0
26.12,8151.0,-43.37142824002376,0.0
26.128,8153.0,-53.49525530446772,0.0
26.136,8155.0,-50.55475450913127,0.0
26.144,8156.0,-40.53814720836999,0.0
26.152,8158.0,-27.855378083511823,0.0
26.16,8158.0,-15.723003575656776,0.0
26.168,8157.0,-6.3684451893498135,0.0
26.176,8153.0,-0.8921474426499572,0.0
26.184,8158.0,2.686086923564517,0.0
26.192,8154.0,4.5993071702012,0.0
26.2,8154.0,4.216269917929594,0.0
26.208,8156.0,3.759107680830539,0.0
26.216,8165.0,5.166126659855308,0.0
26.224,8161.0,6.236493706074498,0.0
26.232,8177.0,8.375590846084833,0.0
26.24,8176.0,11.435323299356469,0.0
26.248,8156.0,7.220796728939604,0.0
26.256,8155.0,-0.6567426616184093,0.0
26.264,8153.0,-5.828839003834901,0.0
26.272,8144.0,-10.251196527684897,0.0
26.28,8368.0,32.612308141275435,0.0
26.288,8224.0,69.36136922904257,0.0
26.296,8135.0,32.97660902976804,0.0
26.304,8149.0,-8.863483158059125,0.0
26.312,8151.0,-28.995022844901314,0.0
26.32,8157.0,-34.87038792720591,0.0
26.328,8163.0,-30.606696857738598,0.0
26.336,8172.0,-20.380308114954914,0.0
26.344,8178.0,-8.178031038576819,0.0
26.352,8193.0,4.56857885262616,0.0
26.36,8211.0,18.15617965097431,0.0
26.368,8233.0,31.61120619355779,1.0
26.376,8250.0,42.74358687565996,0.0
26.384,8249.0,46.115639353933375,0.0
26.392,8223.0,35.60206812359934,0.0
26.4,8180.0,9.889908798391616,0.0
26.408,8154.0,-20.912403623271985,0.0
26.416,8146.0,-42.904501206687655,0.0
26.424,8147.0,-50.83586842642876,0.0
26.432,8151.0,-46.797644109833755,0.0
26.44,8153.0,-36.088564738887726,0.0
26.448,8157.0,-23.05797552332683,0.0
26.456,8154.0,-11.651544465677034,0.0
26.464,8155.0,-3.54788992175736,0.0
26.472,8157.0,2.3954024782856322,0.0
26.48,8159.0,6.364287812983093,0.0
26.488,8159.0,8.155180552276533,0.0
26.496,8161.0,8.386491583258703,0.0
