Time_Seconds,ECG_Raw,ECG_Filtered,R_Peak_Marker
0.0,8225.0,22.74759012605955,0.0
0.008,8195.5,49.472390070472784,0.0
0.016,8164.0,45.31444413611257,0.0
0.024,8160.0,28.73255790386088,0.0
0.032,8164.0,14.569862800847886,0.0
0.04,8175.0,7.049617454481449,0.0
0.048,8170.0,2.7591564842612115,0.0
0.056,8169.5,-1.320190284562159,0.0
0.064,8180.0,-1.4895445654597097,0.0
0.072,8179.5,0.6791403729389458,0.0
0.08,8180.0,1.8587313734610689,0.0
0.088,8175.5,1.4573306335939833,0.0
0.096,8173.5,-0.32896098577975863,0.0
0.104,8184.0,0.40106047028189096,0.0
0.112,8189.5,4.040801643486475,0.0
0.12,8180.0,4.763502050998341,0.0
0.128,8169.0,0.28053584560734635,0.0
0.136,8159.0,-6.703532833437066,0.0
0.144,8136.0,-16.55949203568275,0.0
0.152,8143.5,-23.044338383896502,0.0
0.16,8336.0,17.47449273894358,0.0
0.168,8114.5,32.86319940200883,0.0
0.176,8069.0,-17.566713864650865,0.0
0.184,8161.0,-35.22757193171469,0.0
0.192,8164.5,-20.82052984369716,0.0
0.2,8155.5,-10.267245359108301,0.0
0.208,8153.5,-4.71672379479287,0.0
0.216,8163.0,0.8132126910099942,0.0
0.224,8187.5,10.906543395576364,0.0
0.232,8235.5,30.03397158230746,0.0
0.24,8252.0,49.9697996488012,0.0
0.248,8229.0,52.855848699271974,0.0
0.256,8189.0,33.67813087352647,0.0
0.264,8160.0,3.1337011317593806,0.0
0.272,8161.5,-21.023603010344004,0.0
0.28,8159.5,-32.22491689851381,0.0
0.288,8145.0,-37.334641298723454,0.0
0.296,8152.0,-36.22840776808857,0.0
0.304,8155.0,-28.038520600169704,0.0
0.312,8166.0,-16.083852615834985,0.0
0.32,8185.5,-0.34420463534979717,0.0
0.328,8194.5,14.838956210003516,1.0
0.336,8201.0,24.73515436699313,0.0
0.344,8187.5,25.407502509321148,0.0
0.352,8177.5,17.151981444048715,0.0
0.36,8165.5,5.174618921648289,0.0
0.368,8195.0,0.8819575900502059,0.0
0.376,8200.5,5.360098425122715,0.0
0.384,8201.0,8.421614289101171,0.0
0.392,8192.5,7.320966998923723,0.0
0.4,8185.0,2.291287807371191,0.0
0.408,8172.5,-5.116658937335387,0.0
0.416,8292.5,13.24037807210857,0.0
0.424,8282.5,44.56239257093944,0.0
0.432,8085.5,14.039724973199782,0.0
0.44,8188.5,-25.344195832078867,0.0
0.448,8197.5,-21.911610108691548,0.0
0.456,8187.5,-16.763826669591026,0.0
0.464,8188.5,-13.0165494545804,0.0
0.472,8214.0,-3.4129815056389816,0.0
0.48,8239.0,13.101192655367413,0.0
0.488,8241.0,26.397474838904145,0.0
0.496,8249.0,32.30171367756202,0.0
0.504,8244.5,31.611202612175248,0.0
0.512,8213.0,19.055374393724605,0.0
0.52,8180.0,-4.436544560154289,0.0
0.528,8156.0,-29.302141163854685,0.0
0.536,8156.5,-44.36613290546279,0.0
0.544,8155.0,-46.75282418837355,0.0
0.552,8153.0,-41.79108237083278,0.0
0.56,8161.5,-31.192739714631898,0.0
0.568,8180.5,-14.577437148565195,0.0
0.576,8185.5,2.362156716309073,0.0
0.584,8173.5,10.59196799142751,0.0
0.592,8179.5,12.62739249656238,0.0
0.6,8172.5,11.712376619445422,0.0
0.608,8161.0,5.6159379464427275,0.0
0.616,8150.5,-3.335546449031426,0.0
0.624,8163.5,-7.61297928964018,0.0
0.632,8210.0,3.1674705459643064,0.0
0.64,8199.0,16.315464146827026,0.0
0.648,8179.5,15.386373801648233,0.0
0.656,8164.0,5.353626571738005,0.0
0.664,8162.5,-4.864510592799434,0.0
0.672,8162.5,-10.476434078748298,0.0
0.68,8297.0,15.271495556500895,0.0
0.688,8294.0,55.048998107187344,0.0
0.696,8087.5,27.426246965193286,0.0
0.704,8162.0,-20.035654093793937,0.0
0.712,8196.5,-22.798112634735162,0.0
0.72,8209.5,-11.271073935086633,0.0
0.728,8218.0,1.647293317222875,0.0
0.736,8241.5,15.575071679948906,1.0
0.744,8260.0,30.03120675633204,0.0
0.752,8272.5,40.360781344655834,0.0
0.76,8286.0,45.66232530945604,0.0
0.768,8278.0,42.99835671287428,0.0
0.776,8244.5,26.425347460647117,0.0
0.784,8210.0,-1.2747535271471406,0.0
0.792,8189.5,-28.699825240209066,0.0
0.8,8173.5,-48.024715261288975,0.0
0.808,8161.5,-57.89273274914967,0.0
0.816,8160.0,-57.70950153108879,0.0
0.824,8180.5,-44.969981624504044,0.0
0.832,8188.5,-24.795297045381403,0.0
0.84,8198.0,-5.5294977173568896,0.0
0.848,8213.0,11.707971560208534,0.0
0.856,8195.0,19.514213317117537,0.0
0.864,8193.0,17.086210262430086,0.0
0.872,8207.5,15.613582410060872,0.0
0.88,8208.5,15.542132114752349,0.0
0.888,8221.0,15.901566976237063,0.0
0.896,8230.0,18.09573863591345,0.0
0.904,8238.0,20.12295458149083,0.0
0.912,8217.5,15.71720901059939,0.0
0.92,8205.0,3.986816737737854,0.0
0.928,8193.5,-8.458186172628302,0.0
0.936,8185.5,-18.519645591102062,0.0
0.944,8232.5,-13.694447088422066,0.0
0.952,8532.0,62.025642791905966,0.0
0.96,8103.0,70.94560280288147,0.0
0.968,8188.5,-4.712671488566684,0.0
0.976,8211.5,-26.575714114127322,0.0
0.984,8241.0,-24.750496258299563,0.0
0.992,8264.5,-9.090654364958255,0.0
1.0,8262.0,5.839118127256825,0.0
1.008,8265.0,13.885432148113296,0.0
1.016,8285.0,21.237732543834,0.0
1.024,8309.5,31.457366625593522,0.0
1.032,8292.0,34.162039056970116,0.0
1.04,8247.0,17.813408003490167,0.0
1.048,8184.0,-16.62035738699501,0.0
1.056,8153.0,-53.66886459783882,1.0
1.064,8151.0,-74.18438453408339,0.0
1.072,8162.5,-73.12914304296214,0.0
1.08,8164.5,-58.6597725736317,0.0
1.088,8179.5,-37.73598280803594,0.0
1.096,8208.5,-10.651231357110191,0.0
1.104,8214.5,14.132027244789242,0.0
1.112,8214.5,27.872028332764103,0.0
1.12,8209.0,30.64845930881711,0.0
1.128,8218.0,28.358820706434926,0.0
1.136,8216.0,24.135306030148058,0.0
1.144,8200.5,14.403064713648519,0.0
1.152,8217.5,6.770209863340142,0.0
1.16,8202.5,1.6383100097325496,0.0
1.168,8187.5,-7.774098967467808,0.0
1.176,8194.0,-13.898493961007034,0.0
1.184,8192.5,-14.39177120703198,0.0
1.192,8187.5,-13.82948752721245,0.0
1.2,8246.0,-0.4701462407913368,0.0
1.208,8516.0,74.61464667388009,0.0
1.216,8070.0,71.7502631942939,0.0
1.224,8178.0,-9.875593889270249,0.0
1.232,8207.0,-28.66252167101402,0.0
1.24,8201.5,-30.626433815346672,0.0
1.248,8198.0,-28.983266773842843,0.0
1.256,8194.0,-25.14955133058561,0.0
1.264,8231.0,-12.327402302060136,0.0
1.272,8280.0,14.69444607977016,0.0
1.28,8302.0,42.95262971869488,0.0
1.288,8297.0,56.62546129389011,0.0
1.296,8250.0,45.50282017361337,0.0
1.304,8206.5,13.536919323119719,0.0
1.312,8168.0,-24.172686085514897,0.0
1.32,8153.5,-53.637163711834546,0.0
1.328,8150.0,-66.60779491882158,0.0
1.336,8147.0,-65.5080322762658,0.0
1.344,8161.5,-52.57638406777323,0.0
1.352,8165.5,-33.17786297829048,0.0
1.36,8161.5,-16.6754539448998,0.0
1.368,8165.5,-4.387760802133698,0.0
1.376,8179.5,7.22181183082057,0.0
1.384,8183.5,16.670196867801224,0.0
1.392,8178.5,19.52625676639923,0.0
1.4,8184.5,18.459215702818938,0.0
1.408,8204.0,20.239205413217178,0.0
1.416,8177.5,16.793280189816414,0.0
1.424,8177.5,6.795334353907265,0.0
1.432,8177.0,-0.24983763957129668,0.0
1.44,8181.5,-3.5612591095286916,0.0
1.448,8184.5,-3.447443209171979,0.0
1.456,8213.0,3.578016374429808,1.0
1.464,8605.5,93.20103910502735,0.0
1.472,8082.0,105.31016138783548,0.0
1.48,8172.0,7.940805516689807,0.0
1.488,8196.0,-27.556896897509205,0.0
1.496,8198.0,-39.060407315207385,0.0
1.504,8208.5,-37.387785310381105,0.0
1.512,8223.0,-25.62264924797796,0.0
1.52,8252.0,-5.892985257406281,0.0
1.528,8269.0,16.066389540804494,0.0
1.536,8290.0,34.38070462407563,0.0
1.544,8286.5,43.57450416389588,0.0
1.552,8260.5,36.37841857630201,0.0
1.56,8200.5,9.037396885637236,0.0
1.568,8155.5,-29.953800859849707,0.0
1.576,8141.0,-60.627680202286456,0.0
1.584,8139.5,-72.84510312944667,0.0
1.592,8139.5,-69.33274068381638,0.0
1.6,8139.0,-56.8460238813791,0.0
1.608,8138.5,-41.04717277346231,0.0
1.616,8145.0,-24.254717436824876,0.0
1.624,8139.0,-10.544235169339345,0.0
1.632,8145.0,-0.8372480492012073,0.0
1.64,8151.0,7.481994709000446,0.0
1.648,8155.5,13.412781104846772,0.0
1.656,8171.5,19.07486936712803,0.0
1.664,8175.0,23.515309759033016,0.0
1.672,8166.0,21.45252583087381,0.0
1.68,8156.0,13.098427024515559,0.0
1.688,8137.0,0.2472267144671605,0.0
1.696,8128.0,-13.110857530853991,0.0
1.704,8129.5,-20.555301958327846,0.0
1.712,8134.5,-20.51355236105701,0.0
1.72,8152.5,-12.679846090077717,0.0
1.728,8552.5,79.27315377490049,0.0
1.736,8009.5,92.42024261562733,0.0
1.744,8082.0,-9.94012821180604,0.0
1.752,8127.5,-44.86134473542347,0.0
1.76,8123.0,-50.33585143853088,0.0
1.768,8132.5,-44.92045234008242,0.0
1.776,8150.0,-29.39120119292852,0.0
1.784,8172.0,-7.681292087107067,0.0
1.792,8193.0,15.107422358340273,0.0
1.8,8208.5,33.75114704929092,1.0
1.808,8232.5,47.72982538193651,0.0
1.816,8230.0,53.15285551950706,0.0
1.824,8198.5,41.35519829125201,0.0
1.832,8178.5,17.586654608746585,0.0
1.84,8172.5,-4.448188794330008,0.0
1.848,8180.5,-16.39655928236266,0.0
1.856,8180.5,-19.342487372960022,0.0
1.864,8190.0,-16.211297163980817,0.0
1.872,8183.0,-11.390940376071057,0.0
1.88,8186.0,-7.6303916020879115,0.0
1.888,8201.0,-0.5721369874027005,0.0
1.896,8194.5,5.425402882525532,0.0
1.904,8193.0,6.515376364070107,0.0
1.912,8193.5,5.967876098969327,0.0
1.92,8213.0,8.82530137254139,0.0
1.928,8215.0,13.569625833760483,0.0
1.936,8216.5,15.0331489385851,0.0
1.944,8207.5,12.087215085320622,0.0
1.952,8188.0,2.6898566905720145,0.0
1.96,8192.0,-6.4422023721849655,0.0
1.968,8193.5,-9.742518593152681,0.0
1.976,8191.0,-10.421540175363361,0.0
1.984,8277.5,7.918185322516592,0.0
1.992,8518.0,84.37014793629623,0.0
2.0,8096.5,79.81375310117733,0.0
2.008,8181.0,-3.830976131357829,0.0
2.016,8205.5,-30.448720053672332,0.0
2.024,8220.0,-33.60629241884317,0.0
2.032,8239.0,-23.53448729434558,0.0
2.04,8253.5,-7.1658546715596,0.0
2.048,8255.5,6.971919427346847,0.0
2.056,8280.0,19.689922287814397,0.0
2.064,8309.0,35.156197684375456,0.0
2.072,8332.0,49.59647578566205,0.0
2.08,8306.0,50.004118835896406,0.0
2.088,8241.5,24.174759026856236,0.0
2.096,8196.0,-17.238951269503787,0.0
2.104,8166.5,-54.43988459469233,0.0
2.112,8163.5,-74.82650293928464,0.0
2.12,8192.0,-70.32886334110822,0.0
2.128,8194.0,-50.77510574912412,0.0
2.136,8197.5,-30.38928585780627,0.0
2.144,8182.0,-16.177381038631665,0.0
2.152,8170.0,-10.938074711863464,0.0
2.16,8165.5,-9.55217995511407,0.0
2.168,8171.0,-7.080040026375855,0.0
2.176,8178.0,-1.9908426072856855,0.0
2.184,8183.0,3.772345486033146,0.0
2.192,8185.5,8.14100950302236,0.0
2.2,8192.5,11.43121489850546,0.0
2.208,8185.5,11.643929838522354,0.0
2.216,8167.5,4.896851293540749,0.0
2.224,8161.5,-4.73900007387806,0.0
2.232,8167.5,-9.719138339045685,0.0
2.24,8170.5,-9.35214038832919,0.0
2.248,8167.0,-7.8193539468613835,0.0
2.256,8559.5,73.74566043434197,0.0
2.264,8074.0,91.80238623465698,0.0
2.272,8125.0,-0.20592939389121057,0.0
2.28,8176.0,-33.74959016623416,1.0
2.288,8168.0,-39.68548417044872,0.0
2.296,8181.5,-36.05551973823367,0.0
2.304,8204.0,-21.08749270994258,0.0
2.312,8232.0,1.278878225910148,0.0
2.32,8256.0,24.936062953525152,0.0
2.328,8276.0,44.135517793527924,0.0
2.336,8295.0,56.76631043154066,0.0
2.344,8283.0,57.05980344365935,0.0
2.352,8225.5,34.383527732459015,0.0
2.36,8165.0,-8.347630255700778,0.0
2.368,8136.5,-50.53594072822875,0.0
2.376,8139.0,-73.13601430786093,0.0
2.384,8149.5,-72.75746682049612,0.0
2.392,8152.0,-58.846792983935075,0.0
2.4,8166.0,-38.32721139634987,0.0
2.408,8158.5,-19.05315167424328,0.0
2.416,8160.0,-5.9916267884598255,0.0
2.424,8150.0,0.9047818323324464,0.0
2.432,8157.0,4.233228442996733,0.0
2.44,8172.0,10.054477017119098,0.0
2.448,8173.5,15.343740034363691,0.0
2.456,8183.5,18.494968843719334,0.0
2.464,8176.5,18.167447257802678,0.0
2.472,8161.0,10.622583541851554,0.0
2.48,8160.0,1.1790909294388712,0.0
2.488,8165.0,-3.7673358380634454,0.0
2.496,8161.0,-5.917171068689186,0.0
2.504,8152.5,-8.845227406439108,0.0
2.512,8488.0,57.57053532800683,0.0
2.52,8083.0,73.92142793930543,0.0
2.528,8121.0,-2.5944446497574063,0.0
2.536,8182.0,-27.226675516737032,0.0
2.544,8171.5,-27.34905923795941,0.0
2.552,8184.5,-22.7642445138506,0.0
2.56,8192.5,-12.311147168814387,0.0
2.568,8211.0,1.1512844370874973,0.0
2.576,8235.5,17.723331429741393,0.0
2.584,8265.0,35.86919097113196,1.0
2.592,8278.0,49.84521468918592,0.0
2.6,8268.5,51.268542066741475,0.0
2.608,8210.0,30.444923354796856,0.0
2.616,8156.0,-9.469782891783325,0.0
2.624,8147.5,-44.40834501866061,0.0
2.632,8144.5,-60.687583262734506,0.0
2.64,8151.5,-60.29694067830292,0.0
2.648,8142.0,-51.43493943855742,0.0
2.656,8137.0,-41.35818453787715,0.0
2.664,8156.5,-26.166057403692548,0.0
2.672,8163.0,-7.902553877754144,0.0
2.68,8166.5,6.13958068670695,0.0
2.688,8168.0,14.534747139286992,0.0
2.696,8169.5,17.90889798517219,0.0
2.704,8177.0,19.027872329777665,0.0
2.712,8183.5,19.664993412488457,0.0
2.72,8166.0,14.813031586611714,0.0
2.728,8146.5,2.1386284288926163,0.0
2.736,8140.0,-10.993055448422183,0.0
2.744,8159.0,-14.538674378609812,0.0
2.752,8166.5,-9.017341082024586,0.0
2.76,8252.5,14.717228743144915,0.0
2.768,8376.5,69.4256817201242,0.0
2.776,8048.0,49.47489923606554,0.0
2.784,8149.0,-16.303376862217647,0.0
2.792,8166.5,-28.523108856296858,0.0
2.8,8174.0,-26.317877630302974,0.0
2.808,8185.5,-17.14189096600694,0.0
2.816,8204.0,-2.9872898469957363,0.0
2.824,8216.5,12.169951874009257,0.0
2.832,8245.5,27.76729549625111,0.0
2.84,8275.0,44.733287274497116,0.0
2.848,8278.0,54.624629272853326,0.0
2.856,8239.5,44.93993480310792,0.0
2.864,8186.5,13.705472473008967,0.0
2.872,8159.5,-23.18851439894911,0.0
2.88,8155.5,-47.825230477027844,0.0
2.888,8145.0,-58.106836257771874,0.0
2.896,8140.0,-58.54434150380894,0.0
2.904,8145.0,-49.927068186575525,0.0
2.912,8149.0,-35.42258668467048,0.0
2.92,8160.5,-18.307515208982522,0.0
2.928,8155.0,-4.1842498104517745,0.0
2.936,8148.0,2.2488474188030523,0.0
2.944,8163.0,7.346825296081079,0.0
2.952,8176.0,14.96831865564991,0.0
2.96,8184.0,21.49660078768079,0.0
2.968,8171.0,21.07677354259704,0.0
2.976,8145.5,9.767419018259488,0.0
2.984,8139.0,-4.9393969930588355,0.0
2.992,8155.5,-10.84510460730371,0.0
3.0,8180.0,-4.317150689549408,0.0
3.008,8186.0,6.429176638482886,0.0
3.016,8507.5,78.71831779721674,0.0
3.024,8049.0,81.54615764592768,0.0
3.032,8130.0,-6.26838372977727,1.0
3.04,8186.0,-29.262184837008135,0.0
3.048,8187.5,-26.67689089029932,0.0
3.056,8188.0,-20.694819124830246,0.0
3.064,8206.5,-10.137737233032794,0.0
3.072,8226.5,5.508285953950235,0.0
3.08,8243.5,21.485327604282247,0.0
3.088,8267.5,36.05302822656972,0.0
3.096,8290.5,48.80441647032967,0.0
3.104,8269.0,49.25269209373323,0.0
3.112,8204.5,24.480641194385953,0.0
3.12,8144.5,-19.316515655284775,0.0
3.128,8140.0,-55.46687340423978,0.0
3.136,8148.0,-67.72164978465662,0.0
3.144,8151.0,-62.454393807556016,0.0
3.152,8157.5,-47.929666195538175,0.0
3.16,8157.5,-30.74510774160035,0.0
3.168,8153.0,-16.840220679122467,0.0
3.176,8142.5,-9.128229530454519,0.0
3.184,8142.5,-5.328581992659792,0.0
3.192,8150.0,-0.7413445948018307,0.0
3.2,8153.5,4.331245698084331,0.0
3.208,8168.5,10.454064512610557,0.0
3.216,8171.5,16.167544728474923,0.0
3.224,8159.5,15.256589476191266,0.0
3.232,8136.5,5.2542441459668225,0.0
3.24,8143.5,-4.726545012112183,0.0
3.248,8141.5,-8.891063130887233,0.0
3.256,8143.0,-10.108112576797794,0.0
3.264,8143.0,-8.988913198765204,0.0
3.272,8407.0,46.97122242487785,0.0
3.28,8073.5,58.74565534480644,0.0
3.288,8099.0,-6.122153075131564,0.0
3.296,8161.5,-25.5782048263045,0.0
3.304,8160.0,-20.744173711084613,0.0
3.312,8168.0,-13.412318733105849,0.0
3.32,8170.5,-4.897647299409982,0.0
3.328,8193.0,5.987977096525356,0.0
3.336,8215.0,20.60925609284436,0.0
3.344,8237.5,35.2230365835303,0.0
3.352,8259.0,47.51461044246116,0.0
3.36,8250.0,50.13381148204371,0.0
3.368,8203.0,32.641078924307976,0.0
3.376,8156.5,-1.754994186866952,1.0
3.384,8139.0,-34.90595004089482,0.0
3.392,8132.0,-54.224586838039386,0.0
3.4,8121.0,-61.10592422552577,0.0
3.408,8135.5,-55.19610355220766,0.0
3.416,8137.0,-40.063851355963834,0.0
3.424,8137.0,-24.734058359585333,0.0
3.432,8130.0,-13.3481746292573,0.0
3.44,8147.0,-2.547832690312589,0.0
3.448,8144.5,7.188115188406755,0.0
3.456,8155.0,13.49054220031644,0.0
3.464,8171.5,20.688583968278408,0.0
3.472,8186.5,28.244336441903215,0.0
3.48,8198.5,33.946743468669865,0.0
3.488,8173.0,29.414349455971205,0.0
3.496,8147.5,11.854994500682096,0.0
3.504,8139.5,-7.171013781970942,0.0
3.512,8148.0,-17.233602969688036,0.0
3.52,8142.0,-20.061031938809947,0.0
3.528,8380.5,28.808262111714384,0.0
3.536,8044.5,33.4224791043257,0.0
3.544,8075.5,-31.227674318334493,0.0
3.552,8139.0,-45.420756552207195,0.0
3.56,8154.5,-30.78843405093653,0.0
3.568,8163.5,-12.461642438644276,0.0
3.576,8179.5,5.373644599158524,0.0
3.584,8200.5,22.66582650026544,0.0
3.592,8199.0,33.439853609648026,0.0
3.6,8224.0,39.54278833753074,0.0
3.608,8241.0,45.73753504074898,0.0
3.616,8233.5,44.40760568533415,0.0
3.624,8201.5,28.818487911380316,0.0
3.632,8162.0,0.6223774970451359,0.0
3.64,8138.5,-29.018067423554385,0.0
3.648,8116.5,-51.44358365465109,0.0
3.656,8138.5,-56.90654248806368,0.0
3.664,8143.5,-45.99350154383319,0.0
3.672,8138.0,-32.66853981576128,0.0
3.68,8136.5,-21.26534894915858,0.0
3.688,8145.5,-9.765186582062597,0.0
3.696,8167.5,4.849833584918542,0.0
3.704,8168.5,17.456759359899024,0.0
3.712,8150.5,18.792709697004057,0.0
3.72,8149.5,12.851876252927468,0.0
3.728,8163.5,10.045891727360868,0.0
3.736,8163.5,9.723572882823419,0.0
3.744,8151.5,5.607135736980126,0.0
3.752,8154.5,0.48386621519102846,0.0
3.76,8170.0,1.16017848626052,0.0
3.768,8184.5,7.513276424758715,0.0
3.776,8178.5,11.867943689677304,0.0
3.784,8394.0,55.444989075653666,0.0
3.792,8110.5,58.91781103612152,0.0
3.8,8113.5,-5.267384585782338,0.0
3.808,8190.5,-26.08373984017703,0.0
3.816,8200.5,-16.665723467187263,0.0
3.824,8200.0,-6.628345888870626,0.0
3.832,8218.0,3.8879425628219906,0.0
3.84,8240.5,17.791983616410334,0.0
3.848,8258.0,31.48936882187695,0.0
3.856,8273.0,41.455596643354966,0.0
3.864,8295.0,48.62358007465468,0.0
3.872,8282.0,47.32951241110686,0.0
3.88,8236.0,27.334741560475322,0.0
3.888,8189.5,-7.53222867039517,1.0
3.896,8169.0,-40.6986778384628,0.0
3.904,8177.5,-56.59447114382351,0.0
3.912,8182.0,-54.75891654624252,0.0
3.92,8172.0,-46.49492902323664,0.0
3.928,8177.0,-35.57994450613478,0.0
3.936,8174.0,-23.321899454563663,0.0
3.944,8170.5,-13.86459194093868,0.0
3.952,8174.5,-6.067369667984849,0.0
3.96,8176.0,0.5874341210808325,0.0
3.968,8166.0,2.6974551577509374,0.0
3.976,8162.5,0.7782909509510318,0.0
3.984,8164.5,-0.7811489281652939,0.0
3.992,8195.0,5.05480908575646,0.0
4.0,8191.0,13.1537881562856,0.0
4.008,8175.5,11.965375407898364,0.0
4.016,8177.5,6.6903967948562695,0.0
4.024,8178.0,3.0671920761756155,0.0
4.032,8181.0,1.1744651415524459,0.0
4.04,8230.0,10.500689638155109,0.0
4.048,8508.5,81.33269489482427,0.0
4.056,8081.5,80.55295706711217,0.0
4.064,8175.5,-0.15313218664960004,0.0
4.072,8202.0,-23.241114344053585,0.0
4.08,8218.0,-24.688896635922447,0.0
4.088,8232.5,-15.570809410656693,0.0
4.096,8248.0,-1.6886444324429704,0.0
4.104,8274.5,15.357898097964608,0.0
4.112,8282.5,30.159135057697313,0.0
4.12,8299.5,39.44760194461196,0.0
4.128,8304.0,43.35253159755257,0.0
4.136,8286.5,36.43323434015065,0.0
4.144,8242.5,14.252964290188856,0.0
4.152,8196.5,-19.4124026588338,0.0
4.16,8189.5,-47.20683948282931,0.0
4.168,8183.0,-59.245370656469504,0.0
4.176,8178.0,-59.73210013269454,0.0
4.184,8174.5,-52.7004167227808,0.0
4.192,8181.0,-39.93898305063158,0.0
4.2,8187.0,-23.782910662534732,0.0
4.208,8187.0,-9.3966611639637,0.0
4.216,8185.0,0.1273861693953222,0.0
4.224,8188.5,6.047030050565354,0.0
4.232,8179.5,7.507442017494668,0.0
4.24,8180.5,5.598503828965249,0.0
4.248,8191.0,5.970221148544624,0.0
4.256,8198.0,8.860162588328421,0.0
4.264,8176.5,6.263602010032855,0.0
4.272,8170.0,-1.9420587126587634,0.0
4.28,8169.0,-8.032690094579266,0.0
4.288,8169.5,-10.51897923300885,0.0
4.296,8165.5,-11.109618003429432,0.0
4.304,8337.0,24.44581649314955,0.0
4.312,8258.0,60.66479375962285,0.0
4.32,8077.5,19.87107450932308,0.0
4.328,8175.0,-24.22392166296254,0.0
4.336,8193.0,-23.03225204705359,0.0
4.344,8192.5,-15.260274904663902,0.0
4.352,8205.0,-5.898692744163554,0.0
4.36,8222.5,6.661067686124397,0.0
4.368,8250.5,22.374680319289155,0.0
4.376,8270.5,38.081858856170356,0.0
4.384,8285.0,48.64577748563124,0.0
4.392,8286.0,50.684650268176256,0.0
4.4,8255.0,38.07702030597693,0.0
4.408,8200.0,7.278092122029193,1.0
4.416,8172.0,-28.996756320205805,0.0
4.424,8165.5,-53.10176980402639,0.0
4.432,8163.0,-61.14528736998318,0.0
4.44,8167.5,-56.223261457370654,0.0
4.448,8169.5,-43.460318022529236,0.0
4.456,8170.5,-28.710334648399567,0.0
4.464,8177.0,-14.102137001191295,0.0
4.472,8179.0,-1.588265565603706,0.0
4.48,8168.5,4.316660171269177,0.0
4.488,8173.5,6.030712349999021,0.0
4.496,8177.0,7.86662981366112,0.0
4.504,8173.0,7.657564029531159,0.0
4.512,8190.5,9.13100690479746,0.0
4.52,8194.5,13.010497890216357,0.0
4.528,8168.5,8.837659279453192,0.0
4.536,8159.5,-2.1205729079458706,0.0
4.544,8169.0,-8.177599062708623,0.0
4.552,8171.5,-8.068283911448361,0.0
4.56,8160.0,-8.619095455174374,0.0
4.568,8312.5,21.168328338527317,0.0
4.576,8278.5,59.78484090625102,0.0
4.584,8077.0,25.445651102808824,0.0
4.592,8170.5,-20.784839213982877,0.0
4.6,8180.0,-23.931263110689542,0.0
4.608,8183.0,-19.610030752679904,0.0
4.616,8192.0,-11.629739039982496,0.0
4.624,8206.5,-0.3459325965905009,0.0
4.632,8229.0,13.938869895501057,0.0
4.64,8247.5,28.649915132484466,0.0
4.648,8267.0,40.76976905385618,0.0
4.656,8260.5,44.412163184672636,0.0
4.664,8236.0,33.499535358959065,0.0
4.672,8178.0,5.1120822773814325,0.0
4.68,8147.0,-30.63403605178746,0.0
4.688,8127.0,-57.549092086466544,0.0
4.696,8133.5,-67.49955134185325,0.0
4.704,8145.0,-59.473092991268004,0.0
4.712,8153.5,-41.62341938269083,0.0
4.72,8154.5,-22.81569232742936,0.0
4.728,8149.0,-9.153059001505653,0.0
4.736,8153.5,0.11041078142397964,0.0
4.744,8156.5,7.104328143844896,0.0
4.752,8169.0,13.330082116114227,0.0
4.76,8169.5,17.646895677383554,0.0
4.768,8173.0,18.341577718689223,0.0
4.776,8188.0,19.75117710576842,0.0
4.784,8189.0,20.859113466526424,0.0
4.792,8171.5,14.98089379129442,0.0
4.8,8170.5,5.4536787913239095,0.0
4.808,8160.5,-3.254851597499055,0.0
4.816,8183.5,-5.255677475927541,0.0
4.824,8175.5,-2.5776274967715835,0.0
4.832,8567.0,77.74633171848222,0.0
4.84,8100.5,98.13996538857668,0.0
4.848,8140.5,8.187248010818848,1.0
4.856,8193.5,-27.25194752675702,0.0
4.864,8205.5,-30.799358850431872,0.0
4.872,8210.5,-24.754631704791564,0.0
4.88,8218.5,-14.770784963250208,0.0
4.888,8230.5,-2.540912626698173,0.0
4.896,8256.0,12.738326968023102,0.0
4.904,8279.5,29.853903740854776,0.0
4.912,8296.0,43.621856412740954,0.0
4.92,8281.5,45.55921425211204,0.0
4.928,8233.0,26.926697915943805,0.0
4.936,8185.0,-7.889976305245,0.0
4.944,8160.5,-42.09609626564884,0.0
4.952,8156.0,-61.86799804874954,0.0
4.96,8162.0,-63.874698169488966,0.0
4.968,8168.5,-52.8235388231933,0.0
4.976,8164.5,-37.768477357237316,0.0
4.984,8174.5,-21.91298691373254,0.0
4.992,8167.5,-8.60090606646554,0.0
5.0,8171.0,-0.13921740451678488,0.0
5.008,8171.5,5.703321619189865,0.0
5.016,8179.5,10.030455695883347,0.0
5.024,8175.0,11.783833062477242,0.0
5.032,8172.5,9.604103593945865,0.0
5.04,8183.0,8.493326307552707,0.0
5.048,8170.0,6.037973871893428,0.0
5.056,8156.5,-1.743517462651198,0.0
5.064,8160.0,-8.124149025435372,0.0
5.072,8167.5,-8.418618059829669,0.0
5.08,8170.5,-5.171246039363723,0.0
5.088,8264.5,17.350446315271256,0.0
5.096,8397.0,74.31334229163713,0.0
5.104,8062.0,55.36340829533492,0.0
5.112,8167.0,-11.226487196275684,0.0
5.12,8194.5,-21.83571441961044,0.0
5.128,8196.5,-18.772567549000314,0.0
5.136,8209.5,-11.050372353220837,0.0
5.144,8211.5,-1.7435995992400422,0.0
5.152,8228.5,7.906476405792546,0.0
5.16,8260.0,22.323390277621,0.0
5.168,8292.5,40.54029266930797,0.0
5.176,8293.5,52.011429440542315,0.0
5.184,8252.0,42.63571081293435,0.0
5.192,8190.0,9.48171394964811,0.0
5.2,8152.0,-31.993127319540008,1.0
5.208,8159.0,-58.00406989237854,0.0
5.216,8156.5,-63.67344309385544,0.0
5.224,8157.5,-57.67910675440157,0.0
5.232,8158.5,-44.98063107923008,0.0
5.24,8165.5,-29.016772306018083,0.0
5.248,8172.5,-12.31627582511328,0.0
5.256,8172.0,0.7556184091010891,0.0
5.264,8169.5,7.758851966242219,0.0
5.272,8172.5,10.826369619077468,0.0
5.28,8174.5,12.02059320035255,0.0
5.288,8171.5,10.700090419313028,0.0
5.296,8190.5,11.565700434607379,0.0
5.304,8171.5,10.324124069300524,0.0
5.312,8159.5,1.691273230998604,0.0
5.32,8177.0,-2.5469429737147493,0.0
5.328,8170.0,-2.5221117773191963,0.0
5.336,8170.0,-3.5551505036921753,0.0
5.344,8248.0,12.3083791714987,0.0
5.352,8456.0,78.25398465465173,0.0
5.36,8071.5,69.3307837880759,0.0
5.368,8170.0,-4.887783409731128,0.0
5.376,8194.0,-23.01262505923296,0.0
5.384,8199.5,-24.215766625413607,0.0
5.392,8216.0,-16.761288379012967,0.0
5.4,8226.5,-4.295390817786256,0.0
5.408,8250.5,10.776530835498306,0.0
5.416,8256.5,24.18521590754017,0.0
5.424,8285.0,35.49670439083957,0.0
5.432,8289.5,43.546507863640954,0.0
5.44,8261.5,36.903914403378394,0.0
5.448,8210.0,11.138511032221686,0.0
5.456,8161.5,-26.217918220236243,0.0
5.464,8157.5,-55.06129630542546,0.0
5.472,8163.0,-63.46482888298033,0.0
5.48,8163.0,-57.688992497641266,0.0
5.488,8162.0,-45.731141012653325,0.0
5.496,8168.5,-30.60225206074324,0.0
5.504,8176.0,-14.155177910642806,0.0
5.512,8167.0,-2.588764557880495,0.0
5.52,8164.5,2.2946210144793895,0.0
5.528,8168.5,5.141206797381528,0.0
5.536,8182.0,9.620469727188492,0.0
5.544,8185.5,14.284035686879633,0.0
5.552,8185.0,15.489334968639469,0.0
5.56,8160.5,8.74626036013251,0.0
5.568,8171.0,0.5721693062594113,0.0
5.576,8170.0,-2.4078644567509855,0.0
5.584,8172.0,-3.6008900142060156,0.0
5.592,8166.0,-4.577709230105711,0.0
5.6,8397.0,41.50632171570169,0.0
5.608,8165.5,62.36534293994123,0.0
5.616,8086.5,1.8106056412616454,0.0
5.624,8176.0,-32.13071669810097,0.0
5.632,8181.5,-27.923584559948495,0.0
5.64,8196.5,-17.013781636635485,0.0
5.648,8214.5,-1.2403248539785636,0.0
5.656,8220.0,13.077188742214503,0.0
5.664,8233.0,23.341451759147503,0.0
5.672,8257.5,33.534161300094866,0.0
5.68,8284.5,44.99943069774304,0.0
5.688,8280.0,49.55429582132456,0.0
5.696,8231.0,33.804925286941625,0.0
5.704,8184.5,-0.14518089233411047,1.0
5.712,8160.0,-34.70656510499725,0.0
5.72,8144.0,-58.15836920672655,0.0
5.728,8146.5,-65.96829337546865,0.0
5.736,8150.5,-59.25754236484636,0.0
5.744,8154.0,-44.7724162310119,0.0
5.752,8164.5,-26.55769820486603,0.0
5.76,8157.0,-11.146180999193803,0.0
5.768,8165.5,-0.13764170378203744,0.0
5.776,8156.5,6.29150798163414,0.0
5.784,8167.5,9.548431283436457,0.0
5.792,8178.5,14.521533602152886,0.0
5.8,8177.5,17.303990459184888,0.0
5.808,8159.0,12.34217558264072,0.0
5.816,8149.5,1.8161238654442968,0.0
5.824,8153.0,-5.910116527221135,0.0
5.832,8149.0,-9.685509344688171,0.0
5.84,8149.0,-11.267036190732142,0.0
5.848,8327.0,25.87141384193069,0.0
5.856,8177.0,49.63304333424276,0.0
5.864,8084.0,6.515576325892198,0.0
5.872,8176.5,-20.074011268944787,0.0
5.88,8179.5,-13.244863764847423,0.0
5.888,8184.0,-5.665783325080383,0.0
5.896,8202.0,4.272240526874157,0.0
5.904,8209.5,14.711520377600209,0.0
5.912,8224.0,23.1494712694614,0.0
5.92,8250.0,32.904111811674056,0.0
5.928,8262.0,41.44776973683361,0.0
5.936,8261.0,42.46381289630676,0.0
5.944,8208.5,25.69658979020278,0.0
5.952,8166.0,-7.5240029419901475,0.0
5.96,8134.5,-41.148140059178786,0.0
5.968,8128.0,-62.55828691703687,0.0
5.976,8134.0,-65.83778818253904,0.0
5.984,8125.0,-58.408396494313365,0.0
5.992,8137.5,-44.4442112825393,0.0
6.0,8144.0,-25.56583248152151,0.0
6.008,8137.0,-10.627258823870534,0.0
6.016,8148.0,0.6358101829748648,0.0
6.024,8143.5,8.528329654766821,0.0
6.032,8154.0,13.128762165012176,0.0
6.04,8153.5,15.901983301106839,0.0
6.048,8147.5,13.80317798404667,0.0
6.056,8126.5,4.953101015716356,0.0
6.064,8128.0,-5.01563456473923,0.0
6.072,8142.0,-6.984036173987533,0.0
6.08,8137.5,-5.148425489885085,0.0
6.088,8154.0,-0.8306763923301332,0.0
6.096,8444.5,64.56912671184432,0.0
6.104,8021.5,66.38716148032836,1.0
6.112,8118.5,-9.204801756103734,0.0
6.12,8157.0,-24.831445905648934,0.0
6.128,8158.0,-22.2383946371649,0.0
6.136,8161.5,-16.413911565277203,0.0
6.144,8176.5,-6.701213894813463,0.0
6.152,8190.5,5.983566523891568,0.0
6.16,8212.5,19.932975114306146,0.0
6.168,8233.0,33.84334308479515,0.0
6.176,8245.0,43.57863827905612,0.0
6.184,8223.0,40.686031621988604,0.0
6.192,8169.0,17.2800035366065,0.0
6.2,8132.0,-17.773510397408245,0.0
6.208,8125.5,-44.69651264042659,0.0
6.216,8122.0,-55.88522113435397,0.0
6.224,8123.0,-54.54009778909631,0.0
6.232,8133.5,-43.12621199348928,0.0
6.24,8148.0,-24.73009536615359,0.0
6.248,8146.5,-7.445377246196358,0.0
6.256,8150.0,4.314185274776037,0.0
6.264,8155.0,12.351246759389596,0.0
6.272,8154.0,16.04896017236956,0.0
6.28,8153.5,15.496118756721216,0.0
6.288,8160.5,14.147730101351726,0.0
6.296,8130.0,6.4042630267642835,0.0
6.304,8136.0,-4.151542698015646,0.0
6.312,8134.5,-8.845452216355625,0.0
6.32,8157.5,-5.887879881618346,0.0
6.328,8171.0,4.2108756957277365,0.0
6.336,8290.0,36.614703856716005,0.0
6.344,8220.5,60.339943927712284,0.0
6.352,8061.0,18.437875307220793,0.0
6.36,8164.5,-20.579184683498397,0.0
6.368,8196.5,-12.851000641931023,0.0
6.376,8190.5,-1.0203805248875142,0.0
6.384,8183.0,3.3728693119176114,0.0
6.392,8197.0,6.787618581386823,0.0
6.4,8227.0,16.76724884460168,0.0
6.408,8249.5,30.852866169014533,0.0
6.416,8270.0,43.290353795865485,0.0
6.424,8259.5,46.12554310501059,0.0
6.432,8223.5,31.30910428210973,0.0
6.44,8191.5,3.9074009709158872,1.0
6.448,8150.5,-27.804289474869393,0.0
6.456,8151.0,-50.6172558372175,0.0
6.464,8161.0,-54.28947443500897,0.0
6.472,8169.0,-44.55287849368233,0.0
6.48,8178.5,-28.464665022192094,0.0
6.488,8167.5,-14.94099413540198,0.0
6.496,8164.0,-7.640248353907282,0.0
6.504,8177.0,-0.22338967198288628,0.0
6.512,8181.5,7.772061261371164,0.0
6.52,8191.5,14.284583489875104,0.0
6.528,8216.0,23.01874537287881,0.0
6.536,8201.0,26.63505864255285,0.0
6.544,8173.0,15.950615627092702,0.0
6.552,8179.5,2.8210843179615495,0.0
6.56,8175.0,-4.962806885498139,0.0
6.568,8167.5,-11.265377100107116,0.0
6.576,8187.0,-10.833132704064383,0.0
6.584,8470.0,52.86592605650071,0.0
6.592,8048.0,54.12453142382083,0.0
6.6,8153.0,-18.10041056130558,0.0
6.608,8188.5,-29.365620478262827,0.0
6.616,8192.5,-23.50578981067838,0.0
6.624,8196.5,-14.84213383475776,0.0
6.632,8221.5,-1.543495390739281,0.0
6.64,8257.5,19.017659863067593,0.0
6.648,8264.5,37.079126918293696,0.0
6.656,8280.0,46.735784002119544,0.0
6.664,8285.0,49.549185480444294,0.0
6.672,8253.0,38.18466284918827,0.0
6.68,8212.0,10.760497127169401,0.0
6.688,8180.5,-21.901337406812218,0.0
6.696,8173.5,-45.76257297675761,0.0
6.704,8171.0,-54.876779965508604,0.0
6.712,8165.0,-53.68349638021914,0.0
6.72,8174.0,-44.22583625934294,0.0
6.728,8185.5,-27.739265962272157,0.0
6.736,8194.5,-9.595368430670305,0.0
6.744,8195.5,4.632682013233762,0.0
6.752,8189.5,11.323254192947388,0.0
6.76,8201.5,14.789113506387139,0.0
6.768,8208.5,18.47832848178882,0.0
6.776,8230.5,23.78331533463688,0.0
6.784,8218.5,25.357852726184092,0.0
6.792,8177.0,11.514387659705562,0.0
6.8,8170.5,-8.224771403641398,0.0
6.808,8166.0,-20.898814173369146,0.0
6.816,8172.5,-24.817113617102905,0.0
6.824,8289.5,1.8593297051224909,0.0
6.832,8334.5,50.45057151388846,0.0
6.84,8081.0,28.941727812030877,0.0
6.848,8189.0,-17.89224437862049,0.0
6.856,8203.0,-17.952402318625218,0.0
6.864,8203.0,-12.405971992783861,0.0
6.872,8217.5,-4.2825685019274715,0.0
6.88,8230.0,6.687009120494167,0.0
6.888,8250.0,18.800346519110008,0.0
6.896,8265.5,30.366479107597115,0.0
6.904,8284.0,39.548982216109835,0.0
6.912,8276.5,41.230715964244155,0.0
6.92,8238.0,26.57638940679408,0.0
6.928,8195.5,-2.6678162562086527,1.0
6.936,8167.0,-34.063677364678824,0.0
6.944,8163.0,-54.106459096609115,0.0
6.952,8163.5,-58.47160221226659,0.0
6.96,8175.0,-49.736545699591716,0.0
6.968,8168.0,-36.1106465772848,0.0
6.976,8169.0,-23.803316993699127,0.0
6.984,8181.0,-10.260008033904569,0.0
6.992,8185.5,2.6759844800226347,0.0
7.0,8181.0,9.92059829339587,0.0
7.008,8175.5,10.657962917365694,0.0
7.016,8184.0,10.091068634023713,0.0
7.024,8192.5,11.698997187978875,0.0
7.032,8178.5,9.75256288782225,0.0
7.04,8176.5,3.854028014902042,0.0
7.048,8173.0,-1.3423264562375152,0.0
7.056,8185.0,-2.475372382326441,0.0
7.064,8172.5,-2.872308616076225,0.0
7.072,8260.0,12.650981661604419,0.0
7.08,8398.0,65.98322767442392,0.0
7.088,8063.5,47.37488192121691,0.0
7.096,8180.0,-15.35023406430355,0.0
7.104,8199.0,-22.435725886590035,0.0
7.112,8208.0,-17.504130124870017,0.0
7.12,8210.5,-9.584300305728448,0.0
7.128,8224.5,-0.07646935200159533,0.0
7.136,8252.5,14.138674476395863,0.0
7.144,8271.0,29.901885495310125,0.0
7.152,8290.5,42.45417504091347,0.0
7.16,8286.5,46.607687118260856,0.0
7.168,8254.0,34.54081172670794,0.0
7.176,8209.5,6.436523283209908,0.0
7.184,8179.5,-26.380570882956135,0.0
7.192,8179.5,-47.91796507137201,0.0
7.2,8173.5,-54.616020330468245,0.0
7.208,8173.0,-51.62476118547079,0.0
7.216,8170.5,-42.64171478427511,0.0
7.224,8179.0,-29.63836372468245,0.0
7.232,8177.5,-16.0245717990133,0.0
7.24,8180.5,-5.237432231113189,0.0
7.248,8183.0,3.0597754054315374,0.0
7.256,8179.0,7.196381019016371,0.0
7.264,8188.5,9.67536098816754,0.0
7.272,8199.5,13.862693624573467,0.0
7.28,8198.5,16.28033550410737,0.0
7.288,8170.5,9.31710999432471,0.0
7.296,8174.5,-1.1167337251754361,0.0
7.304,8170.5,-7.117981685575842,0.0
7.312,8168.0,-10.915895153217662,0.0
7.32,8166.0,-12.426350075400478,0.0
7.328,8464.0,49.03739471214044,0.0
7.336,8130.5,70.69962493779894,0.0
7.344,8110.0,0.46924273698755314,1.0
7.352,8178.5,-31.329592685935268,0.0
7.36,8172.5,-32.616633963552886,0.0
7.368,8175.5,-29.045623827822055,0.0
7.376,8185.5,-19.874164193313618,0.0
7.384,8211.5,-4.0821905348836935,0.0
7.392,8222.0,13.333045008124827,0.0
7.4,8238.5,27.127061854146632,0.0
7.408,8255.5,38.016115519517825,0.0
7.416,8260.0,43.084659793063565,0.0
7.424,8224.0,33.11456958177473,0.0
7.432,8184.0,6.670852405205096,0.0
7.44,8165.5,-21.93089652330559,0.0
7.448,8172.5,-37.870400392567035,0.0
7.456,8184.5,-37.67368133954824,0.0
7.464,8178.5,-30.619762298787464,0.0
7.472,8192.5,-20.171362228773432,0.0
7.48,8193.0,-7.971617094261546,0.0
7.488,8189.5,-0.161019162869934,0.0
7.496,8191.5,4.176116746425123,0.0
7.504,8195.0,7.231597715194312,0.0
7.512,8214.0,12.538977098028909,0.0
7.52,8218.0,18.475614542669746,0.0
7.528,8217.0,19.798313372121356,0.0
7.536,8201.0,14.105783270102847,0.0
7.544,8182.0,1.450098261003859,0.0
7.552,8177.5,-11.05537437282669,0.0
7.56,8162.0,-20.860981511229056,0.0
7.568,8162.0,-26.663893154893458,0.0
7.576,8299.0,1.9360483236587243,0.0
7.584,8297.5,46.23924047892274,0.0
7.592,8055.0,15.580259511833901,0.0
7.6,8158.0,-33.4135275207268,0.0
7.608,8179.5,-31.88703460744091,0.0
7.616,8183.0,-21.042297783388676,0.0
7.624,8204.0,-6.433107392794,0.0
7.632,8224.0,11.558412529545421,0.0
7.64,8233.5,26.473050298768612,0.0
7.648,8239.5,34.44657836466263,1.0
7.656,8266.0,40.579378638125036,0.0
7.664,8276.5,45.61312432932664,0.0
7.672,8240.5,36.46491417125276,0.0
7.68,8173.0,4.38103104948209,0.0
7.688,8159.0,-31.908057734176282,0.0
7.696,8157.5,-51.69838961291043,0.0
7.704,8154.0,-56.58577729533613,0.0
7.712,8158.0,-50.79494815461635,0.0
7.72,8161.0,-38.23904188047277,0.0
7.728,8168.0,-22.973001264078675,0.0
7.736,8171.0,-8.41870361533347,0.0
7.744,8165.0,0.8521563850272287,0.0
7.752,8174.0,6.818633211822544,0.0
7.76,8173.0,10.947819086796471,0.0
7.768,8170.5,11.014941324993742,0.0
7.776,8180.5,10.91689836883802,0.0
7.784,8157.5,6.547874560278387,0.0
7.792,8156.5,-1.9319137715267516,0.0
7.8,8157.5,-6.653945680119477,0.0
7.808,8162.5,-7.211925915548363,0.0
7.816,8147.0,-8.593660067485189,0.0
7.824,8360.5,32.3436481456954,0.0
7.832,8206.5,63.806124953337985,0.0
7.84,8059.5,11.244672077212044,0.0
7.848,8122.0,-38.80832916733857,0.0
7.856,8127.0,-48.735485170901484,0.0
7.864,8117.5,-48.13686777500584,0.0
7.872,8133.5,-39.156773739144455,0.0
7.88,8159.5,-19.328697225578935,0.0
7.888,8212.5,11.46781830082,0.0
7.896,8249.0,46.227093972378725,0.0
7.904,8267.0,70.90949413832459,0.0
7.912,8261.5,77.30966891920752,0.0
7.92,8240.5,63.959691558675104,0.0
7.928,8203.5,34.51804496030218,0.0
7.936,8168.5,-2.8366986988364715,0.0
7.944,8148.0,-35.836851258828574,0.0
7.952,8132.0,-57.37677751559272,0.0
7.96,8153.5,-60.29280314291168,0.0
7.968,8171.0,-44.9085031229622,0.0
7.976,8181.5,-23.28117122362528,0.0
7.984,8184.0,-4.305191721132587,0.0
7.992,8182.5,7.774189978265213,0.0
8.0,8185.0,13.9435582623762,0.0
8.008,8192.5,17.521112722803764,0.0
8.016,8213.0,22.700888114410645,0.0
8.024,8203.0,24.467634809339188,0.0
8.032,8175.5,14.141622740664161,0.0
8.04,8153.5,-4.222091503876072,0.0
8.048,8171.0,-15.361596635693104,0.0
8.056,8189.5,-12.265652561100751,0.0
8.064,8199.0,-2.854675553406196,0.0
8.072,8559.5,78.73506823407979,0.0
8.08,8149.5,104.93705170678777,0.0
8.088,8143.0,19.43187255459111,1.0
8.096,8213.5,-21.00659791975545,0.0
8.104,8215.0,-27.0273351463577,0.0
8.112,8227.0,-23.73226506374681,0.0
8.12,8224.0,-16.346767123654217,0.0
8.128,8249.5,-4.9038644263109745,0.0
8.136,8271.5,12.311222248039712,0.0
8.144,8306.5,32.27081650359605,0.0
8.152,8315.5,48.17148722052457,0.0
8.16,8299.5,48.84164584513178,0.0
8.168,8234.5,25.284639771462025,0.0
8.176,8181.0,-16.69003229988425,0.0
8.184,8167.5,-52.67153349453997,0.0
8.192,8171.0,-68.00831604020118,0.0
8.2,8165.0,-67.27835256828484,0.0
8.208,8159.0,-59.09807089851756,0.0
8.216,8163.0,-45.708902342998954,0.0
8.224,8176.5,-27.28529658845696,0.0
8.232,8180.5,-8.677569069090396,0.0
8.24,8191.5,6.707144569974389,0.0
8.248,8201.0,18.976923466625067,0.0
8.256,8196.5,24.37762900851817,0.0
8.264,8209.0,25.51006765843931,0.0
8.272,8194.5,21.90356099607652,0.0
8.28,8184.0,11.342319909064827,0.0
8.288,8201.5,4.806895534606838,0.0
8.296,8194.0,2.2560824757563296,0.0
8.304,8193.5,-1.2289194893091917,0.0
8.312,8229.0,4.046903644532449,0.0
8.32,8570.5,83.57486914933656,0.0
8.328,8091.0,89.74312644893462,0.0
8.336,8162.0,-3.6719803298649367,0.0
8.344,8206.0,-34.866210119998186,0.0
8.352,8205.5,-39.14121133747403,0.0
8.36,8208.0,-35.32656872016946,0.0
8.368,8207.0,-27.408219334527303,0.0
8.376,8229.5,-14.177443276336362,0.0
8.384,8259.0,6.420326479573305,0.0
8.392,8289.5,29.88646573729352,1.0
8.4,8289.5,45.46433597934492,0.0
8.408,8257.5,41.246506409718904,0.0
8.416,8195.0,13.192203835689497,0.0
8.424,8148.5,-27.667948120280244,0.0
8.432,8129.0,-61.12164151590673,0.0
8.44,8134.5,-74.49954987711658,0.0
8.448,8137.0,-69.4818051179916,0.0
8.456,8138.5,-55.16285406007796,0.0
8.464,8149.5,-35.77754991819802,0.0
8.472,8155.5,-15.415700127303808,0.0
8.48,8156.0,0.2914217265094976,0.0
8.488,8143.0,6.982644418804966,0.0
8.496,8144.0,7.429561282933946,0.0
8.504,8157.5,9.529819946835687,0.0
8.512,8177.0,16.06900347118608,0.0
8.52,8166.5,19.33872264942488,0.0
8.528,8149.5,12.72217789499473,0.0
8.536,8154.0,4.3265715967600045,0.0
8.544,8157.0,0.23772073260170146,0.0
8.552,8159.0,-1.1949560750711044,0.0
8.56,8174.0,1.612044681498901,0.0
8.568,8558.5,84.64587460782786,0.0
8.576,8053.5,96.30038170271018,0.0
8.584,8132.5,1.5604122881024978,0.0
8.592,8182.0,-28.452570433907567,0.0
8.6,8180.0,-32.1841642651259,0.0
8.608,8191.5,-27.570665686676193,0.0
8.616,8203.5,-15.8611425144627,0.0
8.624,8220.0,-0.7088399004412622,0.0
8.632,8241.0,16.02095629233554,0.0
8.64,8268.5,33.39455408172989,0.0
8.648,8287.0,48.004100519595795,0.0
8.656,8265.0,48.651121058769604,0.0
8.664,8203.0,24.496414493085695,0.0
8.672,8148.5,-17.303630759270845,0.0
8.68,8136.5,-52.98667875988008,0.0
8.688,8129.0,-70.0400346674312,0.0
8.696,8144.5,-67.87205867141847,0.0
8.704,8145.0,-53.03090283217307,0.0
8.712,8153.5,-34.375049499148645,0.0
8.72,8143.0,-18.538946993645823,0.0
8.728,8143.5,-8.405787134124012,0.0
8.736,8159.0,2.130176637074328,0.0
8.744,8171.5,13.75859140051216,0.0
8.752,8183.0,23.45287164874003,0.0
8.76,8154.0,22.055056413031025,0.0
8.768,8140.5,9.20179887585573,0.0
8.776,8150.5,-0.5097506495478683,0.0
8.784,8146.5,-4.950055867305082,0.0
8.792,8154.5,-6.008354858267239,0.0
8.8,8129.5,-9.196407633953413,0.0
8.808,8498.0,60.48980030431835,0.0
8.816,8040.0,74.2462173036256,0.0
8.824,8082.0,-13.864006177100919,1.0
8.832,8151.5,-41.09075819570603,0.0
8.84,8144.0,-38.29611939077563,0.0
8.848,8160.5,-28.998523463269066,0.0
8.856,8172.5,-13.280848626916622,0.0
8.864,8196.5,5.382921445909233,0.0
8.872,8218.0,24.900217375177363,0.0
8.88,8235.0,40.53312888398864,0.0
8.888,8260.0,52.21374082802345,0.0
8.896,8256.0,55.495733372416225,0.0
8.904,8210.0,38.807848915873365,0.0
8.912,8162.0,3.8506561127028363,0.0
8.92,8133.5,-33.0357880574129,0.0
8.928,8120.5,-58.32023913056878,0.0
8.936,8129.0,-65.35073888712577,0.0
8.944,8122.0,-59.294170235318006,0.0
8.952,8139.5,-44.577470779600844,0.0
8.96,8139.5,-25.540303819081828,0.0
8.968,8134.0,-11.533197673734094,0.0
8.976,8131.5,-3.135255886787263,0.0
8.984,8147.0,4.962525556407172,0.0
8.992,8167.5,16.353992377332588,0.0
9.0,8168.5,25.00389651941191,0.0
9.008,8142.5,21.221029116161162,0.0
9.016,8138.5,9.637464345476701,0.0
9.024,8146.5,2.1430131836521014,0.0
9.032,8136.0,-3.1248510324828658,0.0
9.04,8141.0,-6.890147478336985,0.0
9.048,8362.0,38.09967638829244,0.0
9.056,8174.5,65.7743010179031,0.0
9.064,8063.5,11.185071946396192,0.0
9.072,8159.0,-25.96135983707154,0.0
9.08,8161.5,-23.972168987279474,0.0
9.088,8170.5,-16.81184154534526,0.0
9.096,8178.5,-6.5552480712267425,0.0
9.104,8209.0,8.36991911818609,0.0
9.112,8219.5,24.30399365225503,0.0
9.12,8244.0,37.19313560410046,0.0
9.128,8270.0,49.494026166825506,0.0
9.136,8253.0,51.10358141682991,0.0
9.144,8211.0,32.25381496197383,0.0
9.152,8160.0,-2.783941558851893,1.0
9.16,8141.0,-37.38419230252498,0.0
9.168,8147.0,-54.83474944991826,0.0
9.176,8138.5,-57.35213698160692,0.0
9.184,8139.5,-51.67791107918333,0.0
9.192,8138.0,-40.58935234879527,0.0
9.2,8148.0,-26.141215078337382,0.0
9.208,8161.5,-8.832224381764945,0.0
9.216,8156.5,4.479910654317109,0.0
9.224,8169.0,13.205734216821156,0.0
9.232,8161.0,17.283380414856765,0.0
9.24,8190.0,21.364846489482943,0.0
9.248,8167.0,21.765260835940353,0.0
9.256,8159.5,12.471019630780347,0.0
9.264,8162.0,4.062162805682192,0.0
9.272,8156.5,-2.1395955597017746,0.0
9.28,8154.5,-7.015173473512732,0.0
9.288,8187.0,-2.6038239707145294,0.0
9.296,8501.5,71.2921973330026,0.0
9.304,8049.0,75.99193014243224,0.0
9.312,8152.5,-4.050916881051535,0.0
9.32,8181.5,-23.704098618223725,0.0
9.328,8174.5,-27.23851862155061,0.0
9.336,8196.0,-22.23672590020101,0.0
9.344,8215.5,-7.530990017402019,0.0
9.352,8231.5,9.560424180928067,0.0
9.36,8244.0,24.041358701436593,0.0
9.368,8282.5,39.37974779226238,0.0
9.376,8300.0,53.92125739146127,0.0
9.384,8278.5,53.52877981949314,0.0
9.392,8217.0,28.224105967463174,0.0
9.4,8193.5,-8.385714103960709,0.0
9.408,8177.0,-36.93736107254131,0.0
9.416,8167.0,-53.63658993575518,0.0
9.424,8165.5,-57.7300057023117,0.0
9.432,8169.5,-50.8875426985237,0.0
9.44,8169.5,-38.30856593859335,0.0
9.448,8179.0,-23.1204912192527,0.0
9.456,8193.0,-5.831880127338991,0.0
9.464,8189.0,7.319766077145914,0.0
9.472,8176.0,10.514751011614408,0.0
9.48,8183.0,9.584294524874394,0.0
9.488,8186.0,9.623940157647667,0.0
9.496,8199.5,11.55924719665768,0.0
9.504,8197.0,13.198575342019922,0.0
9.512,8203.0,12.882064378777159,0.0
9.52,8199.0,11.150408952608359,0.0
9.528,8186.5,5.06481357667144,0.0
9.536,8181.5,-2.877347441804659,0.0
9.544,8310.0,18.093063261269435,0.0
9.552,8323.0,56.660374266352164,0.0
9.56,8087.5,25.421703477944448,1.0
9.568,8187.5,-24.589786930536093,0.0
9.576,8193.0,-28.884661001935456,0.0
9.584,8195.5,-25.410980305648764,0.0
9.592,8210.5,-15.928782291193102,0.0
9.6,8236.5,0.4702991887895678,0.0
9.608,8236.5,15.409207464140081,0.0
9.616,8265.5,27.83255936088699,0.0
9.624,8292.5,42.40081083235009,0.0
9.632,8296.5,50.92131288969017,0.0
9.64,8264.0,42.41747818457543,0.0
9.648,8202.0,11.650906096727795,0.0
9.656,8168.0,-27.923687932470557,0.0
9.664,8163.5,-54.9600586471729,0.0
9.672,8166.5,-62.92318134170296,0.0
9.68,8179.0,-54.92599919517966,0.0
9.688,8181.0,-38.90668711005242,0.0
9.696,8175.5,-24.249232237532624,0.0
9.704,8175.5,-13.02802229152212,0.0
9.712,8183.0,-2.8843590912022137,0.0
9.72,8177.0,3.8583407227465614,0.0
9.728,8185.5,7.7717443420635846,0.0
9.736,8175.5,8.601385378615078,0.0
9.744,8186.0,7.890112582426127,0.0
9.752,8187.5,8.724842716749663,0.0
9.76,8161.5,2.890341407400456,0.0
9.768,8150.0,-8.659663832872184,0.0
9.776,8154.5,-15.607516409564141,0.0
9.784,8156.5,-16.02222590066299,0.0
9.792,8163.5,-11.999618426872075,0.0
9.8,8154.5,-8.209972856472632,0.0
9.808,8503.0,64.63607592741505,0.0
9.816,8077.5,82.18635357234803,0.0
9.824,8125.0,2.8794259667799906,1.0
9.832,8189.0,-21.679573328017796,0.0
9.84,8185.0,-20.65879635420356,0.0
9.848,8184.5,-17.842346871274685,0.0
9.856,8203.0,-9.794178065540564,0.0
9.864,8228.5,5.439644967208778,0.0
9.872,8235.0,20.161814788170886,0.0
9.88,8263.0,32.860091086368584,0.0
9.888,8284.0,45.3985934735947,0.0
9.896,8280.5,49.506144908052875,0.0
9.904,8229.0,33.1930828057134,0.0
9.912,8173.0,-3.4492369871327355,0.0
9.92,8148.0,-41.144866232174536,0.0
9.928,8154.5,-60.97951709914173,0.0
9.936,8160.0,-61.012872468599426,0.0
9.944,8154.5,-51.782327149140656,0.0
9.952,8158.0,-38.881187506241076,0.0
9.96,8160.5,-24.13082288550345,0.0
9.968,8174.0,-8.480150800521187,0.0
9.976,8175.5,5.1258341899158495,0.0
9.984,8171.0,11.782351843694187,0.0
9.992,8176.0,14.034812210187283,0.0
10.0,8170.5,13.136919954797577,0.0
10.008,8183.0,12.044301598914444,0.0
10.016,8189.0,13.351635867119967,0.0
10.024,8184.0,12.304826429250625,0.0
10.032,8172.0,6.347074114012912,0.0
10.04,8170.5,-0.8966832645137401,0.0
10.048,8171.0,-5.248982493536232,0.0
10.056,8174.5,-6.209914082938667,0.0
10.064,8163.0,-7.4711177616011355,0.0
10.072,8442.5,47.66833901231712,0.0
10.08,8140.0,68.35172104040066,0.0
10.088,8105.0,1.2693831744909403,0.0
10.096,8184.5,-29.50406763845035,0.0
10.104,8193.5,-25.14964786110022,0.0
10.112,8205.0,-14.57330081641362,0.0
10.12,8213.0,-2.1251161171869626,0.0
10.128,8223.5,9.33847772852073,0.0
10.136,8228.5,17.868867556536316,0.0
10.144,8269.5,29.602432719184208,1.0
10.152,8274.5,41.45140351851296,0.0
10.16,8270.5,42.378644095432946,0.0
10.168,8229.5,27.30837289045894,0.0
10.176,8179.0,-4.43795774258615,0.0
10.184,8153.0,-38.16885162383619,0.0
10.192,8156.0,-57.02931718420223,0.0
10.2,8152.0,-59.74134861846028,0.0
10.208,8161.5,-51.1640913980832,0.0
10.216,8159.5,-36.80217926630553,0.0
10.224,8162.0,-22.626772926216518,0.0
10.232,8164.5,-9.791471014675835,0.0
10.24,8162.0,-0.7161920452981576,0.0
10.248,8163.5,4.555195319001768,0.0
10.256,8171.0,8.820771157058289,0.0
10.264,8173.5,12.049100895322226,0.0
10.272,8171.0,12.131543863350316,0.0
10.28,8174.0,10.44316566685552,0.0
10.288,8193.0,12.355972538807237,0.0
10.296,8187.5,14.37195321722038,0.0
10.304,8172.0,9.09492580990468,0.0
10.312,8172.0,1.428539619791536,0.0
10.32,8167.0,-4.343436123821903,0.0
10.328,8158.5,-9.856518006968372,0.0
10.336,8162.0,-12.644085194302988,0.0
10.344,8525.5,62.6027472444498,0.0
10.352,8082.5,81.37036895286155,0.0
10.36,8131.0,-0.46387408166765454,0.0
10.368,8181.5,-28.56440010847996,0.0
10.376,8180.0,-30.84156426794152,0.0
10.384,8201.0,-23.528464143300198,0.0
10.392,8205.5,-10.426644884621282,0.0
10.4,8226.0,4.010072467920509,0.0
10.408,8252.5,21.54208773303185,0.0
10.416,8272.5,38.14444621573625,0.0
10.424,8282.0,48.206779685403035,0.0
10.432,8273.5,47.05321112721845,0.0
10.44,8216.0,25.753315981721926,0.0
10.448,8167.5,-12.403800949505467,1.0
10.456,8151.5,-46.26669753229612,0.0
10.464,8148.0,-63.26244736526314,0.0
10.472,8159.5,-62.087965465780826,0.0
10.48,8159.0,-49.73280132120635,0.0
10.488,8172.0,-32.33213761106322,0.0
10.496,8170.0,-14.892171019009538,0.0
10.504,8170.5,-2.626825858653092,0.0
10.512,8161.5,3.2885798478118886,0.0
10.52,8169.0,5.981902272435718,0.0
10.528,8166.0,7.58715543177982,0.0
10.536,8173.5,8.305550894911903,0.0
10.544,8174.0,9.105595831857954,0.0
10.552,8177.5,9.015428580060188,0.0
10.56,8193.0,11.476974091606507,0.0
10.568,8183.0,12.316337842252324,0.0
10.576,8169.0,6.042214204969241,0.0
10.584,8162.5,-2.7725300613308264,0.0
10.592,8173.5,-6.645853296299265,0.0
10.6,8176.5,-5.068728927831216,0.0
10.608,8214.5,5.008792754002343,0.0
10.616,8490.0,74.25753877831244,0.0
10.624,8053.5,71.06038092566155,0.0
10.632,8162.0,-8.614675835587832,0.0
10.64,8187.5,-27.05197605585522,0.0
10.648,8194.0,-27.316739755462777,0.0
10.656,8211.0,-18.53071102056606,0.0
10.664,8227.0,-3.7832663920460163,0.0
10.672,8226.0,8.576448253832268,0.0
10.68,8246.0,18.467387993730426,0.0
10.688,8281.0,32.75354478706731,0.0
10.696,8286.0,44.40856333922602,0.0
10.704,8285.0,45.385663016247236,0.0
10.712,8215.0,24.577157407409686,0.0
10.72,8167.5,-15.460492518775254,0.0
10.728,8158.0,-48.4398465108095,0.0
10.736,8141.0,-66.0137014464683,0.0
10.744,8139.0,-70.28010961469954,0.0
10.752,8152.5,-59.79850272544695,0.0
10.76,8163.5,-39.52816865264367,0.0
10.768,8178.5,-16.23556813049504,0.0
10.776,8160.5,-0.6117612901352913,0.0
10.784,8176.5,8.312280901728855,0.0
10.792,8172.5,14.781314734943635,0.0
10.8,8175.5,16.161768070103108,0.0
10.808,8187.5,17.592363456800967,0.0
10.816,8179.0,16.486258144045678,0.0
10.824,8185.0,12.821845895135084,0.0
10.832,8197.5,12.490340601835669,0.0
10.84,8166.0,6.518890191570108,0.0
10.848,8162.0,-5.2536356977632295,0.0
10.856,8166.5,-11.317224505449985,0.0
10.864,8173.5,-10.83793663285951,0.0
10.872,8185.5,-5.0296117946363665,0.0
10.88,8286.0,22.151813187809694,0.0
10.888,8394.5,77.56725904229506,0.0
10.896,8086.0,57.71958546887572,0.0
10.904,8183.0,-5.978890749652919,0.0
10.912,8196.5,-20.168353077453503,0.0
10.92,8203.0,-21.416200836223197,0.0
10.928,8219.0,-14.310458564504643,0.0
10.936,8224.5,-3.5460321456102974,0.0
10.944,8242.5,8.158721592106303,0.0
10.952,8263.0,21.70951689708454,0.0
10.96,8287.5,35.62555298484108,0.0
10.968,8284.5,42.846687169895404,0.0
10.976,8262.0,35.41151948788911,0.0
10.984,8204.5,9.301503301111097,1.0
10.992,8172.5,-25.835058692117855,0.0
11.0,8158.0,-52.19785201760601,0.0
11.008,8166.0,-61.20290940478708,0.0
11.016,8157.5,-57.351552437385635,0.0
11.024,8154.5,-48.728153458720044,0.0
11.032,8169.5,-33.78891640194138,0.0
11.04,8179.5,-14.723557074829841,0.0
11.048,8176.5,0.21403581180106812,0.0
11.056,8176.5,8.402750790495475,0.0
11.064,8173.5,11.358684654602484,0.0
11.072,8161.5,8.32019603862409,0.0
11.08,8172.0,4.955347717282166,0.0
11.088,8181.0,6.197958836938824,0.0
11.096,8200.5,11.815726779978831,0.0
11.104,8213.5,19.986438623352115,0.0
11.112,8187.0,19.03034300456261,0.0
11.12,8187.0,10.16571316426257,0.0
11.128,8178.5,1.6453865779781154,0.0
11.136,8191.0,-2.825777247830274,0.0
11.144,8175.5,-5.654497451397674,0.0
11.152,8544.0,65.64808161796918,0.0
11.16,8102.0,82.84717469548195,0.0
11.168,8141.0,-1.8751517740524832,0.0
11.176,8187.5,-34.22778035494298,0.0
11.184,8194.0,-37.343792364753426,0.0
11.192,8211.0,-28.723767650338687,0.0
11.2,8246.5,-8.54524375347114,0.0
11.208,8261.5,15.001053456545378,0.0
11.216,8272.0,31.861629059242432,0.0
11.224,8279.5,40.67976146850333,0.0
11.232,8285.0,42.38316915261885,0.0
11.24,8268.5,34.71746386937912,0.0
11.248,8243.5,16.441916884888315,0.0
11.256,8193.0,-12.283712378786504,0.0
11.264,8150.0,-46.51177345323299,0.0
11.272,8154.5,-67.56804022389929,0.0
11.28,8149.0,-69.98087006759056,0.0
11.288,8157.0,-60.287135679125186,0.0
11.296,8161.5,-42.86027547266076,0.0
11.304,8155.0,-26.4645370633757,0.0
11.312,8149.5,-15.207398097523082,0.0
11.32,8168.5,-3.4862624919085192,0.0
11.328,8176.5,9.490278581663688,0.0
11.336,8185.0,19.096708929179385,0.0
11.344,8167.5,20.04394209970019,0.0
11.352,8169.5,14.398573248060757,0.0
11.36,8180.0,11.430678062351717,0.0
11.368,8177.5,9.576850620859204,0.0
11.376,8173.5,5.700581176020023,0.0
11.384,8182.5,3.5653905453286825,0.0
11.392,8172.5,1.5577862114550953,0.0
11.4,8179.0,-0.5807393438533381,0.0
11.408,8167.0,-2.8810674260712403,0.0
11.416,8553.5,72.70598486726726,0.0
11.424,8048.0,82.07315940003332,0.0
11.432,8113.0,-14.824881841561364,1.0
11.44,8172.5,-44.447143988038306,0.0
11.448,8186.5,-40.21087874091609,0.0
11.456,8204.5,-25.071488234967774,0.0
11.464,8205.0,-8.537378851973699,0.0
11.472,8220.5,5.8040467724624705,0.0
11.48,8243.5,21.27116198042404,0.0
11.488,8277.0,38.73642575848771,0.0
11.496,8286.5,51.97739003920242,0.0
11.504,8262.0,48.86317627764538,0.0
11.512,8219.5,25.92504588621705,0.0
11.52,8159.5,-12.511904064138434,0.0
11.528,8146.0,-48.362611143640606,0.0
11.536,8135.5,-67.13553729407158,0.0
11.544,8136.5,-70.00013281502243,0.0
11.552,8132.0,-61.79645638923057,0.0
11.56,8149.0,-45.0219831705042,0.0
11.568,8146.0,-25.415511758788625,0.0
11.576,8147.5,-10.273436551677833,0.0
11.584,8142.0,-0.5780672911723741,0.0
11.592,8147.5,5.243399930242504,0.0
11.6,8146.5,8.810598437315775,0.0
11.608,8151.0,10.299495919816081,0.0
11.616,8154.5,11.25290887951678,0.0
11.624,8155.0,10.927885219758764,0.0
11.632,8135.0,5.0950043030550205,0.0
11.64,8138.5,-2.4979782470306873,0.0
11.648,8140.0,-5.5882285007890005,0.0
11.656,8154.0,-3.401893228401377,0.0
11.664,8139.5,-1.6952813972782224,0.0
11.672,8447.5,59.53332262828803,0.0
11.68,8090.0,76.60497289428531,0.0
11.688,8079.0,-0.19795313280292248,0.0
11.696,8153.0,-32.718113005494615,0.0
11.704,8165.5,-29.31800852051765,0.0
11.712,8170.0,-19.389122174410886,0.0
11.72,8194.0,-4.7550018849333355,0.0
11.728,8217.0,14.222645881844755,0.0
11.736,8239.0,32.483211585780055,0.0
11.744,8266.5,48.47053255049218,1.0
11.752,8288.0,60.587443347805674,0.0
11.76,8268.5,58.976194512278425,0.0
11.768,8221.0,35.39366216721851,0.0
11.776,8169.5,-4.144887141848585,0.0
11.784,8137.0,-44.06077544641653,0.0
11.792,8129.5,-69.15886532859167,0.0
11.8,8128.5,-75.2530910161986,0.0
11.808,8138.0,-65.71139218855092,0.0
11.816,8141.5,-47.449913838069506,0.0
11.824,8138.0,-29.456138635900743,0.0
11.832,8134.0,-15.881007526229723,0.0
11.84,8144.0,-4.219144230134361,0.0
11.848,8149.0,6.381846927765309,0.0
11.856,8160.5,15.054655900501757,0.0
11.864,8153.5,18.820631006607528,0.0
11.872,8157.5,17.581490193477975,0.0
11.88,8166.5,16.83901363938776,0.0
11.888,8164.5,15.277026772891986,0.0
11.896,8152.0,9.074730782058168,0.0
11.904,8145.0,0.047000784442388976,0.0
11.912,8156.0,-4.481906429519768,0.0
11.92,8162.0,-3.0076707596217602,0.0
11.928,8158.0,-1.2712101781532965,0.0
11.936,8438.0,56.33548772157178,0.0
11.944,8166.0,83.49727559050098,0.0
11.952,8095.0,16.82635688498931,0.0
11.96,8175.0,-23.315081418231557,0.0
11.968,8180.0,-26.154250246124548,0.0
11.976,8184.5,-21.927179131161893,0.0
11.984,8208.5,-10.28030357683997,0.0
11.992,8221.0,5.623234877424011,0.0
12.0,8233.0,19.181382714937627,0.0
12.008,8263.0,32.87215958818774,0.0
12.016,8301.0,49.877511113642186,0.0
12.024,8293.0,58.50145328714234,0.0
12.032,8251.0,44.517086417509745,0.0
12.04,8196.0,9.680259191244204,0.0
12.048,8165.0,-29.959695442240445,0.0
12.056,8145.0,-59.27979784387912,0.0
12.064,8129.5,-74.88482026917018,0.0
12.072,8127.5,-76.33544657661423,0.0
12.08,8143.5,-62.759778318814824,0.0
12.088,8159.5,-38.678400937984634,0.0
12.096,8151.5,-16.938205339513388,0.0
12.104,8164.5,-0.49155352287266396,0.0
12.112,8167.0,12.476157340289774,0.0
12.12,8179.0,21.216069403782285,0.0
12.128,8193.5,28.582204288572257,0.0
12.136,8195.0,31.8739379650342,0.0
12.144,8213.5,33.074215101914206,0.0
12.152,8194.0,28.565314797568135,0.0
12.16,8165.0,11.659329719188236,0.0
12.168,8147.5,-9.606522320911608,0.0
12.176,8150.0,-23.791162348869193,0.0
12.184,8148.5,-28.3686132218927,0.0
12.192,8159.5,-24.833835678389732,0.0
12.2,8557.5,64.58076568653587,0.0
12.208,8060.5,87.44342556373454,0.0
12.216,8139.0,2.2070145025754755,1.0
12.224,8189.5,-22.181461592491814,0.0
12.232,8191.0,-22.618151888965258,0.0
12.24,8197.0,-17.914974829031962,0.0
12.248,8216.5,-7.2077310068073075,0.0
12.256,8227.5,6.448467575728955,0.0
12.264,8257.0,21.82124048919877,0.0
12.272,8272.5,36.79785251561361,0.0
12.28,8290.0,46.81793459570781,0.0
12.288,8277.0,46.56499682922845,0.0
12.296,8222.0,25.46315065076442,0.0
12.304,8179.0,-10.898441364329756,0.0
12.312,8151.5,-45.15350269920623,0.0
12.32,8141.5,-66.22736643369899,0.0
12.328,8129.5,-73.14418237429231,0.0
12.336,8134.0,-67.67751069749943,0.0
12.344,8162.5,-47.4418934269554,0.0
12.352,8186.0,-17.658188847408155,0.0
12.36,8173.0,4.778193451860943,0.0
12.368,8151.5,10.274223990083556,0.0
12.376,8152.0,7.67655645091304,0.0
12.384,8167.0,8.143106359440935,0.0
12.392,8183.0,13.517757718479743,0.0
12.4,8181.5,17.609227997320886,0.0
12.408,8175.5,15.826893778353451,0.0
12.416,8166.0,9.206617573864378,0.0
12.424,8178.0,4.406317307221343,0.0
12.432,8182.5,4.270341530643236,0.0
12.44,8187.5,5.48334933049523,0.0
12.448,8170.0,2.815619358746062,0.0
12.456,8517.5,68.23031914169201,0.0
12.464,8081.5,78.49132006350783,0.0
12.472,8130.0,-6.507120915694259,0.0
12.48,8185.5,-34.541216717653924,0.0
12.488,8181.5,-35.362186145766145,0.0
12.496,8186.0,-30.384230883681994,0.0
12.504,8196.5,-19.769155942458838,0.0
12.512,8224.5,-2.6285990011235754,0.0
12.52,8246.0,18.01971555407863,0.0
12.528,8272.0,37.20338232226072,1.0
12.536,8275.5,48.93497365048506,0.0
12.544,8263.0,46.61519039458608,0.0
12.552,8215.5,25.917811858517325,0.0
12.56,8176.5,-7.924051185892949,0.0
12.568,8149.0,-40.32269832351426,0.0
12.576,8139.5,-60.92893831370452,0.0
12.584,8148.5,-63.98003886322499,0.0
12.592,8148.5,-54.24561820120607,0.0
12.6,8167.5,-36.382706202220334,0.0
12.608,8170.5,-15.80794365771294,0.0
12.616,8166.0,-1.5498433977777495,0.0
12.624,8169.5,6.913047318372037,0.0
12.632,8171.5,11.993541898203148,0.0
12.64,8179.0,15.120633330659302,0.0
12.648,8173.0,14.983974796040684,0.0
12.656,8181.5,13.142159782707722,0.0
12.664,8168.0,9.038902752565946,0.0
12.672,8153.5,-0.47858411855941085,0.0
12.68,8166.0,-6.443252810881859,0.0
12.688,8158.0,-8.074521153930618,0.0
12.696,8168.0,-7.406456199779768,0.0
12.704,8182.5,-0.8830873101264842,0.0
12.712,8491.5,69.2000254176321,0.0
12.72,8057.0,74.51576864221897,0.0
12.728,8150.5,-3.30456073563073,0.0
12.736,8184.5,-22.778009723959713,0.0
12.744,8187.0,-23.38418013100909,0.0
12.752,8213.0,-14.374777095473291,0.0
12.76,8211.5,-1.8618749178560847,0.0
12.768,8227.5,8.782878967698707,0.0
12.776,8235.5,18.649800529906997,0.0
12.784,8253.0,26.867222802110973,0.0
12.792,8265.0,33.6804790001936,0.0
12.8,8248.5,31.68411561103335,0.0
12.808,8200.0,12.420230105170958,0.0
12.816,8141.5,-22.715641710453838,0.0
12.824,8128.0,-54.76063832007276,0.0
12.832,8133.0,-67.14619435717577,0.0
12.84,8143.5,-61.12417337926263,0.0
12.848,8145.5,-45.741853635317966,0.0
12.856,8156.5,-27.053859458347006,0.0
12.864,8163.5,-8.22271125036309,0.0
12.872,8171.5,7.22517120139787,0.0
12.88,8175.5,17.717212071348058,0.0
12.888,8158.0,18.477988141967444,0.0
12.896,8161.5,13.266217208975831,0.0
12.904,8160.0,8.58127100363049,0.0
12.912,8171.5,6.552587811454941,0.0
12.92,8154.0,3.133573314785963,0.0
12.928,8149.5,-3.858131058126901,0.0
12.936,8146.5,-8.940331472238313,0.0
12.944,8152.0,-10.079724579731874,0.0
12.952,8147.0,-9.123204150915853,0.0
12.96,8190.0,0.5890972119386788,0.0
12.968,8456.0,69.37257684428505,0.0
12.976,8035.0,67.86668404897637,0.0
12.984,8134.5,-8.996003844412826,1.0
12.992,8174.5,-24.588605391916417,0.0
13.0,8162.0,-24.46384876455363,0.0
13.008,8184.0,-18.740201838894563,0.0
13.016,8193.0,-6.18068513153662,0.0
13.024,8217.0,8.925984364962005,0.0
13.032,8229.0,23.86158888780369,0.0
13.04,8259.5,37.759567287542495,0.0
13.048,8266.5,47.915293617409816,0.0
13.056,8250.5,44.81814192823322,0.0
13.064,8203.0,23.218429856153534,0.0
13.072,8163.0,-10.952114404528402,0.0
13.08,8152.0,-39.919390169330654,0.0
13.088,8152.0,-53.24564763140006,0.0
13.096,8150.0,-53.4627073089664,0.0
13.104,8147.5,-46.404852280181785,0.0
13.112,8159.5,-33.25446727684334,0.0
13.12,8164.0,-17.06461790730623,0.0
13.128,8169.5,-2.8597619412676067,0.0
13.136,8151.5,3.4207798205770814,0.0
13.144,8150.5,2.7347356048446727,0.0
13.152,8143.0,0.1778349830519801,0.0
13.16,8157.0,-0.03331835391782079,0.0
13.168,8150.0,1.2769631365338228,0.0
13.176,8151.5,0.7346042321075856,0.0
13.184,8154.0,1.1196826948962553,0.0
13.192,8160.0,2.9142173568118324,0.0
13.2,8165.0,5.7809815155253546,0.0
13.208,8172.0,9.051525971036199,0.0
13.216,8165.0,9.61340239356241,0.0
13.224,8372.0,49.348354769198295,0.0
13.232,8165.0,65.3657470321557,0.0
13.24,8088.0,6.9067535160777425,0.0
13.248,8177.0,-26.261334338908682,0.0
13.256,8184.0,-22.282479421894095,0.0
13.264,8199.5,-11.954335745778735,0.0
13.272,8206.5,0.5628983457752383,0.0
13.28,8216.0,11.251191519181702,0.0
13.288,8243.5,23.425547542887443,0.0
13.296,8252.5,34.53083220132248,0.0
13.304,8277.5,42.809425520923014,0.0
13.312,8258.5,42.44076269901893,0.0
13.32,8223.5,24.755971028186423,0.0
13.328,8176.0,-6.310901029840579,0.0
13.336,8151.5,-38.436650211048345,0.0
13.344,8136.5,-59.67819801623159,0.0
13.352,8144.0,-64.72475132244699,0.0
13.36,8152.0,-54.72957557407085,0.0
13.368,8150.0,-39.294990512694085,0.0
13.376,8156.0,-23.39221467661855,0.0
13.384,8151.5,-10.134352173713296,0.0
13.392,8168.5,1.7965735674154075,0.0
13.4,8171.5,12.666138108767882,0.0
13.408,8172.0,17.88909750231028,0.0
13.416,8167.5,17.44854544506643,0.0
13.424,8158.0,11.68238670161486,0.0
13.432,8167.5,6.50110221014188,0.0
13.44,8188.5,8.682430414276268,0.0
13.448,8181.0,11.414166512488464,0.0
13.456,8167.5,7.008871057036686,0.0
13.464,8156.5,-1.6644111893608624,0.0
13.472,8161.5,-7.767236574766457,0.0
13.48,8173.5,-6.725718688376446,0.0
13.488,8197.0,2.162610875236396,0.0
13.496,8526.5,79.209467968843,0.0
13.504,8059.0,84.57224819026874,0.0
13.512,8144.0,-3.22342879451503,1.0
13.52,8177.0,-30.54944030298566,0.0
13.528,8193.5,-31.965451917161772,0.0
13.536,8205.5,-22.13396554483461,0.0
13.544,8211.0,-9.38860585294151,0.0
13.552,8225.0,3.556268396143878,0.0
13.56,8257.0,20.070511338768938,0.0
13.568,8278.5,37.7241750690373,0.0
13.576,8279.5,47.041861025327535,0.0
13.584,8257.5,41.12990643970488,0.0
13.592,8215.0,18.220403784897144,0.0
13.6,8164.5,-17.09064325427744,0.0
13.608,8154.5,-47.742594883324045,0.0
13.616,8139.5,-63.73928823873507,0.0
13.624,8148.5,-64.76188282087855,0.0
13.632,8144.5,-54.52647359869661,0.0
13.64,8155.5,-38.77630668943516,0.0
13.648,8160.0,-20.41607537921186,0.0
13.656,8154.5,-6.666847667271895,0.0
13.664,8154.5,1.3515411992414101,0.0
13.672,8160.5,7.114498502895003,0.0
13.68,8158.5,10.261263299840039,0.0
13.688,8156.0,9.64717246885516,0.0
13.696,8167.5,9.660082366095821,0.0
13.704,8163.5,9.73539093108161,0.0
13.712,8171.5,9.121131412896148,0.0
13.72,8185.5,11.86960629790201,0.0
13.728,8165.5,10.469672450629332,0.0
13.736,8163.5,3.559809824678041,0.0
13.744,8162.5,-1.6792832011437895,0.0
13.752,8164.0,-4.420924612627914,0.0
13.76,8158.0,-6.291416179325324,0.0
13.768,8342.5,30.02392828276038,0.0
13.776,8217.0,59.002529847596406,0.0
13.784,8081.5,13.872431936933936,0.0
13.792,8175.0,-23.501292611039617,0.0
13.8,8195.5,-18.750684367458007,0.0
13.808,8192.5,-9.523092985521316,0.0
13.816,8209.5,0.2381141875132471,0.0
13.824,8221.0,11.797348588470868,0.0
13.832,8236.5,22.36096571705957,0.0
13.84,8255.5,32.26646357034406,0.0
13.848,8280.5,42.22181820621836,0.0
13.856,8277.0,46.10054024381884,0.0
13.864,8249.0,34.9695480495393,0.0
13.872,8201.0,7.558038723193249,0.0
13.88,8159.5,-28.083894358186853,0.0
13.888,8156.5,-53.996011632407544,0.0
13.896,8169.0,-59.19310453491903,0.0
13.904,8173.0,-49.92131977693907,0.0
13.912,8167.5,-37.17579146990943,0.0
13.92,8166.5,-25.329773609119457,0.0
13.928,8166.5,-14.688066341485637,0.0
13.936,8167.5,-5.963393155483345,0.0
13.944,8165.5,-0.1038158499675319,0.0
13.952,8164.0,2.662215331603875,0.0
13.96,8169.0,4.609471229700603,0.0
13.968,8175.0,7.309533978703939,0.0
13.976,8177.5,9.534692014641223,0.0
13.984,8189.0,12.265286497012767,0.0
13.992,8189.0,14.370052845769123,0.0
14.0,8175.5,10.67807743851722,0.0
14.008,8174.0,3.8112143266905605,0.0
14.016,8161.0,-3.7900242267710382,0.0
14.024,8175.5,-7.404320531208896,0.0
14.032,8169.5,-6.682670011349728,0.0
14.04,8287.0,17.53682647828964,0.0
14.048,8365.5,69.24436844729189,0.0
14.056,8070.0,44.992581068953314,0.0
14.064,8176.5,-14.784148156556967,0.0
14.072,8205.0,-20.31394462722892,0.0
14.08,8202.0,-15.294752343339496,0.0
14.088,8210.5,-8.883890781208947,0.0
14.096,8222.5,0.4425517790275535,0.0
14.104,8230.0,9.87496453408039,0.0
14.112,8255.5,20.69804390681361,1.0
14.12,8275.0,33.1542645333725,0.0
14.128,8276.5,39.784592348203205,0.0
14.136,8245.5,31.647069173968475,0.0
14.144,8192.0,4.773062498812806,0.0
14.152,8165.0,-28.29004971407312,0.0
14.16,8144.5,-53.25870346571128,0.0
14.168,8146.5,-63.73004129763649,0.0
14.176,8149.0,-59.3411930225584,0.0
14.184,8171.5,-42.64128948630287,0.0
14.192,8180.5,-19.864595299586426,0.0
14.2,8176.0,-2.463435079270994,0.0
14.208,8163.5,4.727954209461586,0.0
14.216,8161.5,5.301754362306838,0.0
14.224,8163.5,4.837290286297957,0.0
14.232,8177.5,7.09802988204342,0.0
14.24,8171.0,8.891138622648668,0.0
14.248,8173.0,7.684224904872735,0.0
14.256,8184.5,8.563500053840471,0.0
14.264,8167.0,6.559369294370526,0.0
14.272,8159.0,-0.8300191607834222,0.0
14.28,8171.5,-4.154896899778123,0.0
14.288,8177.0,-1.8138778636046027,0.0
14.296,8170.0,-0.4608490072882887,0.0
14.304,8160.0,-3.063913836248048,0.0
14.312,8500.0,63.28043543680269,0.0
14.32,8111.0,82.9115728897807,0.0
14.328,8120.5,4.418859299104952,0.0
14.336,8168.5,-30.924255945652476,0.0
14.344,8185.0,-33.960230652408654,0.0
14.352,8196.0,-24.988656605083406,0.0
14.36,8208.0,-11.195388250893757,0.0
14.368,8213.0,2.132394930575174,0.0
14.376,8225.5,13.266392116021507,0.0
14.384,8246.0,24.581605263613937,0.0
14.392,8278.5,38.3744858464961,0.0
14.4,8276.5,46.944722818925584,0.0
14.408,8222.5,33.454926584641726,0.0
14.416,8159.0,-3.6004252788277427,1.0
14.424,8136.0,-42.64105361359475,0.0
14.432,8142.0,-62.73784382117992,0.0
14.44,8151.5,-61.94459199404423,0.0
14.448,8154.5,-49.53017255992904,0.0
14.456,8148.5,-35.29184905782631,0.0
14.464,8148.5,-22.746472074276426,0.0
14.472,8142.0,-13.20647851266699,0.0
14.48,8147.0,-5.868735259601408,0.0
14.488,8163.0,3.6508808503670025,0.0
14.496,8171.0,13.630469276979284,0.0
14.504,8175.0,19.917451282474758,0.0
14.512,8174.0,21.228743839203617,0.0
14.52,8177.0,19.19431360515091,0.0
14.528,8181.0,16.511176186714238,0.0
14.536,8173.5,11.706031056711481,0.0
14.544,8163.0,3.4120888311815634,0.0
14.552,8166.5,-3.4403536390029785,0.0
14.56,8166.0,-6.3583761262386815,0.0
14.568,8166.0,-7.222235355034854,0.0
14.576,8207.0,1.7381896448002863,0.0
14.584,8487.5,72.456555163252,0.0
14.592,8051.0,71.42308235202518,0.0
14.6,8145.0,-9.989726412504979,0.0
14.608,8172.0,-31.902167120725608,0.0
14.616,8177.0,-33.48677696126174,0.0
14.624,8196.5,-24.34155176565082,0.0
14.632,8200.0,-10.543695140387854,0.0
14.64,8217.0,3.4030500542864957,0.0
14.648,8218.5,14.91475486332456,0.0
14.656,8245.5,25.28407871857462,0.0
14.664,8299.0,44.02933133421925,0.0
14.672,8299.0,59.36997059849841,0.0
14.68,8245.5,48.51111695422992,0.0
14.688,8186.0,11.648357735123454,0.0
14.696,8156.5,-30.10101918152327,0.0
14.704,8144.0,-58.80849667814073,0.0
14.712,8151.0,-67.99364383528382,0.0
14.72,8151.5,-61.584829572633,0.0
14.728,8165.0,-45.5974687650546,0.0
14.736,8173.0,-24.836987744544103,0.0
14.744,8173.0,-7.159286395591835,0.0
14.752,8172.0,4.176408536418421,0.0
14.76,8164.5,8.51056999438265,0.0
14.768,8169.5,9.272731009148856,0.0
14.776,8165.5,8.521917129676012,0.0
14.784,8173.5,7.603067111280552,0.0
14.792,8193.5,11.627369088966134,0.0
14.8,8168.0,11.12083371323979,0.0
14.808,8154.0,1.0653373118739182,0.0
14.816,8161.0,-6.473090163658071,0.0
14.824,8166.0,-7.4982969794805285,0.0
14.832,8159.0,-7.376373920774995,0.0
14.84,8138.0,-11.906346552054174,0.0
14.848,8486.0,54.026147321627604,0.0
14.856,8062.5,69.40280163743705,1.0
14.864,8152.5,-0.16007917654746961,0.0
14.872,8210.0,-11.140810731592182,0.0
14.88,8214.5,-3.279067756633367,0.0
14.888,8216.5,3.195454812125263,0.0
14.896,8222.0,8.072264300660208,0.0
14.904,8234.0,13.30781526879855,0.0
14.912,8237.0,17.45100197135389,0.0
14.92,8274.5,25.52968125967709,0.0
14.928,8282.0,35.63033494794536,0.0
14.936,8271.5,35.588963074576895,0.0
14.944,8208.0,15.050527943220686,0.0
14.952,8151.5,-23.893805334496392,0.0
14.96,8130.5,-59.13615079599049,0.0
14.968,8133.5,-74.69009216620611,0.0
14.976,8131.5,-72.36046705121316,0.0
14.984,8134.0,-59.90987927697256,0.0
14.992,8132.5,-43.25927652606515,0.0
15.0,8143.5,-24.91266274751115,0.0
15.008,8152.0,-6.301585802818636,0.0
15.016,8157.0,8.41843033639293,0.0
15.024,8140.0,13.395880316389821,0.0
15.032,8153.5,13.593509569820526,0.0
15.04,8160.0,15.735467169099593,0.0
15.048,8166.0,17.17029510985367,0.0
15.056,8175.5,18.582293357461594,0.0
15.064,8156.5,14.659193953854583,0.0
15.072,8152.5,5.417653642490677,0.0
15.08,8143.5,-3.525069017269516,0.0
15.088,8140.0,-10.833098687956408,0.0
15.096,8138.5,-14.53413387941032,0.0
15.104,8187.5,-4.815084586485455,0.0
15.112,8367.5,48.44765756530796,0.0
15.12,8024.5,39.300884366484524,0.0
15.128,8144.0,-17.728214411877616,0.0
15.136,8161.5,-20.77810992274067,0.0
15.144,8167.0,-14.732687422774916,0.0
15.152,8179.0,-5.348520787372308,0.0
15.16,8185.0,4.689573609947956,0.0
15.168,8201.5,14.511859921952919,0.0
15.176,8222.0,25.67970509845668,0.0
15.184,8251.0,38.503894724784686,0.0
15.192,8259.5,47.91173531917184,0.0
15.2,8240.5,44.06637348255981,0.0
15.208,8160.0,14.783318457818723,0.0
15.216,8120.5,-29.292056496474515,1.0
15.224,8119.0,-59.293472865236254,0.0
15.232,8125.5,-67.02516656865782,0.0
15.24,8133.5,-58.47350914455319,0.0
15.248,8134.0,-42.81424185891501,0.0
15.256,8138.5,-26.04072845805058,0.0
15.264,8147.5,-9.414757352301194,0.0
15.272,8150.5,4.296812783090445,0.0
15.28,8146.0,11.44791398458301,0.0
15.288,8134.5,10.672611371838457,0.0
15.296,8141.5,7.676651117635174,0.0
15.304,8136.0,5.047425478321884,0.0
15.312,8153.0,5.07671596956925,0.0
15.32,8160.5,9.329718449300117,0.0
15.328,8151.0,10.021840015726866,0.0
15.336,8144.0,5.540766729233837,0.0
15.344,8143.0,0.4162151442631057,0.0
15.352,8148.5,-1.7581856340530067,0.0
15.36,8143.5,-2.675410562663501,0.0
15.368,8258.5,19.660858620155977,0.0
15.376,8280.5,57.87888608721801,0.0
15.384,8042.0,27.4747137613424,0.0
15.392,8147.0,-21.94591457516276,0.0
15.4,8161.0,-23.534134919185362,0.0
15.408,8163.0,-17.636539985246145,0.0
15.416,8177.0,-8.205991241120728,0.0
15.424,8175.5,1.1691051740417606,0.0
15.432,8204.5,12.154544262552236,0.0
15.44,8238.0,29.577343971638356,0.0
15.448,8273.5,49.49364141162391,0.0
15.456,8276.5,61.63386838436418,0.0
15.464,8244.0,53.44228234409616,0.0
15.472,8203.5,25.58135088277163,0.0
15.48,8187.0,-6.419139779609168,0.0
15.488,8169.5,-31.317187868799692,0.0
15.496,8173.0,-44.15400866955815,0.0
15.504,8155.0,-48.01377639578436,0.0
15.512,8171.0,-43.42558308359753,0.0
15.52,8181.5,-28.71433031078709,0.0
15.528,8180.5,-13.719830439167026,0.0
15.536,8181.5,-2.772019698820259,0.0
15.544,8177.5,3.509865957351394,0.0
15.552,8178.0,5.977772785301568,0.0
15.56,8177.0,6.42883748988379,0.0
15.568,8170.5,4.188652584226929,0.0
15.576,8174.5,1.7180096910290104,0.0
15.584,8185.5,3.06091737395991,0.0
15.592,8175.5,3.5953403846824585,0.0
15.6,8177.5,1.7318946379543831,0.0
15.608,8169.5,-0.8585247198682282,0.0
15.616,8181.5,-1.44312867921235,0.0
15.624,8156.5,-4.225977871195937,0.0
15.632,8302.5,19.489357571287883,0.0
15.64,8318.0,63.554334329458925,0.0
15.648,8066.5,31.763707157688486,0.0
15.656,8163.0,-23.519598035323952,0.0
15.664,8183.0,-28.84715888033429,0.0
15.672,8208.5,-18.328612292503294,0.0
15.68,8219.5,-1.8721471295780248,0.0
15.688,8229.5,12.434336150624404,0.0
15.696,8234.5,22.074487012592044,0.0
15.704,8258.5,30.3536274576129,0.0
15.712,8280.5,40.04576718485146,0.0
15.72,8282.5,44.609491439968224,0.0
15.728,8243.5,32.98601449239777,0.0
15.736,8203.0,4.868924709660632,0.0
15.744,8170.5,-27.41162246412091,1.0
15.752,8153.0,-52.56140054210459,0.0
15.76,8144.0,-64.87998095024568,0.0
15.768,8154.5,-62.02214693766109,0.0
15.776,8162.0,-47.25132422422098,0.0
15.784,8168.0,-28.59396441255467,0.0
15.792,8171.5,-11.28399223461679,0.0
15.8,8167.5,0.5617327750896948,0.0
15.808,8169.0,6.971357637110486,0.0
15.816,8166.5,9.500758285288612,0.0
15.824,8170.0,9.760515384966766,0.0
15.832,8174.5,10.0687325595527,0.0
15.84,8167.5,8.213720925694815,0.0
15.848,8185.0,8.016531715997644,0.0
15.856,8173.5,7.910318457218409,0.0
15.864,8157.5,1.0299337954861585,0.0
15.872,8153.5,-7.281280956652154,0.0
15.88,8161.5,-10.275388224568815,0.0
15.888,8170.0,-7.117264585672501,0.0
15.896,8179.5,-0.4930793150881527,0.0
15.904,8509.5,72.8593394274551,0.0
15.912,8066.0,82.00535953450958,0.0
15.92,8154.5,2.4545276677042693,0.0
15.928,8188.5,-19.936987540370637,0.0
15.936,8208.0,-19.22651598290554,0.0
15.944,8216.5,-10.170954432046983,0.0
15.952,8224.0,-0.004660326595285369,0.0
15.96,8243.0,11.422347651687915,0.0
15.968,8255.5,22.88397456957614,0.0
15.976,8292.0,36.20362156878514,0.0
15.984,8300.0,47.683329168443834,0.0
15.992,8304.5,49.79681409041018,0.0
16.0,8239.5,31.136740927399615,0.0
16.008,8199.5,-6.071079575967133,0.0
16.016,8176.0,-40.12837830035869,0.0
16.024,8179.5,-58.271889300567636,0.0
16.032,8185.5,-58.226367735261874,0.0
16.04,8186.0,-48.04368637667312,0.0
16.048,8197.5,-32.286065579767865,0.0
16.056,8194.0,-16.437679394536417,0.0
16.064,8193.0,-5.492177423700696,0.0
16.072,8187.5,0.4856979633343599,0.0
16.08,8189.5,3.232313182883672,0.0
16.088,8198.0,6.511758719763748,0.0
16.096,8190.0,7.566108332651993,0.0
16.104,8188.5,5.101679795082873,0.0
16.112,8180.0,0.8277377033514313,0.0
16.12,8198.5,0.21764883332048157,0.0
16.128,8187.5,1.3561013314854335,0.0
16.136,8173.5,-3.2837413140171066,0.0
16.144,8179.5,-7.164289256968914,0.0
16.152,8194.0,-4.184881199958227,0.0
16.16,8219.5,6.383646171155988,0.0
16.168,8244.0,21.881060941430633,0.0
16.176,8538.0,92.7985919159496,0.0
16.184,8070.5,85.22354792347346,0.0
16.192,8169.5,-7.462070159055884,1.0
16.2,8207.5,-33.1556410479202,0.0
16.208,8213.5,-34.33475370940573,0.0
16.216,8215.5,-28.192118467473165,0.0
16.224,8234.0,-16.096949289443046,0.0
16.232,8260.5,2.69013842802201,0.0
16.24,8284.0,23.60797560807964,0.0
16.248,8312.5,43.02314513656029,0.0
16.256,8324.5,56.256611146817704,0.0
16.264,8305.0,54.02143867314521,0.0
16.272,8249.0,29.084561379068873,0.0
16.28,8208.5,-9.787659090544594,0.0
16.288,8189.0,-43.55075100304089,0.0
16.296,8180.0,-62.73795348866997,0.0
16.304,8168.5,-68.76158603023987,0.0
16.312,8167.5,-64.45264462087971,0.0
16.32,8168.0,-52.23471249775116,0.0
16.328,8183.5,-33.82083542819669,0.0
16.336,8176.5,-16.066704025641457,0.0
16.344,8178.0,-4.25469254411496,0.0
16.352,8174.0,2.865221121852528,0.0
16.36,8180.5,7.152277045132905,0.0
16.368,8197.0,13.30218418768095,0.0
16.376,8189.5,16.761168416936243,0.0
16.384,8166.0,9.932289462338076,0.0
16.392,8151.0,-3.4777323468681516,0.0
16.4,8153.0,-13.537042579865783,0.0
16.408,8164.0,-14.777815912763572,0.0
16.416,8165.5,-10.717355590636089,0.0
16.424,8154.5,-8.631986271513142,0.0
16.432,8406.5,43.14650736840781,0.0
16.44,8193.5,75.19443549707648,0.0
16.448,8104.0,20.946164030545106,0.0
16.456,8178.5,-17.37637235002603,0.0
16.464,8188.0,-20.244524795932648,0.0
16.472,8191.5,-16.21552579335753,0.0
16.48,8208.0,-7.28830082966283,0.0
16.488,8235.5,8.08547399868121,0.0
16.496,8245.5,23.612926703345238,0.0
16.504,8275.0,37.28572079143282,0.0
16.512,8292.0,49.21882163117493,0.0
16.52,8278.5,49.52893636766771,0.0
16.528,8227.0,28.923612765308917,0.0
16.536,8168.5,-10.120593410479387,1.0
16.544,8145.0,-48.42953874799446,0.0
16.552,8147.5,-68.03321346386201,0.0
16.56,8142.5,-69.82290824370239,0.0
16.568,8149.0,-59.98890250707609,0.0
16.576,8154.5,-42.626452137780234,0.0
16.584,8166.5,-22.320389903650494,0.0
16.592,8179.5,-1.8198629999756122,0.0
16.6,8180.5,13.440239065379956,0.0
16.608,8173.0,19.09938402727107,0.0
16.616,8162.0,15.77093572093213,0.0
16.624,8183.0,13.45444511575738,0.0
16.632,8189.0,15.560745958217922,0.0
16.64,8188.0,15.468720167408037,0.0
16.648,8172.5,9.69809210349922,0.0
16.656,8157.5,-1.416168195242335,0.0
16.664,8173.0,-7.672265186692584,0.0
16.672,8175.0,-6.633640246707728,0.0
16.68,8167.5,-6.13731554174251,0.0
16.688,8212.5,2.7479804595525366,0.0
16.696,8518.0,79.19354251027903,0.0
16.704,8061.0,81.44507119408104,0.0
16.712,8148.0,-5.162717572920883,0.0
16.72,8193.5,-28.529832926247764,0.0
16.728,8201.0,-27.19570331255136,0.0
16.736,8209.5,-19.01469844375083,0.0
16.744,8218.5,-7.718348502764911,0.0
16.752,8236.5,5.648609221601873,0.0
16.76,8269.5,23.11675219113704,0.0
16.768,8296.0,42.098509701084595,0.0
16.776,8294.5,52.04917942737757,0.0
16.784,8261.0,42.89219028610046,0.0
16.792,8208.0,13.301778378056952,0.0
16.8,8166.0,-25.62322735939756,1.0
16.808,8155.5,-55.48442114577779,0.0
16.816,8158.5,-66.26444494960856,0.0
16.824,8137.5,-66.2706760877702,0.0
16.832,8136.0,-60.82371300039199,0.0
16.84,8161.0,-43.5797258174789,0.0
16.848,8187.5,-16.252966948487256,0.0
16.856,8178.5,5.947439251809556,0.0
16.864,8153.0,11.12664244969801,0.0
16.872,8147.0,6.067208388648169,0.0
16.88,8170.5,5.730471445340754,0.0
16.888,8191.0,13.651754930852803,0.0
16.896,8200.0,22.293496056387085,0.0
16.904,8198.0,25.454356138548064,0.0
16.912,8162.5,15.803221828500682,0.0
16.92,8168.0,1.5705772173098467,0.0
16.928,8180.0,-3.5094389609564587,0.0
16.936,8173.5,-4.858025250169021,0.0
16.944,8165.0,-7.983555353343036,0.0
16.952,8327.5,22.84073946386934,0.0
16.96,8274.5,59.978191159949574,0.0
16.968,8090.5,24.428521778282857,0.0
16.976,8182.0,-19.19697257756411,0.0
16.984,8198.5,-20.02204136048499,0.0
16.992,8192.5,-15.329249223490251,0.0
17.0,8203.5,-9.208340448065883,0.0
17.008,8222.5,1.9366727421090673,0.0
17.016,8235.5,14.771819099546292,0.0
17.024,8265.5,28.90785680597378,0.0
17.032,8298.5,45.75606582693081,0.0
17.04,8291.0,53.99258022581421,0.0
17.048,8250.5,40.87128923404134,0.0
17.056,8211.5,10.672893970407813,0.0
17.064,8170.0,-25.250740262704085,0.0
17.072,8162.5,-52.67834844492745,0.0
17.08,8150.5,-64.89619736892246,0.0
17.088,8141.5,-66.5731008689545,0.0
17.096,8152.0,-57.16509971241908,0.0
17.104,8166.0,-37.928949280071265,0.0
17.112,8165.0,-18.146334507058555,0.0
17.12,8163.0,-4.308632715808926,0.0
17.128,8157.5,2.995944704983458,0.0
17.136,8154.5,5.12508216293304,0.0
17.144,8169.5,8.058837487406208,0.0
17.152,8179.0,13.5774108597127,0.0
17.16,8171.0,15.089041543702251,0.0
17.168,8161.5,10.120076211780543,0.0
17.176,8166.0,4.625611179078305,0.0
17.184,8149.0,-1.8788639398571831,0.0
17.192,8145.5,-9.628908749669563,0.0
17.2,8148.0,-12.956717076761151,0.0
17.208,8281.0,14.722375500592307,0.0
17.216,8274.5,54.70371359202045,0.0
17.224,8049.5,22.759241526227243,0.0
17.232,8151.0,-24.814388044336283,0.0
17.24,8176.5,-23.240995332869034,0.0
17.248,8178.5,-13.168611592047455,0.0
17.256,8192.0,-2.0486407237174262,0.0
17.264,8209.5,11.17161538352002,0.0
17.272,8227.0,24.446833144938182,0.0
17.28,8253.5,37.58058285044035,0.0
17.288,8268.5,48.12868504094763,0.0
17.296,8269.0,50.23660132567079,0.0
17.304,8236.5,37.32913143645078,0.0
17.312,8182.0,6.261966369984066,0.0
17.32,8145.0,-31.754017271087605,0.0
17.328,8139.5,-58.10510853006008,0.0
17.336,8143.5,-65.18613139946979,0.0
17.344,8150.5,-57.24354064052659,0.0
17.352,8139.5,-44.68471242341957,0.0
17.36,8142.5,-32.1171188765768,0.0
17.368,8152.0,-17.26157015296235,0.0
17.376,8165.0,-1.2621968002786161,0.0
17.384,8163.0,10.638479224452794,0.0
17.392,8158.5,14.735645026648399,0.0
17.4,8162.0,14.720303585364945,0.0
17.408,8160.5,12.888060556650998,0.0
17.416,8159.5,9.339740885106494,0.0
17.424,8146.0,2.8628935692115647,0.0
17.432,8148.5,-3.648860780153882,0.0
17.44,8141.0,-7.968195325091074,0.0
17.448,8143.5,-10.336074311957418,0.0
17.456,8145.0,-9.352159876646965,0.0
17.464,8414.5,48.01314670894135,0.0
17.472,8088.5,63.11653811531414,0.0
17.48,8086.0,-4.633374061619861,1.0
17.488,8167.5,-27.858321113154716,0.0
17.496,8176.5,-18.88064160593308,0.0
17.504,8190.5,-6.00980966248062,0.0
17.512,8202.5,7.8249586432750675,0.0
17.52,8218.0,20.438734387549857,0.0
17.528,8234.5,31.337373564065274,0.0
17.536,8256.5,40.89727681899308,0.0
17.544,8270.5,47.70530762268754,0.0
17.552,8256.0,44.396727680261165,0.0
17.56,8217.0,24.778876904916615,0.0
17.568,8174.0,-7.332525509807738,0.0
17.576,8154.5,-37.980260061221315,0.0
17.584,8155.5,-54.126589274396565,0.0
17.592,8131.5,-60.16819089545265,0.0
17.6,8141.5,-57.47918774085883,0.0
17.608,8147.0,-44.00772961617736,0.0
17.616,8177.0,-22.115960973821075,0.0
17.624,8170.0,-1.117245401851278,0.0
17.632,8175.5,11.164296722763083,0.0
17.64,8157.0,14.079030611365852,0.0
17.648,8175.5,13.668252205728322,0.0
17.656,8188.0,17.686375719932357,0.0
17.664,8196.0,21.56939092032667,0.0
17.672,8181.0,19.16551968097565,0.0
17.68,8160.0,7.483325514928083,0.0
17.688,8161.0,-4.646081818891844,0.0
17.696,8157.0,-11.727894948826133,0.0
17.704,8158.0,-14.750882727568296,0.0
17.712,8173.0,-11.033451594283633,0.0
17.72,8486.5,59.95065332674835,0.0
17.728,8073.5,72.51337726454949,0.0
17.736,8114.0,-7.1529894643147145,0.0
17.744,8174.0,-32.650836934673634,0.0
17.752,8201.5,-24.903647494072402,0.0
17.76,8209.5,-9.293606258656837,0.0
17.768,8208.5,2.777272568980379,0.0
17.776,8222.0,12.048663408424773,0.0
17.784,8248.5,23.87706204928554,1.0
17.792,8265.0,36.037248511194775,0.0
17.8,8274.0,42.974761518186824,0.0
17.808,8260.5,39.64276046643499,0.0
17.816,8217.5,20.118913555681274,0.0
17.824,8173.0,-12.35404421465978,0.0
17.832,8157.5,-41.94352843956358,0.0
17.84,8150.5,-57.6803351849901,0.0
17.848,8142.5,-61.306549472770484,0.0
17.856,8154.5,-53.339086796976744,0.0
17.864,8169.5,-35.02418510473353,0.0
17.872,8168.0,-16.124641440981122,0.0
17.88,8168.0,-2.809247743280821,0.0
17.888,8166.5,5.184918018081817,0.0
17.896,8180.0,11.578169590193738,0.0
17.904,8183.0,16.97470445850422,0.0
17.912,8178.5,17.286189490085462,0.0
17.92,8198.0,17.914123225003095,0.0
17.928,8186.5,17.203896265262756,0.0
17.936,8182.0,10.90674228382818,0.0
17.944,8172.0,2.5666629806908077,0.0
17.952,8172.0,-4.797790816135375,0.0
17.96,8153.5,-12.205280181775606,0.0
17.968,8165.0,-16.16569841048704,0.0
17.976,8542.0,63.31389770925034,0.0
17.984,8070.0,81.31028729929767,0.0
17.992,8143.0,-1.890305760077581,0.0
18.0,8184.0,-27.51811269522159,0.0
18.008,8198.0,-27.265739436269087,0.0
18.016,8210.0,-17.670856946252115,0.0
18.024,8225.5,-3.699076101011542,0.0
18.032,8241.0,11.457961209140876,0.0
18.04,8273.5,28.49108548984873,0.0
18.048,8278.5,41.90614316591291,0.0
18.056,8285.5,45.93793010913305,0.0
18.064,8270.5,39.723183234532826,0.0
18.072,8232.0,19.095194628632044,0.0
18.08,8173.0,-15.918551090154779,0.0
18.088,8165.0,-47.900337573245,0.0
18.096,8168.0,-60.57356092926216,0.0
18.104,8172.0,-57.45471174362456,0.0
18.112,8169.0,-46.695116187264375,0.0
18.12,8170.0,-33.660979983626476,0.0
18.128,8179.5,-18.704052783776433,0.0
18.136,8178.5,-5.2862385144485415,0.0
18.144,8183.5,4.2676941757756595,0.0
18.152,8186.0,10.803097589751815,0.0
18.16,8187.5,13.847450583043155,0.0
18.168,8204.5,17.328004217525404,0.0
18.176,8192.5,17.78077205042905,0.0
18.184,8176.5,9.632340202279238,0.0
18.192,8176.5,0.08418138226556948,0.0
18.2,8168.5,-7.2097534883769185,0.0
18.208,8176.5,-10.430290817129162,0.0
18.216,8162.0,-12.081511440403801,0.0
18.224,8315.5,17.171473721077746,0.0
18.232,8330.5,66.29293171456243,0.0
18.24,8067.5,34.6258856290965,0.0
18.248,8156.5,-24.899989614825017,0.0
18.256,8186.0,-32.1187140881741,0.0
18.264,8186.5,-25.3892549438051,0.0
18.272,8206.0,-13.47413668317131,0.0
18.28,8224.5,3.3787140990700664,0.0
18.288,8236.0,18.962234059101092,0.0
18.296,8265.5,33.679737365218216,0.0
18.304,8288.0,47.90104169838446,0.0
18.312,8287.0,53.441602038149085,0.0
18.32,8243.0,39.4223655299711,0.0
18.328,8185.5,4.417982569550304,0.0
18.336,8139.0,-38.200655837302975,1.0
18.344,8130.5,-68.85012334121734,0.0
18.352,8119.0,-80.6236930112832,0.0
18.36,8121.5,-77.20176662294239,0.0
18.368,8131.5,-60.91958562559148,0.0
18.376,8158.0,-34.59722229615272,0.0
18.384,8177.5,-4.387034832933978,0.0
18.392,8190.0,20.68197286880627,0.0
18.4,8177.5,32.37211148883921,0.0
18.408,8179.0,32.13033692403815,0.0
18.416,8205.5,32.836436598198134,0.0
18.424,8225.0,37.6734693269882,0.0
18.432,8222.5,38.29545389385544,0.0
18.44,8200.5,27.851881516317007,0.0
18.448,8203.5,13.571180381039994,0.0
18.456,8183.0,-0.5072182852582046,0.0
18.464,8174.0,-14.783134084727408,0.0
18.472,8181.5,-21.29104077014881,0.0
18.48,8334.0,10.776298922030264,0.0
18.488,8313.0,54.972615030914994,0.0
18.496,8095.0,23.947849201471627,0.0
18.504,8198.5,-21.42336715170495,0.0
18.512,8222.0,-19.061589687517653,0.0
18.52,8220.5,-10.28025826465273,0.0
18.528,8241.0,0.3533308192882032,0.0
18.536,8245.0,11.593818945612384,0.0
18.544,8265.5,21.489035488331183,0.0
18.552,8281.0,31.437888487987493,0.0
18.56,8288.5,37.254187738193195,0.0
18.568,8277.5,34.330710051091046,0.0
18.576,8230.5,15.547381491853002,0.0
18.584,8171.5,-19.574101974948917,0.0
18.592,8148.5,-54.129892086775726,0.0
18.6,8138.5,-73.10132603110856,0.0
18.608,8148.5,-73.23797691370578,0.0
18.616,8153.0,-59.25268830551545,0.0
18.624,8159.0,-39.853246089074446,0.0
18.632,8159.0,-21.112420484625545,0.0
18.64,8154.5,-7.747588682309015,0.0
18.648,8158.0,1.1266758806955295,0.0
18.656,8166.5,8.655693842541723,0.0
18.664,8181.0,16.494956257972035,0.0
18.672,8185.5,22.511968721888934,0.0
18.68,8194.5,25.415400923824336,0.0
18.688,8173.5,20.82760127982283,0.0
18.696,8154.5,6.784640969770862,0.0
18.704,8162.5,-4.796283327001447,0.0
18.712,8171.0,-7.5470860976711265,0.0
18.72,8182.5,-3.943662501039398,0.0
18.728,8189.0,2.462716894874575,0.0
18.736,8569.0,84.84033075023717,0.0
18.744,8065.5,95.46436842324078,0.0
18.752,8152.0,2.0804379910955504,1.0
18.76,8182.0,-29.66103743853887,0.0
18.768,8189.5,-36.27464938844673,0.0
18.776,8201.5,-30.70239750446899,0.0
18.784,8209.0,-18.76826499628237,0.0
18.792,8222.5,-4.574630891127299,0.0
18.8,8249.0,12.685061930661504,0.0
18.808,8273.5,31.38855273398144,0.0
18.816,8285.0,45.0457209469173,0.0
18.824,8258.5,43.22857235687388,0.0
18.832,8195.0,17.212877672908462,0.0
18.84,8164.0,-20.088864597006932,0.0
18.848,8160.0,-46.253873339016536,0.0
18.856,8159.5,-55.63453692825465,0.0
18.864,8149.5,-54.892552086098476,0.0
18.872,8138.5,-50.42170196504003,0.0
18.88,8145.5,-40.95032670224964,0.0
18.888,8168.5,-23.011393373249348,0.0
18.896,8181.0,-1.6608596642342945,0.0
18.904,8176.5,12.852023296186644,0.0
18.912,8163.0,15.808985085430322,0.0
18.92,8177.0,15.263049085027433,0.0
18.928,8189.5,18.040096880115016,0.0
18.936,8189.5,19.50110704883832,0.0
18.944,8169.5,13.32253155862054,0.0
18.952,8167.0,3.0519106165386347,0.0
18.96,8161.5,-5.119229943468099,0.0
18.968,8162.5,-10.094847024944102,0.0
18.976,8164.0,-10.996168740148732,0.0
18.984,8502.5,59.60022031946414,0.0
18.992,8069.5,73.00828363774235,0.0
19.0,8132.5,-5.722432362173549,0.0
19.008,8180.0,-28.840818633169192,0.0
19.016,8183.0,-27.82319400710753,0.0
19.024,8196.0,-19.734234670340356,0.0
19.032,8205.0,-7.46387641092474,0.0
19.04,8225.0,6.849128903033943,0.0
19.048,8252.5,23.979697018342904,0.0
19.056,8285.0,42.73313110662775,1.0
19.064,8290.5,55.108465357850264,0.0
19.072,8280.0,53.050619691066004,0.0
19.08,8221.5,29.693756152911646,0.0
19.088,8171.0,-10.890168208342402,0.0
19.096,8152.0,-47.439263415598134,0.0
19.104,8152.0,-65.74370144619843,0.0
19.112,8147.5,-67.52074848696293,0.0
19.12,8151.5,-58.43689913949834,0.0
19.128,8163.0,-41.03833916654662,0.0
19.136,8168.0,-21.15599926833147,0.0
19.144,8159.5,-6.90516991229174,0.0
19.152,8166.0,2.161050690027423,0.0
19.16,8177.5,10.872572652558347,0.0
19.168,8174.0,16.0105486255477,0.0
19.176,8170.0,15.089494811557415,0.0
19.184,8144.0,6.1280148535449825,0.0
19.192,8132.0,-7.8643003267818585,0.0
19.2,8138.0,-16.17281664690222,0.0
19.208,8140.0,-17.000063007737253,0.0
19.216,8136.5,-15.218336166447216,0.0
19.224,8182.0,-3.2767118372159985,0.0
19.232,8395.5,57.19624678898958,0.0
19.24,8019.5,51.089344748479334,0.0
19.248,8119.5,-16.65504225282507,0.0
19.256,8150.5,-27.4304520657779,0.0
19.264,8158.5,-21.676499209359008,0.0
19.272,8159.0,-13.250650831402027,0.0
19.28,8162.5,-5.441459624609934,0.0
19.288,8156.0,-0.6110297848438222,0.0
19.296,8139.5,-2.3606011723059055,0.0
19.304,8154.0,-3.446001454095949,0.0
19.312,8184.0,5.525935785228967,0.0
19.32,8170.0,13.262940775960715,0.0
19.328,8132.0,5.204131538250749,0.0
19.336,8131.5,-8.216424462753366,0.0
19.344,8117.0,-17.972124590226713,0.0
19.352,8128.5,-21.629745813916543,0.0
19.36,8118.5,-20.207080967713182,0.0
19.368,8137.5,-14.463379915954192,0.0
19.376,8165.0,0.6262428603072294,0.0
19.384,8148.5,11.702584151268638,0.0
19.392,8155.5,14.538006410972685,0.0
19.4,8181.0,20.650513879787923,0.0
19.408,8184.5,27.059302972533487,0.0
19.416,8199.5,30.526505801646408,0.0
19.424,8180.0,27.02947153111677,0.0
19.432,8154.0,11.567656797350537,0.0
19.44,8139.0,-7.706562051144374,0.0
19.448,8149.5,-18.85625124086596,0.0
19.456,8163.5,-17.585958593580017,0.0
19.464,8172.5,-9.469551759118758,0.0
19.472,8429.0,51.00804253405977,0.0
19.48,8079.5,60.04099411556581,0.0
19.488,8116.5,-7.5638642048004385,1.0
19.496,8182.5,-25.355509965826286,0.0
19.504,8151.5,-24.882736493201946,0.0
19.512,8161.0,-25.223090208311305,0.0
19.52,8207.5,-10.159410477887832,0.0
19.528,8233.0,14.999170775077346,0.0
19.536,8241.0,34.447940533896826,0.0
19.544,8242.0,42.5659039344755,0.0
19.552,8240.0,40.70905982008048,0.0
19.56,8236.0,32.213146349251474,0.0
19.568,8198.5,13.826299706994632,0.0
19.576,8162.5,-14.15999190466141,0.0
19.584,8146.0,-39.29000999153004,0.0
19.592,8141.5,-52.485349295802735,0.0
19.6,8144.0,-52.74025439251659,0.0
19.608,8145.5,-44.07775646525829,0.0
19.616,8167.0,-27.573142362476347,0.0
19.624,8170.0,-8.62655675528731,0.0
19.632,8163.5,3.1712576798242935,0.0
19.64,8169.0,9.463364766453651,0.0
19.648,8174.0,13.89490738031327,0.0
19.656,8173.5,15.328436118652917,0.0
19.664,8185.5,16.20171028629079,0.0
19.672,8172.5,14.057491849217286,0.0
19.68,8183.5,10.249521260339407,0.0
19.688,8193.5,10.73386263920088,0.0
19.696,8187.0,10.107973944275955,0.0
19.704,8161.5,1.6677098651905453,0.0
19.712,8241.0,7.455551615327977,0.0
19.72,8377.5,53.87710010709952,0.0
19.728,8054.5,35.060219309470085,0.0
19.736,8166.0,-24.59322039186418,0.0
19.744,8220.5,-22.229606955904273,0.0
19.752,8218.0,-6.837856201861541,0.0
19.76,8224.0,4.016552414927901,0.0
19.768,8244.5,15.240846864903688,0.0
19.776,8264.5,27.842367202774994,0.0
19.784,8263.0,34.85321930073383,0.0
19.792,8274.5,35.758274481388526,0.0
19.8,8285.5,35.46891468674198,0.0
19.808,8253.0,25.527813935922268,0.0
19.816,8207.0,-0.2592692763003015,0.0
19.824,8192.0,-27.932749775161028,1.0
19.832,8190.5,-43.43482955128502,0.0
19.84,8191.0,-46.221801956682384,0.0
19.848,8187.0,-41.57729497330661,0.0
19.856,8190.5,-32.62908293803821,0.0
19.864,8208.5,-17.997703260081153,0.0
19.872,8209.0,-2.836499940669455,0.0
19.88,8191.0,2.984593153961214,0.0
19.888,8197.0,3.5230685711633214,0.0
19.896,8198.0,4.73748903543833,0.0
19.904,8208.0,6.984745106627997,0.0
19.912,8208.0,9.297807082896952,0.0
19.92,8178.0,3.1270660931672865,0.0
19.928,8171.0,-8.555530584142616,0.0
19.936,8172.0,-15.39328452344921,0.0
19.944,8165.0,-18.329122248275553,0.0
19.952,8157.0,-20.35097292309979,0.0
19.96,8244.5,-2.219328839816626,0.0
19.968,8380.5,54.501406258209954,0.0
19.976,8069.5,44.03025473823982,0.0
19.984,8171.5,-11.536745614872416,0.0
19.992,8190.5,-17.929471466717132,0.0
20.0,8198.5,-13.475677235972398,0.0
20.008,8214.5,-3.8954191584796263,0.0
20.016,8225.5,7.877043454534487,0.0
20.024,8251.5,21.20413617072404,0.0
20.032,8270.5,35.06449659963073,0.0
20.04,8303.0,48.46679179124749,0.0
20.048,8302.0,55.48022532602772,0.0
20.056,8258.5,42.12511465607713,0.0
20.064,8188.5,4.652116060561866,0.0
20.072,8158.0,-38.74690207889944,0.0
20.08,8167.0,-62.93098987825647,0.0
20.088,8176.0,-64.01492382577612,0.0
20.096,8178.5,-52.601083045568885,0.0
20.104,8167.5,-39.61256836645566,0.0
20.112,8168.5,-27.96845751090973,0.0
20.12,8164.0,-17.556854148921275,0.0
20.128,8153.0,-11.904285541058925,0.0
20.136,8161.5,-7.2672876460226234,0.0
20.144,8157.5,-2.5038144397412907,0.0
20.152,8163.5,1.101505232757745,0.0
20.16,8204.5,12.668822890582078,0.0
20.168,8206.0,26.27175742998702,0.0
20.176,8182.0,25.736633419693135,0.0
20.184,8185.5,17.330017656000564,0.0
20.192,8181.0,9.526622897177276,0.0
20.2,8180.5,2.445855501550568,0.0
20.208,8174.5,-3.4404745844396984,0.0
20.216,8507.5,60.406345609645314,0.0
20.224,8103.0,74.39942587803012,0.0
20.232,8126.5,-6.443534713291001,1.0
20.24,8183.0,-36.93294646661343,0.0
20.248,8191.0,-36.18746052396568,0.0
20.256,8198.5,-27.09347243673119,0.0
20.264,8209.0,-13.930197818440092,0.0
20.272,8225.0,1.380495347767237,0.0
20.28,8236.0,15.742036911793093,0.0
20.288,8262.5,29.510031221054305,0.0
20.296,8274.5,41.043913039252175,0.0
20.304,8258.0,40.72293634499397,0.0
20.312,8203.5,19.853674909916663,0.0
20.32,8155.0,-16.54140825927766,0.0
20.328,8138.5,-48.8370812859489,0.0
20.336,8147.5,-62.064667283442986,0.0
20.344,8151.0,-57.92394339287489,0.0
20.352,8157.5,-44.65016434539098,0.0
20.36,8161.5,-27.885422702993083,0.0
20.368,8168.0,-11.5978642523105,0.0
20.376,8161.5,-0.20705592053900546,0.0
20.384,8163.0,5.539337348009212,0.0
20.392,8158.5,7.4850134552496,0.0
20.4,8176.0,10.156777424370375,0.0
20.408,8185.5,15.713089144372589,0.0
20.416,8196.0,20.702809438155327,0.0
20.424,8173.5,18.06332162638546,0.0
20.432,8159.0,6.2045896183860805,0.0
20.44,8166.0,-3.2815901449314424,0.0
20.448,8166.0,-6.964067647805905,0.0
20.456,8173.0,-6.655938146385552,0.0
20.464,8295.5,20.99236466582738,0.0
20.472,8336.0,67.46186946278044,0.0
20.48,8071.5,38.95245765194977,0.0
20.488,8163.5,-19.055506038415388,0.0
20.496,8192.0,-25.854031168201573,0.0
20.504,8194.5,-19.621565876166414,0.0
20.512,8222.0,-6.8318104588659025,0.0
20.52,8225.0,7.998988055533118,0.0
20.528,8246.5,20.562527037193377,0.0
20.536,8260.5,32.12774073330047,0.0
20.544,8282.0,41.34912359536611,0.0
20.552,8285.0,45.538989212695014,0.0
20.56,8241.0,32.7362867522329,0.0
20.568,8191.0,0.9973046659529246,1.0
20.576,8162.5,-33.96189488155733,0.0
20.584,8137.0,-60.51992824009767,0.0
20.592,8131.0,-73.4862458837365,0.0
20.6,8149.5,-67.45936218933912,0.0
20.608,8159.0,-47.947014465397615,0.0
20.616,8160.5,-26.89080178802942,0.0
20.624,8171.5,-7.807469064274983,0.0
20.632,8171.0,6.807245568300004,0.0
20.64,8166.0,13.294650397240957,0.0
20.648,8166.5,14.19631128533183,0.0
20.656,8179.0,15.233134407355692,0.0
20.664,8193.5,19.052909168491396,0.0
20.672,8185.0,19.649076690324364,0.0
20.68,8162.5,10.689291673007801,0.0
20.688,8164.0,-0.5204505138146942,0.0
20.696,8159.5,-7.683869594597809,0.0
20.704,8161.0,-11.368240975377148,0.0
20.712,8160.0,-11.721462207183095,0.0
20.72,8424.5,43.680022566326215,0.0
20.728,8148.5,67.47250285003452,0.0
20.736,8094.5,3.894436604578914,0.0
20.744,8175.5,-28.779847259170083,0.0
20.752,8183.0,-25.659377372167228,0.0
20.76,8184.0,-18.18711513948915,0.0
20.768,8196.5,-8.25258911955575,0.0
20.776,8207.5,3.6749324813529256,0.0
20.784,8236.5,18.343718923286815,0.0
20.792,8258.5,34.65703277304965,0.0
20.8,8275.0,46.91586618351448,0.0
20.808,8264.0,48.17637550266568,0.0
20.816,8216.0,29.56398282752025,0.0
20.824,8179.5,-3.1890239238257436,0.0
20.832,8141.5,-37.296015861910746,0.0
20.84,8133.5,-61.21015635595995,0.0
20.848,8141.0,-66.17490783550102,0.0
20.856,8141.5,-57.44374995967905,0.0
20.864,8153.5,-41.01724675277933,0.0
20.872,8151.0,-23.143083252466568,0.0
20.88,8153.0,-9.165718248080111,0.0
20.888,8161.5,2.6352621012824784,0.0
20.896,8162.5,11.155663415849176,0.0
20.904,8172.5,16.750593524446003,0.0
20.912,8169.5,18.94994404350109,0.0
20.92,8169.0,16.662548237441797,0.0
20.928,8163.0,11.45559178207236,0.0
20.936,8143.0,1.3275819568330007,0.0
20.944,8145.0,-8.540798288908036,0.0
20.952,8144.0,-12.87775544125111,0.0
20.96,8156.5,-11.140745544665378,0.0
20.968,8154.5,-6.279253576258725,0.0
20.976,8386.0,44.4348728952632,0.0
20.984,8171.5,71.16338647959356,0.0
20.992,8077.0,13.05242127460292,1.0
21.0,8158.0,-26.051270003031732,0.0
21.008,8173.0,-25.614569397539753,0.0
21.016,8181.5,-16.671764946822805,0.0
21.024,8197.0,-3.9521490039267064,0.0
21.032,8228.5,13.77154207532385,0.0
21.04,8251.0,33.19761994189139,0.0
21.048,8268.5,47.82505230798233,0.0
21.056,8294.0,58.00978470785503,0.0
21.064,8286.0,58.813315005263576,0.0
21.072,8233.5,38.011528872174495,0.0
21.08,8179.5,-1.8116473861120994,0.0
21.088,8158.5,-40.41090286780968,0.0
21.096,8150.5,-63.03639296592314,0.0
21.104,8152.0,-68.1879646455759,0.0
21.112,8153.0,-60.38574328829304,0.0
21.12,8164.0,-44.16472110480868,0.0
21.128,8166.5,-25.117681182893648,0.0
21.136,8176.0,-7.593546339258637,0.0
21.144,8173.5,5.35157514231355,0.0
21.152,8175.5,12.093786274289414,0.0
21.16,8175.5,14.656159723278734,0.0
21.168,8195.0,17.93336242291707,0.0
21.176,8206.0,23.383760418588963,0.0
21.184,8185.5,21.121004887830395,0.0
21.192,8171.5,9.532242916777477,0.0
21.2,8178.0,-0.2987885296611239,0.0
21.208,8180.0,-4.33098744525023,0.0
21.216,8180.0,-5.650392770455255,0.0
21.224,8171.5,-7.310577672908266,0.0
21.232,8465.5,51.1438469158993,0.0
21.24,8120.5,67.54034434300024,0.0
21.248,8106.5,-6.346703446638003,0.0
21.256,8178.5,-37.23169873414258,0.0
21.264,8197.5,-31.260894027422637,0.0
21.272,8198.0,-19.006383371842958,0.0
21.28,8203.0,-7.753839378790644,0.0
21.288,8212.0,2.936681700004101,0.0
21.296,8239.5,16.27078271980372,0.0
21.304,8264.0,32.313348231871714,1.0
21.312,8284.0,45.99319670763816,0.0
21.32,8278.0,49.97053658352115,0.0
21.328,8218.0,31.262751253369288,0.0
21.336,8167.0,-7.218195745564344,0.0
21.344,8139.0,-45.021165805946794,0.0
21.352,8138.5,-66.37461332797056,0.0
21.36,8154.5,-65.77316938113154,0.0
21.368,8145.0,-54.11753223462256,0.0
21.376,8144.5,-41.062559223128574,0.0
21.384,8159.0,-24.256089507371826,0.0
21.392,8151.5,-9.20915577913729,0.0
21.4,8170.0,3.333101804789294,0.0
21.408,8168.5,13.718348700075921,0.0
21.416,8165.0,16.758798884248563,0.0
21.424,8173.0,16.935438097167435,0.0
21.432,8179.0,17.33250146418527,0.0
21.44,8180.0,16.36961804927796,0.0
21.448,8162.5,9.947379469560019,0.0
21.456,8151.0,-1.2835858846865449,0.0
21.464,8160.5,-8.139555157524683,0.0
21.472,8162.0,-8.71280237853216,0.0
21.48,8142.5,-11.408270995481416,0.0
21.488,8429.5,43.37773234864767,0.0
21.496,8110.5,62.66388179662249,0.0
21.504,8098.5,-3.0544781901260194,0.0
21.512,8183.0,-26.64530323412623,0.0
21.52,8183.5,-19.191565730396633,0.0
21.528,8180.0,-12.486672239991776,0.0
21.536,8189.5,-5.402477439987933,0.0
21.544,8206.5,5.0201548775769425,0.0
21.552,8234.0,19.514354394091924,0.0
21.56,8259.0,35.85338690549929,0.0
21.568,8281.5,49.78475630115122,0.0
21.576,8264.0,51.49729262775077,0.0
21.584,8225.5,33.26164021798422,0.0
21.592,8174.0,-0.9528260007518838,0.0
21.6,8148.5,-36.77390871927673,0.0
21.608,8145.0,-58.30780326742297,0.0
21.616,8147.0,-62.50921302899724,0.0
21.624,8147.0,-55.10818366600893,0.0
21.632,8142.0,-43.3976801119145,0.0
21.64,8146.5,-29.994657479850957,0.0
21.648,8165.0,-12.821668917530133,0.0
21.656,8170.5,4.181544338141521,0.0
21.664,8163.0,13.194643499035237,0.0
21.672,8168.0,16.0137597259793,0.0
21.68,8168.5,16.37675995622726,0.0
21.688,8177.5,16.04938541281581,0.0
21.696,8190.0,17.814968102954936,0.0
21.704,8191.5,19.018382892482578,0.0
21.712,8166.0,11.943449302403906,0.0
21.72,8170.0,1.556109630102128,0.0
21.728,8165.5,-4.925020927093101,0.0
21.736,8169.0,-8.215560373229664,0.0
21.744,8166.5,-8.711703227871794,0.0
21.752,8556.0,71.38009474772639,0.0
21.76,8068.5,87.90270635298953,0.0
21.768,8144.0,0.17512416520753504,1.0
21.776,8197.5,-25.3785678686927,0.0
21.784,8188.5,-27.55190208424233,0.0
21.792,8200.0,-24.14926273153401,0.0
21.8,8215.0,-13.061662308733275,0.0
21.808,8222.0,-0.029553384139035188,0.0
21.816,8242.0,13.198217247099365,0.0
21.824,8260.5,26.885675207217446,0.0
21.832,8267.0,36.01175018146114,0.0
21.84,8252.0,34.21253247823324,0.0
21.848,8201.0,14.4775999405515,0.0
21.856,8153.5,-19.51221285772135,0.0
21.864,8124.5,-52.28446338887966,0.0
21.872,8120.0,-70.5830541507662,0.0
21.88,8131.5,-69.27348065582396,0.0
21.888,8146.0,-52.684502283065285,0.0
21.896,8158.0,-29.472243571901117,0.0
21.904,8162.0,-8.007398848756566,0.0
21.912,8162.0,6.718094411336779,0.0
21.92,8156.0,13.182379493501003,0.0
21.928,8164.0,15.415344353608589,0.0
21.936,8168.0,16.850377823621102,0.0
21.944,8193.5,21.171212397825002,0.0
21.952,8189.0,24.807058458663505,0.0
21.96,8194.0,23.29839936538474,0.0
21.968,8186.5,18.363116458250033,0.0
21.976,8190.5,11.945280194629504,0.0
21.984,8193.5,7.76884270558935,0.0
21.992,8178.0,1.5672959026107947,0.0
22.0,8171.5,-6.832527345772178,0.0
22.008,8283.5,10.789459789928742,0.0
22.016,8353.0,56.65586408362401,0.0
22.024,8068.0,31.1646545998517,0.0
22.032,8170.5,-25.920634587290806,0.0
22.04,8197.0,-29.39610001007918,0.0
22.048,8203.5,-20.25276159198438,0.0
22.056,8226.5,-5.74797429813043,0.0
22.064,8232.5,9.62631764921207,0.0
22.072,8245.5,21.14090084291911,0.0
22.08,8250.0,28.320660682167954,0.0
22.088,8262.0,31.643975973958277,0.0
22.096,8260.5,30.95693754742274,0.0
22.104,8239.5,21.26041847633337,0.0
22.112,8198.5,-0.36406841100347265,0.0
22.12,8173.5,-26.58141164147196,0.0
22.128,8141.5,-49.70139643336711,0.0
22.136,8144.5,-61.76392288004695,0.0
22.144,8146.0,-58.61418768763042,0.0
22.152,8158.5,-45.00462524292357,0.0
22.16,8170.0,-25.229500268991842,0.0
22.168,8171.0,-7.155673620459538,0.0
22.176,8160.5,2.6771844147640422,0.0
22.184,8160.5,5.941269033837898,0.0
22.192,8161.5,7.175177607554815,0.0
22.2,8162.0,7.123518722966537,0.0
22.208,8156.5,4.9914541016296425,0.0
22.216,8166.0,3.790994538399218,0.0
22.224,8161.5,3.527789334365252,0.0
22.232,8152.0,-0.022935832835855763,0.0
22.24,8161.0,-2.221501912161102,0.0
22.248,8160.0,-1.5505177611955787,0.0
22.256,8165.0,-0.10141874920827831,0.0
22.264,8279.0,25.082750388700106,0.0
22.272,8419.0,88.0661948480249,0.0
22.28,8063.0,67.83364739205422,0.0
22.288,8160.0,-7.330142928974283,1.0
22.296,8192.0,-24.31574208586312,0.0
22.304,8196.5,-23.217463827424126,0.0
22.312,8201.0,-17.209194894383245,0.0
22.32,8214.0,-7.471533053126677,0.0
22.328,8243.5,8.10286173992381,0.0
22.336,8279.5,29.466747654572146,0.0
22.344,8298.0,48.76820273398448,0.0
22.352,8302.5,57.48813523788249,0.0
22.36,8248.5,43.816318280486485,0.0
22.368,8205.5,9.270577278117571,0.0
22.376,8175.0,-27.581356524987314,0.0
22.384,8171.5,-52.14009824327968,0.0
22.392,8156.0,-62.64075894176153,0.0
22.4,8149.5,-63.84837206804468,0.0
22.408,8158.5,-54.371633581324204,0.0
22.416,8178.0,-34.701151146097345,0.0
22.424,8193.5,-10.656427304351155,0.0
22.432,8180.0,5.587824546293859,0.0
22.44,8184.0,12.406610322682354,0.0
22.448,8176.5,13.843187538338498,0.0
22.456,8202.5,16.373551556403072,0.0
22.464,8216.0,23.4574635442807,0.0
22.472,8198.0,23.171095353194232,0.0
22.48,8170.0,10.0908882043625,0.0
22.488,8163.5,-6.223000937076222,0.0
22.496,8174.5,-14.00817397580795,0.0
22.504,8177.5,-13.628296416249214,0.0
22.512,8170.5,-12.154630153076141,0.0
22.52,8347.5,25.290819174564376,0.0
22.528,8271.0,64.13384231018199,0.0
22.536,8088.0,24.366030753808673,0.0
22.544,8182.5,-20.92738825600577,0.0
22.552,8203.0,-21.04640771767481,0.0
22.56,8209.0,-12.511939956451215,0.0
22.568,8213.5,-3.4225533555090806,0.0
22.576,8231.0,6.966412516833998,0.0
22.584,8250.5,19.61336994018643,0.0
22.592,8264.5,30.963218935841496,0.0
22.6,8297.5,42.58325019845847,0.0
22.608,8299.0,50.04757260845554,0.0
22.616,8252.5,37.68062073997021,0.0
22.624,8205.0,5.449721442558484,1.0
22.632,8162.0,-32.92704596155295,0.0
22.64,8160.5,-59.72226079651341,0.0
22.648,8158.0,-67.33151030572526,0.0
22.656,8168.0,-60.09110003066917,0.0
22.664,8171.5,-43.940552154230545,0.0
22.672,8169.5,-27.42078717180152,0.0
22.68,8168.5,-14.10661287285052,0.0
22.688,8168.5,-4.298203947972752,0.0
22.696,8164.0,1.2347776629426335,0.0
22.704,8173.5,5.3412711190972,0.0
22.712,8193.5,12.986919148758716,0.0
22.72,8189.5,18.808385743998087,0.0
22.728,8180.5,16.743707492203157,0.0
22.736,8169.5,8.898100002216779,0.0
22.744,8165.0,-0.2574990985522163,0.0
22.752,8167.0,-6.143817470848262,0.0
22.76,8162.5,-9.20425326582972,0.0
22.768,8170.5,-8.903663627249898,0.0
22.776,8524.5,66.58090348618452,0.0
22.784,8056.5,77.8376072086121,0.0
22.792,8144.5,-4.940610008688964,0.0
22.8,8179.5,-28.017455020186844,0.0
22.808,8193.5,-27.406545840470926,0.0
22.816,8201.5,-18.395481182316644,0.0
22.824,8212.0,-6.4978150717904555,0.0
22.832,8226.5,6.631111120643709,0.0
22.84,8244.5,20.029958500229668,0.0
22.848,8272.5,34.31507453729455,0.0
22.856,8289.0,46.652084955654345,0.0
22.864,8272.0,46.77301543026829,0.0
22.872,8221.0,25.860736237968013,0.0
22.88,8176.0,-10.040423193339166,0.0
22.888,8152.0,-43.84681990309855,0.0
22.896,8153.0,-61.8910907008958,0.0
22.904,8157.5,-62.05536828926029,0.0
22.912,8157.5,-51.824841773390744,0.0
22.92,8170.5,-35.26135681614278,0.0
22.928,8174.0,-16.748737618279847,0.0
22.936,8185.5,-0.1965864638880248,0.0
22.944,8177.5,10.337186154313258,0.0
22.952,8178.0,13.467346296802134,0.0
22.96,8195.5,16.954124022052156,0.0
22.968,8208.5,22.676928442349435,0.0
22.976,8192.5,22.010393050645916,0.0
22.984,8152.5,6.838323572494119,0.0
22.992,8142.5,-13.386225088766878,0.0
23.0,8152.0,-23.419630509596118,0.0
23.008,8162.5,-21.716661030185833,0.0
23.016,8166.5,-14.454663591050348,0.0
23.024,8481.0,57.1013798775748,0.0
23.032,8040.0,64.91820855963101,1.0
23.04,8122.0,-13.645294446315575,0.0
23.048,8169.0,-31.68402656955459,0.0
23.056,8174.5,-26.822637323348545,0.0
23.064,8188.5,-15.897125245310008,0.0
23.072,8196.5,-2.53098545109674,0.0
23.08,8207.5,9.639170518282754,0.0
23.088,8211.5,18.439681033101806,0.0
23.096,8232.5,25.95613575367088,0.0
23.104,8243.0,32.901574096466675,0.0
23.112,8225.0,30.488571714060527,0.0
23.12,8180.5,11.670297221564397,0.0
23.128,8155.0,-15.52921179931377,0.0
23.136,8134.5,-38.658382703556754,0.0
23.144,8131.0,-51.379088907774985,0.0
23.152,8133.0,-51.41886849198545,0.0
23.16,8136.0,-42.62518256645035,0.0
23.168,8142.5,-29.021272574292198,0.0
23.176,8167.5,-10.140499192846391,0.0
23.184,8168.0,7.772649448477523,0.0
23.192,8164.5,16.57512814979077,0.0
23.2,8156.0,16.816304578805557,0.0
23.208,8155.0,12.468527825543106,0.0
23.216,8172.5,11.377847432094768,0.0
23.224,8160.0,10.029308998198985,0.0
23.232,8143.5,1.7865000620925002,0.0
23.24,8135.0,-8.466658657445123,0.0
23.248,8142.0,-13.553165668830843,0.0
23.256,8147.0,-12.054887748337705,0.0
23.264,8155.0,-6.685234668139628,0.0
23.272,8466.0,62.6758927475305,0.0
23.28,8021.5,66.91938397461581,0.0
23.288,8125.0,-10.383371887519388,0.0
23.296,8168.5,-24.493631352896728,0.0
23.304,8179.0,-18.092647403336514,0.0
23.312,8189.5,-7.273739835525248,0.0
23.32,8208.5,6.2542033953288865,0.0
23.328,8228.5,21.274127811546123,0.0
23.336,8262.0,37.86157156470517,0.0
23.344,8292.0,54.904199650115515,1.0
23.352,8301.0,64.6267892239157,0.0
23.36,8269.5,55.9817600556014,0.0
23.368,8208.0,23.381631794173245,0.0
23.376,8170.0,-19.77089369735404,0.0
23.384,8151.0,-53.938872267174474,0.0
23.392,8142.0,-71.68841184275834,0.0
23.4,8132.5,-75.09621612789488,0.0
23.408,8146.0,-64.90890990574871,0.0
23.416,8160.0,-43.4249242403057,0.0
23.424,8165.0,-20.25388379486344,0.0
23.432,8161.0,-3.275540001468471,0.0
23.44,8164.5,7.15988464225552,0.0
23.448,8164.0,12.858757022344662,0.0
23.456,8161.5,13.666618937299745,0.0
23.464,8180.5,15.44332999846938,0.0
23.472,8183.5,18.647301012884327,0.0
23.48,8135.5,8.52143615878208,0.0
23.488,8147.5,-6.113763601440951,0.0
23.496,8151.5,-10.573264697619152,0.0
23.504,8155.0,-10.07531838231921,0.0
23.512,8162.5,-6.005987494565261,0.0
23.52,8431.0,53.69821418630522,0.0
23.528,8090.0,66.05408777421735,0.0
23.536,8109.5,-2.3359633424677213,0.0
23.544,8177.5,-24.55124508353174,0.0
23.552,8181.5,-19.25740818685722,0.0
23.56,8194.0,-9.836027787227522,0.0
23.568,8205.0,2.028088331898516,0.0
23.576,8226.5,15.376801705720709,0.0
23.584,8239.0,27.88613217627767,0.0
23.592,8249.0,35.65303134933038,0.0
23.6,8264.5,40.05061335330356,0.0
23.608,8256.5,38.111446562198125,0.0
23.616,8215.0,21.07359056976793,0.0
23.624,8173.0,-9.25669327652031,1.0
23.632,8136.5,-41.828163886424136,0.0
23.64,8137.0,-62.10406421984726,0.0
23.648,8144.0,-63.14723288861501,0.0
23.656,8148.0,-51.94298618974881,0.0
23.664,8156.0,-34.9900334578183,0.0
23.672,8162.0,-16.79897154451487,0.0
23.68,8171.0,-0.4293727819401738,0.0
23.688,8169.5,10.848935103400663,0.0
23.696,8167.5,15.159028291539244,0.0
23.704,8183.5,18.269934219424158,0.0
23.712,8191.5,22.2430009634204,0.0
23.72,8193.5,23.263372838130408,0.0
23.728,8165.5,15.027995740013012,0.0
23.736,8158.5,0.7286569138123014,0.0
23.744,8160.0,-8.962076016571928,0.0
23.752,8156.5,-13.743004636329033,0.0
23.76,8157.0,-15.099738695076212,0.0
23.768,8305.5,16.82801245554765,0.0
23.776,8241.0,50.31997577390803,0.0
23.784,8072.0,14.793722913660758,0.0
23.792,8170.5,-22.862555583462836,0.0
23.8,8186.0,-18.375889352285185,0.0
23.808,8190.0,-8.952614540931563,0.0
23.816,8211.0,3.0851372911333783,0.0
23.824,8221.5,16.17197661596356,0.0
23.832,8236.5,26.66932029690247,0.0
23.84,8254.0,35.47382508605847,0.0
23.848,8273.5,42.86167460501929,0.0
23.856,8267.5,43.49056197228015,0.0
23.864,8228.0,27.97311488420746,0.0
23.872,8180.0,-3.3212542642022527,0.0
23.88,8153.5,-36.545562648243504,0.0
23.888,8151.5,-56.47619868351467,0.0
23.896,8154.0,-59.59853522932076,0.0
23.904,8158.5,-50.979132734521045,0.0
23.912,8173.0,-34.27087839402793,0.0
23.92,8174.5,-15.924961453607466,0.0
23.928,8170.5,-3.1715563546792964,0.0
23.936,8170.5,4.034428477101073,0.0
23.944,8166.0,6.7650153400825275,0.0
23.952,8179.5,9.192931151680114,0.0
23.96,8190.0,14.138259472102618,0.0
23.968,8196.5,18.392505484514686,0.0
23.976,8183.0,16.689832865726885,0.0
23.984,8175.5,8.862182115279438,0.0
23.992,8173.0,0.8463027099369356,0.0
24.0,8173.5,-4.431186284136857,0.0
24.008,8183.5,-4.735305775549932,0.0
24.016,8199.5,1.1145881390289105,0.0
24.024,8534.5,76.11481036747864,0.0
24.032,8060.5,80.53209989950437,0.0
24.04,8163.5,-4.8607450721438,1.0
24.048,8197.0,-26.737923966096105,0.0
24.056,8210.5,-26.02012788154343,0.0
24.064,8219.0,-17.15604781120146,0.0
24.072,8231.5,-5.022468811516092,0.0
24.08,8249.0,9.043800088876424,0.0
24.088,8267.0,23.244100747855555,0.0
24.096,8284.0,35.268583962996445,0.0
24.104,8301.5,44.08108833068991,0.0
24.112,8283.0,42.40527476032344,0.0
24.12,8230.5,20.479702669102153,0.0
24.128,8180.5,-16.5328436661448,0.0
24.136,8153.0,-51.74874218843365,0.0
24.144,8152.5,-70.45006946738181,0.0
24.152,8156.5,-70.1138886174108,0.0
24.16,8162.5,-57.24197047224834,0.0
24.168,8181.0,-35.9456107289102,0.0
24.176,8184.5,-13.406581681774469,0.0
24.184,8184.5,2.6706118510646775,0.0
24.192,8177.0,10.241485140150417,0.0
24.2,8170.0,10.203795137287216,0.0
24.208,8178.0,8.838790373007896,0.0
24.216,8190.5,10.879630754954405,0.0
24.224,8211.5,17.281177566498627,0.0
24.232,8205.0,21.409373252630985,0.0
24.24,8226.5,23.669380050133213,0.0
24.248,8234.5,27.444261264722627,0.0
24.256,8228.5,25.92444749506103,0.0
24.264,8210.0,16.089809703152923,0.0
24.272,8398.0,42.463205778687325,0.0
24.28,8257.0,61.224604271370026,0.0
24.288,8117.0,5.629160111079727,0.0
24.296,8203.0,-39.135585539324666,0.0
24.304,8214.0,-39.85878565711823,0.0
24.312,8214.0,-31.996113569533918,0.0
24.32,8232.5,-18.715588527417594,0.0
24.328,8232.5,-4.244438532555478,0.0
24.336,8256.0,9.758352068963177,0.0
24.344,8270.0,24.221378900863783,0.0
24.352,8276.5,33.290709085914614,0.0
24.36,8254.0,30.3382183734725,0.0
24.368,8217.5,11.938739598169605,0.0
24.376,8160.5,-19.85486272988919,1.0
24.384,8136.5,-52.19568195390889,0.0
24.392,8134.0,-68.82247949538078,0.0
24.4,8137.5,-68.01693909045616,0.0
24.408,8141.5,-55.69611683860239,0.0
24.416,8156.0,-36.185848901131976,0.0
24.424,8165.0,-14.360237424430807,0.0
24.432,8156.5,0.826725127528789,0.0
24.44,8160.0,8.661424334461799,0.0
24.448,8163.0,13.309633723121124,0.0
24.456,8168.5,15.777236526772867,0.0
24.464,8169.0,16.07036241893593,0.0
24.472,8174.5,15.033064905333049,0.0
24.48,8160.5,10.40386177731716,0.0
24.488,8168.5,4.863005486182146,0.0
24.496,8169.5,2.6875705969118826,0.0
24.504,8172.0,1.7086074497156005,0.0
24.512,8169.0,0.7684547893561557,0.0
24.52,8347.5,35.95073790415108,0.0
24.528,8248.0,67.44669104663649,0.0
24.536,8074.5,20.0735063090915,0.0
24.544,8171.0,-26.717461009881617,0.0
24.552,8194.5,-25.822780578778293,0.0
24.56,8190.0,-17.496914050881287,0.0
24.568,8193.0,-10.226722854314403,0.0
24.576,8204.0,-1.5164403305520864,0.0
24.584,8233.5,12.138900031757885,0.0
24.592,8250.0,27.77208320165869,0.0
24.6,8276.5,41.59188177999977,0.0
24.608,8281.0,49.79239322275521,0.0
24.616,8243.5,40.351120433039796,0.0
24.624,8173.5,6.6875225168450925,0.0
24.632,8158.0,-31.702701620177777,0.0
24.64,8149.0,-54.60548331245832,0.0
24.648,8162.0,-59.054111546076456,0.0
24.656,8160.5,-50.38226311604217,0.0
24.664,8157.5,-38.53455418626504,0.0
24.672,8152.5,-27.31995199556991,0.0
24.68,8160.5,-15.932725082676598,0.0
24.688,8162.5,-4.739740432370354,0.0
24.696,8166.5,3.8241777778025607,0.0
24.704,8181.0,12.088639648683738,0.0
24.712,8184.5,18.820863153072196,0.0
24.72,8181.0,19.94882402928488,0.0
24.728,8161.5,12.892502084790294,0.0
24.736,8166.0,3.700237063027771,0.0
24.744,8158.5,-2.9099554037698,0.0
24.752,8158.0,-8.012435338680689,0.0
24.76,8149.0,-11.756111619188687,0.0
24.768,8380.0,33.167032679406475,0.0
24.776,8177.0,60.426415597346704,0.0
24.784,8069.0,3.8486555117440275,0.0
24.792,8167.5,-32.135697962686436,0.0
24.8,8183.0,-25.254340189458617,0.0
24.808,8183.0,-14.18919770871048,0.0
24.816,8204.5,-1.1015731107029296,0.0
24.824,8241.5,18.757036207829287,0.0
24.832,8256.0,38.1790893841021,1.0
24.84,8274.5,50.61878621881215,0.0
24.848,8279.5,55.10226632163153,0.0
24.856,8266.0,47.66307808400643,0.0
24.864,8229.0,25.72007757002234,0.0
24.872,8178.5,-9.03276623080751,0.0
24.88,8151.0,-44.15153107788933,0.0
24.888,8141.5,-65.78594795798381,0.0
24.896,8143.5,-70.1388364035929,0.0
24.904,8156.0,-59.11689002122762,0.0
24.912,8155.5,-41.184100898110955,0.0
24.92,8160.0,-23.51747986597229,0.0
24.928,8157.0,-9.197490540721446,0.0
24.936,8154.5,-0.4578788670667109,0.0
24.944,8155.5,4.4736816729614475,0.0
24.952,8168.0,9.469996627617093,0.0
24.96,8189.5,17.935273813495996,0.0
24.968,8181.5,22.980486704791247,0.0
24.976,8157.0,15.840327467428324,0.0
24.984,8166.0,6.049405674145419,0.0
24.992,8152.5,-1.5774443466245884,0.0
25.0,8160.5,-6.972446226662214,0.0
25.008,8160.5,-7.471529702876296,0.0
25.016,8363.5,34.83915257798094,0.0
25.024,8210.0,64.69248437454894,0.0
25.032,8088.5,16.356824673143592,0.0
25.04,8173.5,-22.16567256280223,0.0
25.048,8186.5,-21.56575554609094,0.0
25.056,8188.5,-14.876830155350035,0.0
25.064,8210.0,-3.8644382857776236,0.0
25.072,8231.5,12.019102013676502,0.0
25.08,8244.0,26.536591854963262,0.0
25.088,8269.0,38.76023177568982,0.0
25.096,8272.0,45.833186710813834,0.0
25.104,8260.0,41.22856108417477,0.0
25.112,8211.5,19.894456709078668,0.0
25.12,8165.5,-15.045159804069954,0.0
25.128,8145.5,-46.911222000874886,0.0
25.136,8152.0,-61.40252480708773,0.0
25.144,8152.5,-59.233204102478794,0.0
25.152,8154.5,-48.45906645396872,0.0
25.16,8164.5,-32.28868285963404,0.0
25.168,8168.0,-15.072138092312116,0.0
25.176,8155.0,-4.546045692622101,0.0
25.184,8160.0,0.7338955909551714,0.0
25.192,8157.5,4.2559289881946825,0.0
25.2,8167.5,7.225860845799161,0.0
25.208,8168.0,10.031906510839235,0.0
25.216,8183.0,13.33710462937961,0.0
25.224,8195.5,18.888003530036485,0.0
25.232,8181.0,18.898550060896696,0.0
25.24,8181.0,13.077182051769569,0.0
25.248,8169.0,5.200169561479697,0.0
25.256,8158.5,-4.84345827156244,0.0
25.264,8154.5,-13.011279722854624,0.0
25.272,8534.0,60.845907245335184,0.0
25.28,8049.0,73.74623116229691,0.0
25.288,8116.5,-15.100931791826042,1.0
25.296,8163.0,-42.065224016119146,0.0
25.304,8165.0,-41.72568752912298,0.0
25.312,8173.5,-33.05362081792464,0.0
25.32,8194.0,-16.988931893505423,0.0
25.328,8215.0,3.5659054640382237,0.0
25.336,8224.0,21.31039376116837,0.0
25.344,8254.5,36.64343021555146,0.0
25.352,8280.5,51.6987827292096,0.0
25.36,8256.0,53.070798935096946,0.0
25.368,8192.5,27.85757498068324,0.0
25.376,8152.5,-12.422156597675666,0.0
25.384,8133.5,-46.41392651686192,0.0
25.392,8129.5,-64.17862306169059,0.0
25.4,8148.0,-61.99203657233306,0.0
25.408,8161.0,-44.8646924962477,0.0
25.416,8190.5,-19.25080747146876,0.0
25.424,8188.5,4.43412421241851,0.0
25.432,8177.0,15.01102706656161,0.0
25.44,8175.0,16.232279963833207,0.0
25.448,8166.5,12.348363018990767,0.0
25.456,8166.0,6.340555934900976,0.0
25.464,8164.5,1.4176439609389035,0.0
25.472,8185.5,2.275176451709285,0.0
25.48,8178.5,5.2975876881655495,0.0
25.488,8163.5,1.7872417525977653,0.0
25.496,8165.5,-3.2156487077936617,0.0
25.504,8167.0,-4.971766693329528,0.0
25.512,8169.5,-4.439350162820119,0.0
25.52,8180.0,-0.7955113040870856,0.0
25.528,8528.0,74.72190340487282,0.0
25.536,8052.0,81.90354992120069,0.0
25.544,8119.5,-9.723667809672861,0.0
25.552,8162.0,-39.96453983301626,0.0
25.56,8177.5,-39.94039792407966,0.0
25.568,8193.0,-27.537359124971317,0.0
25.576,8205.0,-10.408961078786888,0.0
25.584,8207.5,4.261228601618313,0.0
25.592,8235.0,18.42012676903778,0.0
25.6,8261.5,35.03321167546187,0.0
25.608,8264.5,45.573588614108075,0.0
25.616,8234.5,39.381533942173064,0.0
25.624,8180.0,12.485437979579729,0.0
25.632,8132.0,-26.254643091778007,1.0
25.64,8127.5,-55.91074265756879,0.0
25.648,8123.5,-66.70913952849992,0.0
25.656,8114.0,-65.73946181180372,0.0
25.664,8125.5,-54.790515995599435,0.0
25.672,8134.0,-35.922422061078805,0.0
25.68,8138.5,-16.66168850449003,0.0
25.688,8135.0,-2.540512965025755,0.0
25.696,8144.5,7.421703667008842,0.0
25.704,8150.0,15.252636646193196,0.0
25.712,8154.0,19.512215581223927,0.0
25.72,8169.0,22.95475700875977,0.0
25.728,8181.0,27.026580481378232,0.0
25.736,8174.0,26.358605683314863,0.0
25.744,8157.5,17.166221373254984,0.0
25.752,8155.0,5.245543003952662,0.0
25.76,8156.0,-2.9060640026850706,0.0
25.768,8168.0,-4.630406627311686,0.0
25.776,8250.0,14.256121771036078,0.0
25.784,8395.5,69.74262472556643,0.0
25.792,8055.5,52.24693565788789,0.0
25.8,8158.0,-14.542683925621532,0.0
25.808,8183.0,-25.788757202337592,0.0
25.816,8185.5,-22.91151374090191,0.0
25.824,8191.5,-15.999703776152046,0.0
25.832,8201.5,-6.217513624489584,0.0
25.84,8233.5,9.090940578611026,0.0
25.848,8255.0,27.696135360483822,0.0
25.856,8271.5,42.26358717415428,0.0
25.864,8276.5,48.86356321063977,0.0
25.872,8246.5,40.250964607957485,0.0
25.88,8197.0,12.813051125498077,0.0
25.888,8161.0,-22.82401594065709,0.0
25.896,8147.5,-50.55221923592171,0.0
25.904,8157.0,-60.10352312134569,0.0
25.912,8159.5,-54.18813506585434,0.0
25.92,8152.5,-43.393577147185624,0.0
25.928,8159.0,-30.532865311766272,0.0
25.936,8158.5,-17.07211381359207,0.0
25.944,8172.0,-3.8672028887137913,0.0
25.952,8165.0,5.856428624937507,0.0
25.96,8171.5,10.6169141538453,0.0
25.968,8167.0,12.231209593931908,0.0
25.976,8152.5,7.4497898489869385,0.0
25.984,8133.0,-3.453638006223173,0.0
25.992,8119.0,-16.222372591793828,0.0
26.0,8143.0,-19.27126976691966,0.0
26.008,8160.0,-9.776296769008013,0.0
26.016,8172.5,3.3480909098232132,0.0
26.024,8187.5,16.22049471344235,0.0
26.032,8485.5,85.32015265072187,0.0
26.04,8052.5,85.66942294068531,0.0
26.048,8142.0,2.710151952786191,1.0
26.056,8183.0,-20.101457596819728,0.0
26.064,8194.0,-19.920944774943337,0.0
26.072,8210.5,-11.1756667572281,0.0
26.08,8212.5,-0.5297955134017229,0.0
26.088,8226.0,9.01314121932046,0.0
26.096,8247.5,20.440848525862748,0.0
26.104,8272.0,33.49793979553738,0.0
26.112,8285.5,43.9046303049106,0.0
26.12,8261.0,41.155360667080004,0.0
26.128,8204.5,16.741441914119605,0.0
26.136,8178.5,-17.089927593673792,0.0
26.144,8169.0,-41.75938826514698,0.0
26.152,8165.5,-52.67356118531052,0.0
26.16,8167.0,-51.55085309919127,0.0
26.168,8159.0,-44.39912293702491,0.0
26.176,8169.0,-33.02956875981158,0.0
26.184,8175.5,-17.92699707473139,0.0
26.192,8189.0,-2.1914002349415114,0.0
26.2,8192.0,10.817811537099487,0.0
26.208,8194.0,17.89283413683347,0.0
26.216,8184.5,17.831969803468837,0.0
26.224,8196.0,15.501039284297804,0.0
26.232,8205.0,15.96055719460719,0.0
26.24,8195.5,13.710356056361434,0.0
26.248,8180.5,5.295568809581937,0.0
26.256,8176.5,-4.3655088948760294,0.0
26.264,8176.0,-10.336545354760801,0.0
26.272,8183.5,-10.870558420276438,0.0
26.28,8212.0,-2.1834382251936404,0.0
26.288,8490.5,66.00549840385975,0.0
26.296,8063.5,65.98643804930362,0.0
26.304,8172.5,-8.99681921778506,0.0
26.312,8197.5,-24.601459504749073,0.0
26.32,8184.5,-27.6485365094818,0.0
26.328,8186.5,-27.506037410409135,0.0
26.336,8205.5,-18.96120642967776,0.0
26.344,8219.0,-4.3932879821206825,0.0
26.352,8226.0,9.076396183382712,0.0
26.36,8266.0,25.26839514045696,1.0
26.368,8286.0,43.27137912946273,0.0
26.376,8281.0,50.42237471680096,0.0
26.384,8240.0,37.60899663405462,0.0
26.392,8204.0,8.598054682481461,0.0
26.4,8186.0,-20.894779649200245,0.0
26.408,8163.5,-43.44308140945145,0.0
26.416,8153.5,-56.831402766216115,0.0
26.424,8154.0,-58.07378030824066,0.0
26.432,8157.5,-49.1866464742443,0.0
26.44,8173.0,-32.59181833575167,0.0
26.448,8183.0,-12.626688956920361,0.0
26.456,8192.5,5.078876801690512,0.0
