Time_Seconds,ECG_Raw,ECG_Filtered,R_Peak_Marker
0.0,8199.0,83.12098788122853,0.0
0.008,8205.0,204.02327302887306,0.0
0.016,8220.0,248.88266608177355,0.0
0.024,8238.0,244.42081452239177,0.0
0.032,8259.0,212.69273451787922,0.0
0.04,8276.0,169.44550256792036,0.0
0.048,8282.0,122.87814161450228,0.0
0.056,8255.0,72.41818714986857,0.0
0.064,8204.0,15.661337014412766,0.0
0.072,8173.0,-37.03168172848086,0.0
0.08,8163.0,-70.9561398871474,0.0
0.088,8162.0,-82.50852924590959,0.0
0.096,8167.0,-76.01412304941732,0.0
0.104,8169.0,-59.21859787653284,0.0
0.112,8167.0,-40.30751355526104,0.0
0.12,8175.0,-21.786629695101055,0.0
0.128,8184.0,-4.057185280988051,0.0
0.136,8182.0,8.473201864319435,0.0
0.144,8189.0,15.620518870121941,0.0
0.152,8194.0,19.930785218819892,0.0
0.16,8192.0,20.071029812796496,0.0
0.168,8175.0,13.229249545305038,0.0
0.176,8178.0,4.317110052125827,0.0
0.184,8178.0,-0.9951369194709514,0.0
0.192,8173.0,-5.007420639139127,0.0
0.2,8174.0,-7.438297839656343,0.0
0.208,8467.0,52.31626148601276,0.0
0.216,8060.0,56.432952634782396,0.0
0.224,8138.0,-16.903315925606194,0.0
0.232,8185.0,-32.17391900033908,0.0
0.24,8190.0,-25.70333973559741,0.0
0.248,8200.0,-14.915207768760183,0.0
0.256,8219.0,-0.3490788552048798,0.0
0.264,8231.0,14.651555798643585,0.0
0.272,8246.0,26.817679860680755,0.0
0.28,8270.0,37.91456091299074,0.0
0.288,8279.0,45.47087031704723,0.0
0.296,8250.0,38.959722101059924,0.0
0.304,8202.0,13.471122578780523,0.0
0.312,8172.0,-19.580638642557687,1.0
0.32,8167.0,-43.309268652485116,0.0
0.328,8170.0,-51.18474664247174,0.0
0.336,8172.0,-47.06057547201294,0.0
0.344,8172.0,-37.0780070725757,0.0
0.352,8170.0,-25.961470705598913,0.0
0.36,8176.0,-14.63390073323626,0.0
0.368,8180.0,-3.6731142012210967,0.0
0.376,8193.0,6.839078365364003,0.0
0.384,8204.0,16.922306496983765,0.0
0.392,8207.0,23.18010112410002,0.0
0.4,8176.0,17.646150533479613,0.0
0.408,8170.0,4.138886071632896,0.0
0.416,8179.0,-3.8638893718041345,0.0
0.424,8181.0,-5.763597272294874,0.0
0.432,8180.0,-5.808951191546839,0.0
0.44,8419.0,43.66852832527161,0.0
0.448,8078.0,45.470079729933104,0.0
0.456,8126.0,-20.21842805123333,0.0
0.464,8191.0,-32.91515777276186,0.0
0.472,8198.0,-20.723997017128113,0.0
0.48,8203.0,-7.920552190083754,0.0
0.488,8215.0,4.325347188000933,0.0
0.496,8220.0,14.384892216893604,0.0
0.504,8242.0,23.6692933671643,0.0
0.512,8263.0,34.35646409177548,0.0
0.52,8268.0,40.779815189369856,0.0
0.528,8249.0,35.535661572631625,0.0
0.536,8203.0,13.767098451095535,0.0
0.544,8171.0,-17.129512811482982,0.0
0.552,8161.0,-41.38531606666925,0.0
0.56,8166.0,-50.47715983903481,0.0
0.568,8162.0,-47.99682719555676,0.0
0.576,8164.0,-39.66167867583363,0.0
0.584,8172.0,-26.676098706830317,0.0
0.592,8174.0,-12.909028443655416,0.0
0.6,8170.0,-3.2186463516006825,0.0
0.608,8187.0,5.656125136079481,0.0
0.616,8192.0,14.541733165002597,0.0
0.624,8198.0,19.8392777810393,0.0
0.632,8178.0,17.10415670926136,0.0
0.64,8169.0,6.968694666268902,0.0
0.648,8169.0,-1.9206446615294226,0.0
0.656,8169.0,-6.8865928840564266,0.0
0.664,8164.0,-9.800861830566873,0.0
0.672,8299.0,16.5206778156778,0.0
0.68,8188.0,34.485682993755745,0.0
0.688,8078.0,-5.268761324048683,0.0
0.696,8177.0,-30.22797681530119,0.0
0.704,8186.0,-18.341408604348544,0.0
0.712,8188.0,-6.283628656570272,0.0
0.72,8205.0,5.68171046075895,1.0
0.728,8216.0,17.617000999329548,0.0
0.736,8226.0,26.294884164344467,0.0
0.744,8249.0,34.18228235343895,0.0
0.752,8261.0,40.81496801541857,0.0
0.76,8247.0,38.140894823197414,0.0
0.768,8208.0,19.94889880770461,0.0
0.776,8173.0,-8.952567168258156,0.0
0.784,8160.0,-34.493971211800044,0.0
0.792,8162.0,-46.616731338551745,0.0
0.8,8160.0,-46.71846498172022,0.0
0.808,8160.0,-40.104161007854145,0.0
0.816,8170.0,-28.06920012192336,0.0
0.824,8177.0,-13.223008029223365,0.0
0.832,8177.0,-1.008124636304501,0.0
0.84,8177.0,6.368580859039184,0.0
0.848,8185.0,11.400006892551346,0.0
0.856,8194.0,16.12032236249138,0.0
0.864,8187.0,16.876479652173884,0.0
0.872,8169.0,9.65747570286112,0.0
0.88,8171.0,0.6551681713901871,0.0
0.888,8171.0,-4.359511240954134,0.0
0.896,8172.0,-6.4599301924142765,0.0
0.904,8179.0,-5.088306236379367,0.0
0.912,8445.0,52.26844222904674,0.0
0.92,8045.0,50.88830546588497,0.0
0.928,8143.0,-19.342021846547368,0.0
0.936,8183.0,-29.750129068980414,0.0
0.944,8192.0,-21.384255409132948,0.0
0.952,8205.0,-8.699967855594423,0.0
0.96,8216.0,5.02373649218589,0.0
0.968,8225.0,16.464271354814173,0.0
0.976,8240.0,25.637226721952857,0.0
0.984,8258.0,33.91711842611471,0.0
0.992,8259.0,37.553312898273134,0.0
1.0,8234.0,29.10700703641669,0.0
1.008,8195.0,6.623657088621258,0.0
1.016,8166.0,-21.569639653645936,0.0
1.024,8157.0,-42.73632822282025,0.0
1.032,8155.0,-51.02225021888921,1.0
1.04,8157.0,-48.186955454307736,0.0
1.048,8163.0,-37.57004899015192,0.0
1.056,8160.0,-24.982262653461703,0.0
1.064,8168.0,-12.72875654897257,0.0
1.072,8168.0,-1.917816909167641,0.0
1.08,8168.0,4.76651865121994,0.0
1.088,8170.0,8.405564841440537,0.0
1.096,8181.0,11.939218630095866,0.0
1.104,8189.0,16.10060484827386,0.0
1.112,8184.0,16.73350253210583,0.0
1.12,8164.0,9.46328007412717,0.0
1.128,8168.0,0.46012435056854883,0.0
1.136,8172.0,-3.299680789945569,0.0
1.144,8177.0,-3.1842453774811474,0.0
1.152,8180.0,-0.9988012860774234,0.0
1.16,8486.0,63.57405151972853,0.0
1.168,8048.0,65.15604480168508,0.0
1.176,8155.0,-11.41036528230893,0.0
1.184,8192.0,-25.542349220596634,0.0
1.192,8199.0,-21.038223324247838,0.0
1.2,8200.0,-13.550441120215282,0.0
1.208,8206.0,-5.637666482934492,0.0
1.216,8218.0,3.5740870128045117,0.0
1.224,8234.0,14.20045214631341,0.0
1.232,8249.0,24.665236360928475,0.0
1.24,8250.0,30.38336471426578,0.0
1.248,8223.0,23.846758243838167,0.0
1.256,8181.0,2.2688130524547887,0.0
1.264,8155.0,-24.72878305135896,0.0
1.272,8150.0,-43.27926703612911,0.0
1.28,8147.0,-49.32275154849617,0.0
1.288,8153.0,-44.80604453845285,0.0
1.296,8157.0,-33.298737997038415,0.0
1.304,8163.0,-19.40184591532511,0.0
1.312,8161.0,-7.424494701515641,0.0
1.32,8163.0,0.7845320920282575,0.0
1.328,8169.0,7.154799273372419,0.0
1.336,8170.0,11.267518531179803,0.0
1.344,8174.0,13.012989236351814,0.0
1.352,8177.0,13.502440737224333,0.0
1.36,8190.0,15.013585345291403,0.0
1.368,8167.0,11.588028781446837,0.0
1.376,8158.0,1.267651957115504,0.0
1.384,8167.0,-5.027992882008448,0.0
1.392,8163.0,-6.967419670676463,0.0
1.4,8157.0,-9.101058657340445,0.0
1.408,8277.0,14.30723265023812,0.0
1.416,8287.0,52.54081935285831,0.0
1.424,8069.0,24.691719664442644,0.0
1.432,8166.0,-20.242147868727216,0.0
1.44,8180.0,-21.06962300799364,0.0
1.448,8186.0,-14.278570412459203,0.0
1.456,8194.0,-5.237341751755594,0.0
1.464,8210.0,5.806888584398848,0.0
1.472,8226.0,17.995661724443835,0.0
1.48,8243.0,29.217654538243778,0.0
1.488,8253.0,36.9407035460863,0.0
1.496,8246.0,36.5203577838588,0.0
1.504,8215.0,22.97141736259914,0.0
1.512,8177.0,-2.620898557111559,1.0
1.52,8156.0,-29.412541477277955,0.0
1.528,8153.0,-45.70100625669147,0.0
1.536,8152.0,-49.22236879220759,0.0
1.544,8159.0,-42.61639974084346,0.0
1.552,8165.0,-29.59258059637773,0.0
1.56,8168.0,-15.565023493108583,0.0
1.568,8170.0,-3.887803943699055,0.0
1.576,8168.0,3.6075214142008463,0.0
1.584,8172.0,7.9019032949954635,0.0
1.592,8175.0,10.673677620264016,0.0
1.6,8173.0,10.89894569729313,0.0
1.608,8179.0,10.196963350763099,0.0
1.616,8191.0,11.913246982172495,0.0
1.624,8188.0,12.960772850850617,0.0
1.632,8168.0,6.916352817421512,0.0
1.64,8168.0,-1.792924435617124,0.0
1.648,8169.0,-6.467447313471894,0.0
1.656,8169.0,-8.047110261658872,0.0
1.664,8156.0,-10.417194141379468,0.0
1.672,8489.0,55.1367755264514,0.0
1.68,8063.0,66.54592248058134,0.0
1.688,8131.0,-9.935569240349878,0.0
1.696,8181.0,-29.552750518200128,0.0
1.704,8192.0,-24.211423099089416,0.0
1.712,8201.0,-13.295816862462743,0.0
1.72,8207.0,-1.7600301919417234,0.0
1.728,8220.0,9.210772040370784,0.0
1.736,8238.0,20.635750186988844,0.0
1.744,8261.0,32.640173922139184,0.0
1.752,8252.0,37.65114623483896,0.0
1.76,8232.0,28.981544911321407,0.0
1.768,8196.0,8.019566529079839,0.0
1.776,8163.0,-19.689930749504356,0.0
1.784,8152.0,-42.0812921162094,0.0
1.792,8155.0,-50.57789231830361,0.0
1.8,8158.0,-46.70875725433439,0.0
1.808,8164.0,-35.50025081219701,0.0
1.816,8164.0,-22.26349658552249,0.0
1.824,8173.0,-9.221185670362956,0.0
1.832,8174.0,1.9330643359376154,0.0
1.84,8172.0,8.032293206262466,0.0
1.848,8170.0,9.60437334876292,0.0
1.856,8177.0,10.099466710183151,0.0
1.864,8182.0,11.312675637483608,0.0
1.872,8191.0,13.175241781704244,0.0
1.88,8192.0,14.322246404068665,0.0
1.888,8173.0,9.151746602287403,0.0
1.896,8174.0,1.0289938989071743,0.0
1.904,8176.0,-3.317893806571419,0.0
1.912,8181.0,-3.955498395465611,0.0
1.92,8173.0,-4.345778925716559,0.0
1.928,8448.0,50.630601280698556,0.0
1.936,8096.0,59.73618165852827,0.0
1.944,8127.0,-9.516067951648438,0.0
1.952,8195.0,-28.803204371974743,0.0
1.96,8201.0,-20.724418295347505,0.0
1.968,8209.0,-9.944359554453285,0.0
1.976,8219.0,1.6160465367295274,0.0
1.984,8234.0,13.315360518141915,0.0
1.992,8252.0,24.95747689912855,1.0
2.0,8268.0,35.004985277068045,0.0
2.008,8266.0,38.50010775929309,0.0
2.016,8247.0,30.439729351665164,0.0
2.024,8211.0,9.821267249020593,0.0
2.032,8185.0,-16.528128393496218,0.0
2.04,8169.0,-38.185892803710885,0.0
2.048,8168.0,-48.67794090885877,0.0
2.056,8173.0,-46.68556715335467,0.0
2.064,8178.0,-36.38618932374584,0.0
2.072,8181.0,-23.1441718756289,0.0
2.08,8186.0,-10.169528355279454,0.0
2.088,8186.0,0.06697908855494461,0.0
2.096,8185.0,5.906377070215967,0.0
2.104,8181.0,7.442806808633804,0.0
2.112,8192.0,8.65313722992687,0.0
2.12,8197.0,11.325820093413085,0.0
2.128,8204.0,13.640922214134662,0.0
2.136,8184.0,10.286034257842175,0.0
2.144,8180.0,1.839255063749306,0.0
2.152,8186.0,-3.026407354931962,0.0
2.16,8189.0,-3.6064055919821385,0.0
2.168,8189.0,-2.7897394644357973,0.0
2.176,8447.0,50.82580563792703,0.0
2.184,8090.0,54.602376959442836,0.0
2.192,8134.0,-15.38868783772773,0.0
2.2,8198.0,-32.383692430894826,0.0
2.208,8206.0,-22.815100767173362,0.0
2.216,8211.0,-11.041302142425593,0.0
2.224,8221.0,0.6602070489552716,0.0
2.232,8234.0,12.17928407117256,0.0
2.24,8250.0,23.06984791343575,0.0
2.248,8265.0,32.34617372089042,0.0
2.256,8266.0,36.19692896602737,0.0
2.264,8247.0,29.3089627515551,0.0
2.272,8207.0,8.738097553451098,0.0
2.28,8181.0,-18.23613134437801,0.0
2.288,8172.0,-38.57436193386343,0.0
2.296,8174.0,-46.1841351643975,0.0
2.304,8172.0,-43.6824824833941,0.0
2.312,8178.0,-34.763025965435645,0.0
2.32,8181.0,-22.378881605872493,0.0
2.328,8181.0,-11.049113975282125,0.0
2.336,8183.0,-2.2649303316520673,0.0
2.344,8184.0,3.886314038801629,0.0
2.352,8188.0,7.956442859763456,0.0
2.36,8193.0,10.995927101976122,0.0
2.368,8188.0,11.126360733149113,0.0
2.376,8180.0,6.860700634856812,0.0
2.384,8176.0,0.8462231971616347,0.0
2.392,8176.0,-3.656229566283173,0.0
2.4,8178.0,-5.356043500786427,0.0
2.408,8215.0,2.4184609030007778,0.0
2.416,8407.0,53.43451153597857,0.0
2.424,8059.0,43.63308852278146,1.0
2.432,8154.0,-20.466856678547856,0.0
2.44,8187.0,-29.12193603254059,0.0
2.448,8194.0,-21.653273479225618,0.0
2.456,8200.0,-11.297516198876792,0.0
2.464,8214.0,0.6257148758847961,0.0
2.472,8225.0,12.689748923568231,0.0
2.48,8243.0,23.825206955394833,0.0
2.488,8252.0,32.31463813900314,0.0
2.496,8249.0,33.661798124313236,0.0
2.504,8227.0,24.24745978945566,0.0
2.512,8193.0,3.562788349596758,0.0
2.52,8168.0,-21.264001639962316,0.0
2.528,8166.0,-38.23877292877091,0.0
2.536,8168.0,-42.480175358071165,0.0
2.544,8170.0,-37.73083446733949,0.0
2.552,8173.0,-28.180138112731584,0.0
2.56,8177.0,-16.829324702438726,0.0
2.568,8177.0,-6.747744797996347,0.0
2.576,8178.0,0.4418235194857516,0.0
2.584,8180.0,5.239639182013889,0.0
2.592,8188.0,9.325676552226923,0.0
2.6,8190.0,12.371277919051181,0.0
2.608,8175.0,9.640899073947821,0.0
2.616,8169.0,2.274166120260361,0.0
2.624,8171.0,-3.2445013278388615,0.0
2.632,8171.0,-5.60772581228548,0.0
2.64,8167.0,-6.97233874979861,0.0
2.648,8349.0,29.643266986378876,0.0
2.656,8128.0,38.83567453793239,0.0
2.664,8101.0,-12.282501872896773,0.0
2.672,8177.0,-30.640794477998497,0.0
2.68,8190.0,-18.6695789858195,0.0
2.688,8195.0,-5.081878501990786,0.0
2.696,8206.0,6.993151116971603,0.0
2.704,8211.0,16.342872662734408,0.0
2.712,8230.0,24.29772995583994,0.0
2.72,8248.0,32.877527284831785,0.0
2.728,8251.0,37.2573013854942,0.0
2.736,8233.0,31.13433354807239,0.0
2.744,8198.0,11.964944316315496,0.0
2.752,8170.0,-14.056779589834605,1.0
2.76,8153.0,-36.50834759739405,0.0
2.768,8161.0,-46.0897789010794,0.0
2.776,8166.0,-42.112556361408224,0.0
2.784,8162.0,-33.17137206523148,0.0
2.792,8166.0,-22.854398870465957,0.0
2.8,8172.0,-11.244953058628653,0.0
2.808,8168.0,-2.2656766830702963,0.0
2.816,8175.0,4.001058363100583,0.0
2.824,8182.0,9.960799004041291,0.0
2.832,8189.0,14.83541663304186,0.0
2.84,8182.0,15.469033191542849,0.0
2.848,8165.0,8.595245176316666,0.0
2.856,8170.0,0.7753477621745333,0.0
2.864,8168.0,-3.353976076302615,0.0
2.872,8171.0,-5.083248200742219,0.0
2.88,8176.0,-3.7008498626448727,0.0
2.888,8438.0,52.22611084570826,0.0
2.896,8049.0,51.43692366763548,0.0
2.904,8149.0,-15.87118331349643,0.0
2.912,8190.0,-24.464411866227238,0.0
2.92,8191.0,-17.256704840981456,0.0
2.928,8200.0,-8.334750402954114,0.0
2.936,8207.0,1.474138471840888,0.0
2.944,8225.0,12.159122996678889,0.0
2.952,8240.0,23.376665865142513,0.0
2.96,8252.0,31.982646009437303,0.0
2.968,8246.0,33.4490667834566,0.0
2.976,8222.0,23.11600754316919,0.0
2.984,8186.0,1.242344292844109,0.0
2.992,8165.0,-23.527205136351313,0.0
3.0,8163.0,-39.307792791215206,0.0
3.008,8161.0,-43.49808425604101,0.0
3.016,8159.0,-40.19859601579151,0.0
3.024,8167.0,-30.926897525251206,0.0
3.032,8173.0,-17.894536073474683,0.0
3.04,8170.0,-6.861293636758546,0.0
3.048,8171.0,0.2953992047250722,0.0
3.056,8170.0,4.483069546478191,0.0
3.064,8182.0,8.527273691066739,0.0
3.072,8191.0,13.916491322203683,0.0
3.08,8193.0,17.241070464533095,0.0
3.088,8170.0,12.302953991183585,0.0
3.096,8173.0,3.4312705211855246,0.0
3.104,8177.0,-0.9055437989243273,0.0
3.112,8174.0,-3.1287366853848653,0.0
3.12,8161.0,-7.237989070624735,0.0
3.128,8438.0,45.364588035037514,0.0
3.136,8069.0,50.800182573312895,1.0
3.144,8140.0,-14.568768715996612,0.0
3.152,8189.0,-26.502962525777548,0.0
3.16,8199.0,-17.488914490566458,0.0
3.168,8205.0,-6.237682287621965,0.0
3.176,8209.0,3.4049923925260828,0.0
3.184,8220.0,11.655929628512013,0.0
3.192,8243.0,21.714571821463096,0.0
3.2,8256.0,31.725880511028663,0.0
3.208,8258.0,35.90104636888145,0.0
3.216,8234.0,28.43259205291406,0.0
3.224,8202.0,8.264197763610127,0.0
3.232,8173.0,-17.37865757896452,0.0
3.24,8163.0,-37.87672248398076,0.0
3.248,8163.0,-46.299694313287546,0.0
3.256,8167.0,-43.444242514786765,0.0
3.264,8172.0,-33.330165651812194,0.0
3.272,8174.0,-20.86536497453062,0.0
3.28,8178.0,-9.104461843773379,0.0
3.288,8176.0,-0.36013759289835434,0.0
3.296,8174.0,4.0486391659278524,0.0
3.304,8168.0,4.407754392830384,0.0
3.312,8179.0,4.9733710747259465,0.0
3.32,8183.0,7.618366454452826,0.0
3.328,8188.0,9.866285502515439,0.0
3.336,8165.0,6.022440945609333,0.0
3.344,8161.0,-2.6799977775547177,0.0
3.352,8167.0,-7.011684746632454,0.0
3.36,8166.0,-7.488878987608814,0.0
3.368,8149.0,-10.31310326312996,0.0
3.376,8377.0,32.687717268815504,0.0
3.384,8109.0,44.9904549017167,0.0
3.392,8109.0,-9.30743126362745,0.0
3.4,8176.0,-26.31983995860105,0.0
3.408,8186.0,-16.659388539806287,0.0
3.416,8191.0,-5.355941191192869,0.0
3.424,8199.0,4.796833555097464,0.0
3.432,8212.0,14.36422852624628,0.0
3.44,8230.0,24.1779091003325,0.0
3.448,8247.0,33.466576060635816,1.0
3.456,8248.0,37.56336527247936,0.0
3.464,8230.0,30.818036091854992,0.0
3.472,8192.0,10.715635342623273,0.0
3.48,8160.0,-17.098565820304884,0.0
3.488,8147.0,-40.14903122626606,0.0
3.496,8148.0,-50.14558132608067,0.0
3.504,8151.0,-47.63765925659732,0.0
3.512,8155.0,-37.50194107609104,0.0
3.52,8157.0,-24.596152187844837,0.0
3.528,8163.0,-11.600216329755312,0.0
3.536,8163.0,-0.9299066241676428,0.0
3.544,8161.0,5.112880116388624,0.0
3.552,8159.0,7.09419796002976,0.0
3.56,8160.0,6.986081095150439,0.0
3.568,8167.0,7.497375199867747,0.0
3.576,8171.0,8.910372182423089,0.0
3.584,8183.0,11.66391186105966,0.0
3.592,8162.0,9.685256556023432,0.0
3.6,8156.0,1.5305616009832193,0.0
3.608,8159.0,-4.1370652291439,0.0
3.616,8161.0,-5.840158350855745,0.0
3.624,8155.0,-6.779131172382222,0.0
3.632,8329.0,28.015896634420187,0.0
3.64,8210.0,55.582623438149085,0.0
3.648,8081.0,12.79195401572997,0.0
3.656,8169.0,-22.830122350533884,0.0
3.664,8185.0,-19.18835783669192,0.0
3.672,8196.0,-8.60932051362829,0.0
3.68,8199.0,1.8125908685676677,0.0
3.688,8211.0,10.765794272393578,0.0
3.696,8228.0,20.35320642442275,0.0
3.704,8252.0,31.31373362918771,0.0
3.712,8255.0,38.56436197570156,0.0
3.72,8239.0,34.349648441656655,0.0
3.728,8203.0,16.02561879352197,0.0
3.736,8174.0,-10.52040867793653,0.0
3.744,8159.0,-33.61390369705032,0.0
3.752,8155.0,-46.05680967986996,0.0
3.76,8155.0,-47.249971084201206,0.0
3.768,8164.0,-38.95324402290203,0.0
3.776,8170.0,-25.076289374940416,0.0
3.784,8170.0,-11.841814871370616,0.0
3.792,8170.0,-2.219609559291939,0.0
3.8,8171.0,4.011766631686669,0.0
3.808,8167.0,6.475858590942153,0.0
3.816,8162.0,5.112594494638188,0.0
3.824,8161.0,2.3054277380076655,0.0
3.832,8170.0,1.9301504833015315,0.0
3.84,8181.0,5.501595023810296,0.0
3.848,8179.0,8.618342112352138,0.0
3.856,8167.0,6.294727271449574,0.0
3.864,8166.0,1.3102796153607414,0.0
3.872,8164.0,-2.4490708395253478,0.0
3.88,8170.0,-3.483833156865785,0.0
3.888,8158.0,-4.793404603324916,0.0
3.896,8485.0,59.513613373463386,0.0
3.904,8071.0,70.74753981954791,0.0
3.912,8132.0,-5.453087681731176,0.0
3.92,8183.0,-26.809568382045654,0.0
3.928,8189.0,-23.729961862085474,0.0
3.936,8199.0,-15.04213214018705,0.0
3.944,8211.0,-3.1289810489743104,0.0
3.952,8225.0,9.702648758013083,0.0
3.96,8239.0,21.54064047538418,0.0
3.968,8257.0,31.81342028811332,0.0
3.976,8260.0,37.355752619465875,0.0
3.984,8241.0,31.701092609643638,0.0
3.992,8197.0,10.679724248615003,0.0
4.0,8169.0,-18.081109947792584,1.0
4.008,8161.0,-39.703739863272176,0.0
4.016,8155.0,-49.33198348316114,0.0
4.024,8156.0,-48.568304023608334,0.0
4.032,8161.0,-39.52733213983788,0.0
4.04,8171.0,-25.12319379606879,0.0
4.048,8175.0,-9.93542586563376,0.0
4.056,8171.0,0.5529228836135189,0.0
4.064,8168.0,5.241779637153741,0.0
4.072,8171.0,7.220046126954458,0.0
4.08,8176.0,8.929752047595684,0.0
4.088,8175.0,9.404216795148614,0.0
4.096,8182.0,9.484829141896853,0.0
4.104,8188.0,10.750401814943643,0.0
4.112,8191.0,11.70767901885074,0.0
4.12,8172.0,7.22997565975129,0.0
4.128,8171.0,-0.6002968597142626,0.0
4.136,8175.0,-4.527192556314276,0.0
4.144,8177.0,-4.937371423472314,0.0
4.152,8161.0,-7.291598283568646,0.0
4.16,8478.0,53.916156312894145,0.0
4.168,8082.0,65.80023065951309,0.0
4.176,8135.0,-7.222821738135508,0.0
4.184,8186.0,-28.06618378315966,0.0
4.192,8198.0,-23.266797063353124,0.0
4.2,8206.0,-12.814910119735487,0.0
4.208,8214.0,-1.4219765888785787,0.0
4.216,8226.0,9.617390440014105,0.0
4.224,8245.0,21.021269545399036,0.0
4.232,8262.0,31.93326193564485,0.0
4.24,8259.0,36.40534835311928,0.0
4.248,8237.0,28.423131760383285,0.0
4.256,8200.0,7.339431126698628,0.0
4.264,8169.0,-20.1346351114571,0.0
4.272,8160.0,-41.50213722145577,0.0
4.28,8155.0,-50.706840410953646,0.0
4.288,8155.0,-49.48423530077821,0.0
4.296,8160.0,-40.237290375326666,0.0
4.304,8168.0,-26.012303514402902,0.0
4.312,8177.0,-10.18278347479145,0.0
4.32,8175.0,2.152704517158554,0.0
4.328,8174.0,8.508613892216545,0.0
4.336,8171.0,10.160278623824297,0.0
4.344,8178.0,10.413855554427755,0.0
4.352,8173.0,9.393558760037195,0.0
4.36,8176.0,6.957380884667145,0.0
4.368,8184.0,6.709117309394969,0.0
4.376,8200.0,10.448333048490895,0.0
4.384,8178.0,9.849803509560843,0.0
4.392,8168.0,1.464861275436533,0.0
4.4,8170.0,-5.3504765926118125,0.0
4.408,8171.0,-7.956958293464822,0.0
4.416,8161.0,-10.13076589598154,0.0
4.424,8354.0,27.506642406620358,0.0
4.432,8179.0,49.27242680240761,0.0
4.44,8091.0,0.943277531071999,0.0
4.448,8177.0,-28.190115328795855,0.0
4.456,8192.0,-20.51121835738809,0.0
4.464,8198.0,-8.569871231055458,0.0
4.472,8209.0,3.2646294189135006,0.0
4.48,8222.0,14.67179702227827,0.0
4.488,8240.0,25.52688508363235,0.0
4.496,8257.0,35.22691803337261,1.0
4.504,8264.0,40.525904737778774,0.0
4.512,8259.0,37.924112882826876,0.0
4.52,8218.0,21.237836402073754,0.0
4.528,8185.0,-6.968567676618932,0.0
4.536,8171.0,-32.195410176709174,0.0
4.544,8168.0,-45.706433054972194,0.0
4.552,8165.0,-47.99299991096632,0.0
4.56,8171.0,-41.456064036535736,0.0
4.568,8176.0,-29.057593236464072,0.0
4.576,8179.0,-15.68527733589167,0.0
4.584,8182.0,-4.173033627246923,0.0
4.592,8181.0,3.676571125731016,0.0
4.6,8180.0,7.3528012082142595,0.0
4.608,8181.0,8.412146166612274,0.0
4.616,8188.0,9.397666971584613,0.0
4.624,8201.0,12.641721598929962,0.0
4.632,8191.0,13.256518419688973,0.0
4.64,8181.0,7.524247094558405,0.0
4.648,8180.0,0.7461175440244006,0.0
4.656,8185.0,-2.5583740269839836,0.0
4.664,8187.0,-2.694659424003248,0.0
4.672,8211.0,2.945105223702285,0.0
4.68,8457.0,60.995162585327535,0.0
4.688,8066.0,56.45466468147447,0.0
4.696,8160.0,-15.467116637336176,0.0
4.704,8203.0,-27.66732916196065,0.0
4.712,8208.0,-20.88138149783822,0.0
4.72,8215.0,-11.25070943711762,0.0
4.728,8221.0,-1.1934947935351374,0.0
4.736,8239.0,9.838493047638849,0.0
4.744,8258.0,22.43029129427964,0.0
4.752,8272.0,33.218290304880384,0.0
4.76,8264.0,35.787815179073505,0.0
4.768,8235.0,24.322442252822157,0.0
4.776,8196.0,-0.03818578115283344,0.0
4.784,8179.0,-25.880077785168623,0.0
4.792,8172.0,-42.142424629590096,0.0
4.8,8173.0,-46.596465688297485,0.0
4.808,8170.0,-42.57460567766316,0.0
4.816,8178.0,-32.71976742741663,0.0
4.824,8185.0,-18.86641701955614,0.0
4.832,8187.0,-5.974489498897583,0.0
4.84,8184.0,2.35127748663308,0.0
4.848,8183.0,6.101437638599691,0.0
4.856,8191.0,8.824331975899213,0.0
4.864,8197.0,11.95698585291575,0.0
4.872,8197.0,13.222616947841288,0.0
4.88,8182.0,8.901891924275787,0.0
4.888,8181.0,1.7281771907330494,0.0
4.896,8179.0,-3.38926040960132,0.0
4.904,8185.0,-5.084649389492142,0.0
4.912,8193.0,-2.456195233013659,0.0
4.92,8459.0,55.449082269085466,0.0
4.928,8082.0,58.61004106014798,0.0
4.936,8137.0,-14.191412573353546,1.0
4.944,8190.0,-33.02999755320275,0.0
4.952,8199.0,-26.496717048653863,0.0
4.96,8206.0,-15.346917482397657,0.0
4.968,8217.0,-2.7487557258332345,0.0
4.976,8229.0,9.817439139466387,0.0
4.984,8248.0,22.093951966067152,0.0
4.992,8264.0,33.15508635976494,0.0
5.0,8264.0,37.938733756338934,0.0
5.008,8240.0,30.112595310903544,0.0
5.016,8198.0,7.434950650325618,0.0
5.024,8170.0,-21.404854993402523,0.0
5.032,8161.0,-42.7745703362898,0.0
5.04,8165.0,-49.94895913002938,0.0
5.048,8161.0,-46.61902905969691,0.0
5.056,8164.0,-37.7860196582767,0.0
5.064,8176.0,-23.768873509460036,0.0
5.072,8179.0,-8.811002241955293,0.0
5.08,8178.0,1.7795117549910628,0.0
5.088,8176.0,7.160026813883633,0.0
5.096,8186.0,10.890916565634598,0.0
5.104,8199.0,16.145086071001288,0.0
5.112,8190.0,17.621810935215763,0.0
5.12,8173.0,10.511647617246581,0.0
5.128,8172.0,1.0356040627018501,0.0
5.136,8174.0,-4.521221448574124,0.0
5.144,8176.0,-6.304845060041771,0.0
5.152,8193.0,-2.5220725315120944,0.0
5.16,8449.0,55.87155390454109,0.0
5.168,8066.0,55.98845657467996,0.0
5.176,8146.0,-14.33406801680212,0.0
5.184,8187.0,-29.02907948300458,0.0
5.192,8200.0,-22.286289432150625,0.0
5.2,8205.0,-11.24233514133266,0.0
5.208,8216.0,0.2623251140055345,0.0
5.216,8223.0,10.703805476198113,0.0
5.224,8245.0,21.1807804010175,0.0
5.232,8261.0,31.92902110707837,0.0
5.24,8257.0,35.89630635955359,0.0
5.248,8226.0,25.649719721737256,0.0
5.256,8185.0,0.9914456614799292,0.0
5.264,8160.0,-27.225586234711272,1.0
5.272,8155.0,-45.91439687888828,0.0
5.28,8162.0,-49.59716251873715,0.0
5.288,8157.0,-43.84702714157811,0.0
5.296,8156.0,-35.02448464318718,0.0
5.304,8161.0,-23.67951897485773,0.0
5.312,8168.0,-10.928420513195306,0.0
5.32,8164.0,-1.1176618884298932,0.0
5.328,8168.0,4.853855322811114,0.0
5.336,8170.0,8.875303943411154,0.0
5.344,8182.0,12.76819273085357,0.0
5.352,8175.0,14.156136136428131,0.0
5.36,8161.0,8.540408938177052,0.0
5.368,8159.0,0.6556371409133135,0.0
5.376,8163.0,-3.698204581905884,0.0
5.384,8165.0,-4.486562986962781,0.0
5.392,8186.0,0.4263380167244577,0.0
5.4,8414.0,54.13808694605541,0.0
5.408,8046.0,49.09303831319585,0.0
5.416,8143.0,-16.699202592958954,0.0
5.424,8175.0,-26.722022843340255,0.0
5.432,8182.0,-20.630395992381864,0.0
5.44,8195.0,-9.81398988663409,0.0
5.448,8203.0,2.361048868645412,0.0
5.456,8215.0,13.289400325686984,0.0
5.464,8237.0,24.683807436666484,0.0
5.472,8255.0,35.852117427258236,0.0
5.48,8248.0,39.26874242948156,0.0
5.488,8215.0,27.163690991328167,0.0
5.496,8177.0,1.3810888217303727,0.0
5.504,8155.0,-26.334138421191483,0.0
5.512,8155.0,-43.22693003700715,0.0
5.52,8160.0,-45.64208220616865,1.0
5.528,8157.0,-39.74191917129838,0.0
5.536,8157.0,-30.840130913393295,0.0
5.544,8163.0,-19.674095200269903,0.0
5.552,8170.0,-7.431784316966514,0.0
5.56,8169.0,2.160849325850222,0.0
5.568,8169.0,7.3020059601678895,0.0
5.576,8175.0,10.461212171207535,0.0
5.584,8179.0,12.786526515370724,0.0
5.592,8186.0,14.470434307160303,0.0
5.6,8171.0,11.637999362400933,0.0
5.608,8163.0,3.4995249745793444,0.0
5.616,8166.0,-2.8656287754774894,0.0
5.624,8171.0,-4.561100468531777,0.0
5.632,8165.0,-5.076583789097867,0.0
5.64,8272.0,16.022613503013417,0.0
5.648,8267.0,46.910110746521696,0.0
5.656,8078.0,18.43043928958923,0.0
5.664,8173.0,-20.410941082138606,0.0
5.672,8189.0,-17.609738314706647,0.0
5.68,8187.0,-10.423055891346621,0.0
5.688,8196.0,-3.1624996826624283,0.0
5.696,8216.0,7.535577474471893,0.0
5.704,8228.0,19.257546554846613,0.0
5.712,8244.0,28.990651460918343,0.0
5.72,8254.0,35.66329013635868,0.0
5.728,8243.0,33.998201088882524,0.0
5.736,8206.0,18.052502022972703,0.0
5.744,8171.0,-8.824389855020627,0.0
5.752,8158.0,-33.187897308361244,0.0
5.76,8155.0,-45.83357167501845,0.0
5.768,8154.0,-47.18049548378622,0.0
5.776,8154.0,-41.02824481905668,0.0
5.784,8162.0,-29.535041133832692,0.0
5.792,8171.0,-14.787004557070759,0.0
5.8,8164.0,-3.414553961749334,0.0
5.808,8162.0,1.9900738371861735,0.0
5.816,8161.0,4.271740651005757,0.0
5.824,8165.0,5.586370811978895,0.0
5.832,8168.0,6.94698693831333,0.0
5.84,8175.0,8.741416096904004,0.0
5.848,8183.0,11.541849048151562,0.0
5.856,8185.0,13.491148172136036,0.0
5.864,8164.0,8.716827493455185,0.0
5.872,8169.0,1.3029149893905014,0.0
5.88,8171.0,-1.8490921641432578,0.0
5.888,8171.0,-3.024238151950385,0.0
5.896,8163.0,-4.895113945849516,0.0
5.904,8354.0,32.12766109444442,0.0
5.912,8131.0,42.614310200036016,0.0
5.92,8111.0,-7.289835535315888,0.0
5.928,8185.0,-24.66559542646496,0.0
5.936,8197.0,-13.632124884265977,0.0
5.944,8195.0,-2.9971493135344645,0.0
5.952,8206.0,5.585468337571683,0.0
5.96,8222.0,15.330513595340335,0.0
5.968,8236.0,24.89845520976587,0.0
5.976,8252.0,32.9110451378142,0.0
5.984,8259.0,37.35889366311835,0.0
5.992,8244.0,32.69088810987455,0.0
6.0,8204.0,13.737367481411184,0.0
6.008,8174.0,-13.855518131309509,1.0
6.016,8162.0,-36.653879721711974,0.0
6.024,8160.0,-47.439843912237166,0.0
6.032,8160.0,-47.03480670940735,0.0
6.04,8162.0,-39.25563485563134,0.0
6.048,8169.0,-26.864720430455236,0.0
6.056,8168.0,-14.237940407042515,0.0
6.064,8170.0,-4.407542870574844,0.0
6.072,8176.0,3.708780143983404,0.0
6.08,8176.0,9.172270293710199,0.0
6.088,8175.0,10.808444095684308,0.0
6.096,8173.0,9.524484409801744,0.0
6.104,8175.0,7.321128509797063,0.0
6.112,8181.0,6.542504560570023,0.0
6.12,8183.0,6.724513319388052,0.0
6.128,8193.0,8.264247299073077,0.0
6.136,8179.0,7.104682701700995,0.0
6.144,8172.0,1.05144704266786,0.0
6.152,8174.0,-3.709342450612212,0.0
6.16,8180.0,-4.328078815263552,0.0
6.168,8179.0,-3.0163065250173986,0.0
6.176,8241.0,10.679131399243715,0.0
6.184,8371.0,56.38526670404326,0.0
6.192,8071.0,40.135987666853,0.0
6.2,8176.0,-15.397559380020994,0.0
6.208,8200.0,-19.55074946950208,0.0
6.216,8202.0,-13.730993423364225,0.0
6.224,8205.0,-7.185914494252529,0.0
6.232,8215.0,0.430214566175664,0.0
6.24,8233.0,10.589578210707941,0.0
6.248,8249.0,21.938532097028883,0.0
6.256,8262.0,31.248868203458187,0.0
6.264,8257.0,33.65169495739474,0.0
6.272,8227.0,22.820199725484827,0.0
6.28,8190.0,-0.7334955619458015,0.0
6.288,8162.0,-27.83145911882957,0.0
6.296,8160.0,-45.76659711140087,0.0
6.304,8161.0,-49.63895264979783,0.0
6.312,8166.0,-43.17740125174396,0.0
6.32,8167.0,-31.584041788642935,0.0
6.328,8171.0,-18.91773045697346,0.0
6.336,8174.0,-7.1286378148327,0.0
6.344,8173.0,1.3327994222302095,0.0
6.352,8176.0,6.543412979229288,0.0
6.36,8173.0,8.632902603975708,0.0
6.368,8170.0,7.333968444529091,0.0
6.376,8170.0,4.840962268674048,0.0
6.384,8171.0,2.8369563304520398,0.0
6.392,8169.0,1.017373632461613,0.0
6.4,8177.0,1.012834519214266,0.0
6.408,8188.0,4.738308088751182,0.0
6.416,8193.0,9.491976770020756,0.0
6.424,8169.0,6.9824772129015855,0.0
6.432,8171.0,-0.054880785571640445,0.0
6.44,8176.0,-2.7783363590983754,0.0
6.448,8174.0,-3.354852436436431,0.0
6.456,8167.0,-5.025875284561607,0.0
6.464,8342.0,29.070405056267873,0.0
6.472,8164.0,44.21457002754778,0.0
6.48,8107.0,-1.5433401872894592,0.0
6.488,8183.0,-24.488788600958515,0.0
6.496,8195.0,-16.367427021866888,0.0
6.504,8200.0,-5.609858030788246,0.0
6.512,8209.0,4.462882769074895,0.0
6.52,8220.0,13.829275852890078,0.0
6.528,8236.0,22.787986084557588,0.0
6.536,8253.0,31.373152080367163,0.0
6.544,8264.0,37.41428800968379,0.0
6.552,8253.0,35.314558158095906,0.0
6.56,8214.0,18.50363631930668,0.0
6.568,8182.0,-8.749043340135813,1.0
6.576,8164.0,-33.75481613750935,0.0
6.584,8164.0,-47.10297523227996,0.0
6.592,8161.0,-48.468589964186776,0.0
6.6,8166.0,-41.519200280471296,0.0
6.608,8168.0,-29.68443607495351,0.0
6.616,8172.0,-16.959060200436625,0.0
6.624,8172.0,-6.044896887930463,0.0
6.632,8177.0,2.347703142472483,0.0
6.64,8173.0,7.159434281261156,0.0
6.648,8173.0,8.102426103696416,0.0
6.656,8174.0,7.635987303088996,0.0
6.664,8173.0,6.202430359071059,0.0
6.672,8176.0,4.82286714169436,0.0
6.68,8180.0,4.705897914130674,0.0
6.688,8190.0,6.783464376272377,0.0
6.696,8179.0,6.779379664731323,0.0
6.704,8163.0,0.23300773956202647,0.0
6.712,8159.0,-7.759849034254103,0.0
6.72,8159.0,-12.127529943709078,0.0
6.728,8157.0,-13.280494195174697,0.0
6.736,8186.0,-6.432753420678182,0.0
6.744,8438.0,56.00080215994353,0.0
6.752,8053.0,57.261511759052155,0.0
6.76,8147.0,-10.125967601136836,0.0
6.768,8185.0,-21.475886782176985,0.0
6.776,8197.0,-14.717171133143665,0.0
6.784,8203.0,-4.811366145822149,0.0
6.792,8213.0,5.045183680300397,0.0
6.8,8221.0,13.786836438743421,0.0
6.808,8239.0,22.17820976374992,0.0
6.816,8250.0,29.703099638783215,0.0
6.824,8249.0,31.692974843401316,0.0
6.832,8221.0,22.14003078079736,0.0
6.84,8182.0,-0.5544098125560595,0.0
6.848,8160.0,-26.354159776170263,0.0
6.856,8151.0,-43.949813231826056,0.0
6.864,8150.0,-49.735551473968826,0.0
6.872,8158.0,-44.18662510626018,0.0
6.88,8167.0,-30.73267126555811,0.0
6.888,8165.0,-16.686483658179668,0.0
6.896,8171.0,-5.0325202855060525,0.0
6.904,8171.0,3.848408862658971,0.0
6.912,8173.0,8.925713160214627,0.0
6.92,8172.0,10.779479906149618,0.0
6.928,8176.0,10.85440058741483,0.0
6.936,8176.0,10.070256603337384,0.0
6.944,8183.0,9.509851148939106,0.0
6.952,8188.0,10.188232495255534,0.0
6.96,8196.0,11.700680518193849,0.0
6.968,8181.0,9.391072740222853,0.0
6.976,8180.0,3.3325638444659944,0.0
6.984,8175.0,-1.9814892888700797,0.0
6.992,8174.0,-6.04959933232999,0.0
7.0,8163.0,-9.989892131889746,0.0
7.008,8406.0,36.592202002686236,0.0
7.016,8132.0,52.259640386665296,0.0
7.024,8097.0,-9.526795418994652,0.0
7.032,8169.0,-37.063686559419466,0.0
7.04,8178.0,-31.18129945162036,0.0
7.048,8181.0,-20.52340247771326,0.0
7.056,8192.0,-8.248538174729447,0.0
7.064,8211.0,6.39039681539316,0.0
7.072,8229.0,21.638109747822455,0.0
7.08,8254.0,36.15992464099418,1.0
7.088,8260.0,45.5991561932226,0.0
7.096,8244.0,42.22512362143357,0.0
7.104,8202.0,21.97845136742376,0.0
7.112,8170.0,-8.44585087247765,0.0
7.12,8153.0,-35.168982767716216,0.0
7.128,8149.0,-49.93128332141009,0.0
7.136,8148.0,-52.11301573920309,0.0
7.144,8151.0,-45.09373874509902,0.0
7.152,8159.0,-31.858497779030586,0.0
7.16,8163.0,-16.749463895534973,0.0
7.168,8167.0,-3.640183142804972,0.0
7.176,8168.0,5.686022735142387,0.0
7.184,8163.0,9.522254057514147,0.0
7.192,8166.0,9.938707177773722,0.0
7.2,8168.0,9.699675668630107,0.0
7.208,8183.0,11.560841520080885,0.0
7.216,8191.0,15.607690862703748,0.0
7.224,8197.0,18.494892272769903,0.0
7.232,8173.0,13.720919616942865,0.0
7.24,8170.0,3.30122443413552,0.0
7.248,8173.0,-3.361470709186733,0.0
7.256,8171.0,-6.587838171986505,0.0
7.264,8163.0,-9.540120787261685,0.0
7.272,8307.0,17.945211163931845,0.0
7.28,8275.0,54.36097766091643,0.0
7.288,8072.0,19.64474235995067,0.0
7.296,8166.0,-26.133546630498586,0.0
7.304,8183.0,-26.56720563624208,0.0
7.312,8191.0,-17.688248290081447,0.0
7.32,8197.0,-6.895288789693723,0.0
7.328,8210.0,4.414772496126943,0.0
7.336,8232.0,17.584721325241617,0.0
7.344,8254.0,31.696592306336242,0.0
7.352,8266.0,42.18298004244866,0.0
7.36,8261.0,43.41928055176754,0.0
7.368,8218.0,27.761111638493958,0.0
7.376,8170.0,-4.2993908559719785,0.0
7.384,8154.0,-35.68333352995023,0.0
7.392,8150.0,-52.919747423396075,0.0
7.4,8151.0,-55.70297831078028,0.0
7.408,8153.0,-48.29084499578812,0.0
7.416,8165.0,-33.7256479317507,0.0
7.424,8160.0,-18.568502323976873,0.0
7.432,8162.0,-7.402289747407849,0.0
7.44,8165.0,1.3451685816785357,0.0
7.448,8165.0,6.927360054694645,0.0
7.456,8165.0,9.178389337840827,0.0
7.464,8163.0,8.709490535767372,0.0
7.472,8167.0,7.520324638399416,0.0
7.48,8185.0,10.171502040639325,0.0
7.488,8162.0,9.175780095690698,0.0
7.496,8153.0,0.6581288328179653,0.0
7.504,8158.0,-5.296179478302065,0.0
7.512,8159.0,-6.788779329204544,0.0
7.52,8156.0,-7.050842991454374,0.0
7.528,8264.0,15.314750564188898,0.0
7.536,8345.0,64.8326845610577,0.0
7.544,8058.0,42.20213905543142,0.0
7.552,8150.0,-17.418531398985124,1.0
7.56,8171.0,-26.951249509895888,0.0
7.568,8176.0,-23.190934309220438,0.0
7.576,8187.0,-14.182257535174813,0.0
7.584,8205.0,-0.7796193957949527,0.0
7.592,8228.0,15.641212003166856,0.0
7.6,8253.0,32.78751182724727,0.0
7.608,8264.0,45.311661151133194,0.0
7.616,8256.0,46.46154222142923,0.0
7.624,8219.0,30.903924688918323,0.0
7.632,8174.0,0.26510797941887176,0.0
7.64,8144.0,-33.21739303280401,0.0
7.648,8135.0,-55.95047221553523,0.0
7.656,8129.0,-63.976538133237,0.0
7.664,8128.0,-60.45364772902121,0.0
7.672,8135.0,-47.97892464735264,0.0
7.68,8145.0,-29.854108675155885,0.0
7.688,8159.0,-9.705667349286387,0.0
7.696,8160.0,6.746093729329459,0.0
7.704,8165.0,16.67865561794838,0.0
7.712,8161.0,20.22837611062664,0.0
7.72,8158.0,17.83070860438329,0.0
7.728,8170.0,15.548093523996613,0.0
7.736,8187.0,17.765608133561045,0.0
7.744,8181.0,18.630875796259943,0.0
7.752,8169.0,12.64051814836239,0.0
7.76,8166.0,4.116866393305827,0.0
7.768,8165.0,-2.365376038281056,0.0
7.776,8172.0,-4.61453965283863,0.0
7.784,8181.0,-1.9762594387518675,0.0
7.792,8544.0,75.88354602772483,0.0
7.8,8069.0,87.54317303214543,0.0
7.808,8136.0,-2.1886574390730402,0.0
7.816,8176.0,-33.06389954615997,0.0
7.824,8192.0,-34.86974322652827,0.0
7.832,8205.0,-24.726327640098816,0.0
7.84,8222.0,-8.849700528963922,0.0
7.848,8232.0,7.397551883835149,0.0
7.856,8257.0,23.035122843659565,0.0
7.864,8290.0,40.64020782108287,1.0
7.872,8304.0,54.49242959386311,0.0
7.88,8279.0,52.17560611991007,0.0
7.888,8224.0,26.55093685182942,0.0
7.896,8185.0,-11.83316321266966,0.0
7.904,8160.0,-45.81466225053305,0.0
7.912,8157.0,-64.68564427075557,0.0
7.92,8157.0,-66.651707213073,0.0
7.928,8160.0,-57.09634558794983,0.0
7.936,8155.0,-43.19744219818176,0.0
7.944,8157.0,-29.041314003073012,0.0
7.952,8166.0,-14.01908806778306,0.0
7.96,8173.0,0.25930399849016794,0.0
7.968,8169.0,9.277110453161868,0.0
7.976,8176.0,13.81660934978322,0.0
7.984,8186.0,17.879614465141685,0.0
7.992,8193.0,21.044822410754023,0.0
8.0,8171.0,16.661565327681046,0.0
8.008,8168.0,6.435703739490236,0.0
8.016,8173.0,-0.1789809473598325,0.0
8.024,8176.0,-2.429352347571694,0.0
8.032,8165.0,-5.026306387411523,0.0
8.04,8380.0,35.877274808218544,0.0
8.048,8197.0,61.16579333392542,0.0
8.056,8095.0,8.622190335641108,0.0
8.064,8177.0,-27.84525216680254,0.0
8.072,8196.0,-24.55598538903655,0.0
8.08,8202.0,-13.780220600984194,0.0
8.088,8206.0,-3.275198729702879,0.0
8.096,8227.0,8.541533280034173,0.0
8.104,8247.0,22.61126564083156,0.0
8.112,8275.0,37.31038696746259,0.0
8.12,8285.0,48.11015935409091,0.0
8.128,8267.0,45.56865231963525,0.0
8.136,8221.0,24.08161093420631,0.0
8.144,8185.0,-9.029513974454403,0.0
8.152,8169.0,-37.866040623890285,0.0
8.16,8169.0,-52.447789423928725,0.0
8.168,8173.0,-52.30250438491453,0.0
8.176,8169.0,-44.28690603646373,0.0
8.184,8175.0,-32.42347504472946,0.0
8.192,8186.0,-17.018565974813782,0.0
8.2,8189.0,-2.467701127255623,0.0
8.208,8186.0,6.511788973359671,0.0
8.216,8181.0,9.200573950789703,0.0
8.224,8191.0,10.417305465555046,0.0
8.232,8203.0,14.05211014313818,0.0
8.24,8207.0,17.340075064536904,0.0
8.248,8181.0,12.16099391103262,0.0
8.256,8179.0,1.5339205558159392,0.0
8.264,8186.0,-3.9619694470090963,0.0
8.272,8190.0,-4.364239333688147,0.0
8.28,8176.0,-5.983479128326735,0.0
8.288,8369.0,30.535918738033388,0.0
8.296,8192.0,50.77263790855909,0.0
8.304,8102.0,0.49454897522809915,0.0
8.312,8189.0,-29.92771186639993,0.0
8.32,8206.0,-22.134706676903306,0.0
8.328,8208.0,-10.28833779507545,0.0
8.336,8219.0,0.9333293954507553,0.0
8.344,8236.0,13.14872419941139,0.0
8.352,8254.0,25.529915609449063,0.0
8.36,8276.0,37.15352822168279,0.0
8.368,8284.0,44.523824867837675,0.0
8.376,8266.0,40.089260525015106,0.0
8.384,8215.0,17.29190451872364,0.0
8.392,8178.0,-16.790543607635072,1.0
8.4,8162.0,-45.22914633150799,0.0
8.408,8161.0,-58.6635306668004,0.0
8.416,8165.0,-57.10161725943476,0.0
8.424,8163.0,-47.11202342282331,0.0
8.432,8168.0,-33.44855278745467,0.0
8.44,8170.0,-18.8666975975691,0.0
8.448,8172.0,-6.565395132397043,0.0
8.456,8173.0,2.317868735000957,0.0
8.464,8174.0,7.628601730702485,0.0
8.472,8180.0,11.042880172824425,0.0
8.48,8194.0,15.473864322193322,0.0
8.488,8188.0,17.382727161041885,0.0
8.496,8175.0,11.994483221133578,0.0
8.504,8177.0,4.742070337960968,0.0
8.512,8180.0,0.7555556005570452,0.0
8.52,8185.0,-0.08220719579480829,0.0
8.528,8181.0,-0.3608943269082374,0.0
8.536,8483.0,60.4106520444393,0.0
8.544,8080.0,66.55749322075212,0.0
8.552,8144.0,-9.156156060819967,0.0
8.56,8189.0,-30.276112242399222,0.0
8.568,8201.0,-26.531056545510637,0.0
8.576,8207.0,-16.616400612186453,0.0
8.584,8216.0,-5.169134609996036,0.0
8.592,8231.0,7.287681235547552,0.0
8.6,8250.0,20.4959511212478,0.0
8.608,8274.0,33.98480748803672,0.0
8.616,8278.0,42.53002003212032,0.0
8.624,8255.0,37.25387594257768,0.0
8.632,8204.0,13.367184710083166,0.0
8.64,8169.0,-20.355858976262653,0.0
8.648,8161.0,-45.998358370839924,0.0
8.656,8163.0,-55.41520111500586,0.0
8.664,8161.0,-52.58270780848852,0.0
8.672,8162.0,-43.13971759868241,0.0
8.68,8167.0,-29.78885342411445,0.0
8.688,8167.0,-16.35532844902491,0.0
8.696,8169.0,-5.522501434140622,0.0
8.704,8176.0,3.5599984242662686,0.0
8.712,8180.0,10.638945152956694,0.0
8.72,8183.0,14.642538686372063,0.0
8.728,8197.0,18.26338961716351,0.0
8.736,8182.0,17.4315086266281,0.0
8.744,8175.0,9.802094985539725,0.0
8.752,8179.0,3.1910565645937368,0.0
8.76,8182.0,0.2276032707709419,0.0
8.768,8181.0,-1.150883815402267,0.0
8.776,8225.0,6.9933042101604315,0.0
8.784,8411.0,57.73868570749619,0.0
8.792,8066.0,46.5117233322037,1.0
8.8,8162.0,-18.050515215516043,0.0
8.808,8189.0,-28.366844100942444,0.0
8.816,8196.0,-23.2209275771188,0.0
8.824,8204.0,-13.59256195572857,0.0
8.832,8213.0,-2.364455555550876,0.0
8.84,8228.0,9.53752721306455,0.0
8.848,8260.0,24.732477241486094,0.0
8.856,8272.0,38.95824642819366,0.0
8.864,8261.0,41.669113695820215,0.0
8.872,8226.0,27.556948734445314,0.0
8.88,8190.0,0.5277204204796817,0.0
8.888,8161.0,-28.816882868194625,0.0
8.896,8152.0,-49.56568461691222,0.0
8.904,8157.0,-55.13895222672886,0.0
8.912,8158.0,-48.84945256863443,0.0
8.92,8162.0,-36.70219511566188,0.0
8.928,8163.0,-22.932336969583957,0.0
8.936,8171.0,-9.473345178502086,0.0
8.944,8174.0,2.1698603929703495,0.0
8.952,8176.0,9.74816064698507,0.0
8.96,8181.0,14.182124477498064,0.0
8.968,8183.0,16.084291678033424,0.0
8.976,8196.0,17.83517412014521,0.0
8.984,8178.0,15.145116074812222,0.0
8.992,8170.0,5.946220387932726,0.0
9.0,8171.0,-1.8256143229411919,0.0
9.008,8168.0,-6.553681526956552,0.0
9.016,8169.0,-8.764838849635225,0.0
9.024,8253.0,8.621909445704205,0.0
9.032,8321.0,48.65094577697096,0.0
9.04,8061.0,25.722235975879812,0.0
9.048,8163.0,-24.01709002527764,0.0
9.056,8192.0,-23.028163105868543,0.0
9.064,8194.0,-12.618646463640971,0.0
9.072,8206.0,-1.6891281946313939,0.0
9.08,8220.0,10.34248409494171,0.0
9.088,8234.0,21.610340182066466,0.0
9.096,8259.0,32.96548119486397,0.0
9.104,8272.0,42.446368136878164,0.0
9.112,8267.0,43.252385214527294,0.0
9.12,8231.0,28.79515646230152,0.0
9.128,8185.0,-0.8731779826971433,1.0
9.136,8167.0,-31.36185072874582,0.0
9.144,8165.0,-48.72399126391997,0.0
9.152,8167.0,-51.604800365314986,0.0
9.16,8160.0,-46.50611338888393,0.0
9.168,8160.0,-37.869988363464245,0.0
9.176,8170.0,-24.97805278470355,0.0
9.184,8173.0,-10.910904991267444,0.0
9.192,8171.0,-0.7330941697994149,0.0
9.2,8172.0,5.192891275770307,0.0
9.208,8174.0,8.52310816004524,0.0
9.216,8181.0,11.039096554579828,0.0
9.224,8184.0,12.896398848909712,0.0
9.232,8191.0,14.082566319053285,0.0
9.24,8171.0,9.993069812332124,0.0
9.248,8169.0,1.5648628491289855,0.0
9.256,8170.0,-3.8611173572060125,0.0
9.264,8169.0,-6.4846421400159215,0.0
9.272,8166.0,-7.8702453789087485,0.0
9.28,8269.0,12.933615675605552,0.0
9.288,8277.0,45.953487505327075,0.0
9.296,8074.0,18.675633413787637,0.0
9.304,8170.0,-22.14807918863721,0.0
9.312,8186.0,-20.051552968859596,0.0
9.32,8189.0,-11.889903049090663,0.0
9.328,8198.0,-2.808857205857521,0.0
9.336,8206.0,6.460628254593075,0.0
9.344,8225.0,16.479201429091518,0.0
9.352,8250.0,28.894963908634963,0.0
9.36,8260.0,39.00733663146957,0.0
9.368,8253.0,39.686707006058214,0.0
9.376,8215.0,24.87797520901745,0.0
9.384,8179.0,-2.7699400484577836,0.0
9.392,8156.0,-30.75466457882044,0.0
9.4,8148.0,-48.97533992178455,0.0
9.408,8152.0,-53.142980967007816,0.0
9.416,8156.0,-45.916207229693555,0.0
9.424,8158.0,-33.455061223022994,0.0
9.432,8162.0,-19.787572905042225,0.0
9.44,8166.0,-7.07020663714934,0.0
9.448,8167.0,2.544253708504357,0.0
9.456,8166.0,7.844490813283073,0.0
9.464,8169.0,10.198326548155364,0.0
9.472,8171.0,11.065698562364105,0.0
9.48,8171.0,10.309572074501148,0.0
9.488,8177.0,9.525152246692187,0.0
9.496,8185.0,10.477333683458937,0.0
9.504,8187.0,11.494973003072346,0.0
9.512,8170.0,7.289517266650137,0.0
9.52,8169.0,0.019825980605446603,0.0
9.528,8171.0,-4.0781624895194,0.0
9.536,8175.0,-4.657603599116101,0.0
9.544,8169.0,-4.702738083145732,0.0
9.552,8416.0,45.220058715813366,0.0
9.56,8070.0,47.662642179231625,0.0
9.568,8140.0,-14.50606463325039,0.0
9.576,8187.0,-25.17004828733093,0.0
9.584,8197.0,-16.015487240272705,0.0
9.592,8198.0,-5.926048957974444,0.0
9.6,8208.0,3.186596246007639,0.0
9.608,8216.0,11.770088830141503,0.0
9.616,8234.0,20.373689230892296,0.0
9.624,8259.0,31.157888001235506,1.0
9.632,8266.0,39.34936816054574,0.0
9.64,8242.0,34.754853336877886,0.0
9.648,8197.0,12.671661974155768,0.0
9.656,8167.0,-17.632036338805165,0.0
9.664,8157.0,-41.052401706199134,0.0
9.672,8158.0,-50.51784593282105,0.0
9.68,8155.0,-48.86519396291783,0.0
9.688,8158.0,-40.47927812875696,0.0
9.696,8164.0,-27.544017550414765,0.0
9.704,8167.0,-13.879420175077712,0.0
9.712,8169.0,-2.6724117693763674,0.0
9.72,8173.0,5.586368639651482,0.0
9.728,8171.0,10.032239982404917,0.0
9.736,8172.0,10.936214144147698,0.0
9.744,8170.0,9.608462999260382,0.0
9.752,8174.0,7.775078405794602,0.0
9.76,8176.0,6.737829066301174,0.0
9.768,8176.0,5.511468749307596,0.0
9.776,8191.0,7.015109927258209,0.0
9.784,8173.0,6.227884900468325,0.0
9.792,8165.0,-0.4937209759380039,0.0
9.8,8162.0,-6.641322749730534,0.0
9.808,8167.0,-8.861499735685584,0.0
9.816,8169.0,-7.400895018499341,0.0
9.824,8240.0,9.498927418271478,0.0
9.832,8359.0,56.8704616464388,0.0
9.84,8063.0,40.102429736596605,0.0
9.848,8167.0,-15.119916652719894,0.0
9.856,8190.0,-19.53975874957473,0.0
9.864,8190.0,-14.492269056765508,0.0
9.872,8201.0,-7.062683858332775,0.0
9.88,8214.0,3.3051665999223587,0.0
9.888,8228.0,14.45171625560829,0.0
9.896,8249.0,26.003245431505547,0.0
9.904,8266.0,36.65583312969056,0.0
9.912,8262.0,40.054209679880614,0.0
9.92,8226.0,27.819280030877962,0.0
9.928,8181.0,-0.1825351781237714,0.0
9.936,8164.0,-29.381739147984035,1.0
9.944,8160.0,-46.485799086874295,0.0
9.952,8160.0,-50.37051939877847,0.0
9.96,8157.0,-45.64407377192151,0.0
9.968,8158.0,-36.33728292645333,0.0
9.976,8160.0,-24.711198692973767,0.0
9.984,8162.0,-13.271838947066954,0.0
9.992,8162.0,-4.08585136551801,0.0
10.0,8167.0,2.9876939619316545,0.0
10.008,8162.0,6.718007337344261,0.0
10.016,8164.0,7.292676836713326,0.0
10.024,8165.0,7.139782016788331,0.0
10.032,8169.0,6.988389165887156,0.0
10.04,8167.0,6.247935047247211,0.0
10.048,8174.0,5.884275123209136,0.0
10.056,8183.0,8.045894868912455,0.0
10.064,8180.0,9.330225537054503,0.0
10.072,8162.0,4.384886946067354,0.0
10.08,8163.0,-2.6776927747730497,0.0
10.088,8166.0,-5.6313176503774685,0.0
10.096,8166.0,-5.91140983466471,0.0
10.104,8162.0,-5.998019681797814,0.0
10.112,8487.0,60.440694578995135,0.0
10.12,8057.0,69.11733140218394,0.0
10.128,8138.0,-7.531310830733901,0.0
10.136,8180.0,-26.59035447780161,0.0
10.144,8192.0,-22.798185360376692,0.0
10.152,8195.0,-14.034516433226145,0.0
10.16,8203.0,-4.47658966289805,0.0
10.168,8220.0,6.962176911573351,0.0
10.176,8242.0,20.63922855581518,0.0
10.184,8255.0,32.749192537118006,0.0
10.192,8260.0,38.623255965770795,0.0
10.2,8239.0,32.97261271175989,0.0
10.208,8194.0,11.147939924762568,0.0
10.216,8163.0,-18.97615750511045,0.0
10.224,8152.0,-42.49512422082853,0.0
10.232,8158.0,-50.98294406274158,0.0
10.24,8155.0,-47.66010815566369,0.0
10.248,8159.0,-38.26485270279977,0.0
10.256,8167.0,-24.455500897536922,0.0
10.264,8176.0,-9.10781639701986,0.0
10.272,8172.0,2.371135505529537,0.0
10.28,8166.0,6.757268363218827,0.0
10.288,8166.0,7.100933515382167,0.0
10.296,8170.0,7.044794480404789,0.0
10.304,8168.0,6.352121600007422,0.0
10.312,8172.0,5.388021037431827,0.0
10.32,8179.0,6.2482750348146965,0.0
10.328,8187.0,8.874227948538874,0.0
10.336,8192.0,11.737685184772545,0.0
10.344,8175.0,9.199947562531634,0.0
10.352,8174.0,2.626898237246678,0.0
10.36,8170.0,-2.680165198181612,0.0
10.368,8166.0,-7.046815679769452,0.0
10.376,8158.0,-11.012475033377314,0.0
10.384,8389.0,33.87094558214585,0.0
10.392,8138.0,51.19367490832178,0.0
10.4,8108.0,-3.7317885340185057,0.0
10.408,8179.0,-27.27250007754128,0.0
10.416,8191.0,-20.10263673628515,0.0
10.424,8197.0,-9.137179528972865,0.0
10.432,8206.0,1.7975904173110848,0.0
10.44,8215.0,11.669274248808279,0.0
10.448,8233.0,21.254294334329416,0.0
10.456,8252.0,31.259588014596602,1.0
10.464,8264.0,38.77070524100009,0.0
10.472,8249.0,36.72176856949636,0.0
10.48,8207.0,18.297430255232484,0.0
10.488,8175.0,-10.491060447566497,0.0
10.496,8159.0,-35.7323973601051,0.0
10.504,8157.0,-48.9200440285631,0.0
10.512,8158.0,-49.506641250331995,0.0
10.52,8161.0,-41.53055941922048,0.0
10.528,8164.0,-29.2911898151267,0.0
10.536,8166.0,-16.59045257388607,0.0
10.544,8164.0,-6.563949072716241,0.0
10.552,8165.0,0.15657990068893923,0.0
10.56,8166.0,4.515951943562868,0.0
10.568,8166.0,6.613706588599371,0.0
10.576,8167.0,7.055900068083247,0.0
10.584,8166.0,6.24765482840985,0.0
10.592,8173.0,6.048246655936737,0.0
10.6,8180.0,7.8735429483349435,0.0
10.608,8192.0,11.641013782069194,0.0
10.616,8169.0,9.856865661041411,0.0
10.624,8166.0,1.995484792355228,0.0
10.632,8171.0,-2.5476602926783016,0.0
10.64,8175.0,-3.0095060158266733,0.0
10.648,8162.0,-4.665071599180919,0.0
10.656,8410.0,43.07380327322949,0.0
10.664,8138.0,59.872778390583335,0.0
10.672,8104.0,-1.7858075663646105,0.0
10.68,8174.0,-30.625014470326278,0.0
10.688,8192.0,-25.058887675374535,0.0
10.696,8203.0,-12.043142406988181,0.0
10.704,8212.0,1.5662469127687473,0.0
10.712,8221.0,13.054770638304035,0.0
10.72,8239.0,23.385929565320794,0.0
10.728,8258.0,33.50930746464883,0.0
10.736,8265.0,39.727671358901944,0.0
10.744,8248.0,35.339009368899724,0.0
10.752,8207.0,15.536303150417552,0.0
10.76,8169.0,-14.670236720082812,1.0
10.768,8155.0,-40.93379641810134,0.0
10.776,8155.0,-53.12018716769421,0.0
10.784,8161.0,-51.047746243451456,0.0
10.792,8170.0,-39.018154861831135,0.0
10.8,8174.0,-23.332350808079354,0.0
10.808,8175.0,-9.496828243561595,0.0
10.816,8180.0,1.3511131949153423,0.0
10.824,8181.0,8.787528115334453,0.0
10.832,8175.0,10.83161453246521,0.0
10.84,8173.0,8.763876661492532,0.0
10.848,8168.0,4.782206977316946,0.0
10.856,8177.0,2.519618363072368,0.0
10.864,8192.0,5.702743085832935,0.0
10.872,8189.0,9.172244526795566,0.0
10.88,8173.0,5.951765762860987,0.0
10.888,8172.0,-0.3282920231013122,0.0
10.896,8177.0,-3.1753316015240216,0.0
10.904,8180.0,-2.743241769441738,0.0
10.912,8186.0,-0.2330893043647393,0.0
10.92,8546.0,76.06085150894455,0.0
10.928,8071.0,86.15464466229332,0.0
10.936,8153.0,-1.228187712185445,0.0
10.944,8187.0,-29.021147346191583,0.0
10.952,8192.0,-33.09017721856412,0.0
10.96,8204.0,-27.006619318464345,0.0
10.968,8212.0,-15.228274459144814,0.0
10.976,8224.0,-1.867778086607359,0.0
10.984,8244.0,12.854401023794026,0.0
10.992,8265.0,27.98852835323555,0.0
11.0,8268.0,37.59865482878445,0.0
11.008,8242.0,32.882748957548074,0.0
11.016,8196.0,10.398697777756752,0.0
11.024,8162.0,-20.81896429061908,0.0
11.032,8151.0,-45.318174543396026,0.0
11.04,8151.0,-55.18350599220071,0.0
11.048,8153.0,-52.24277423305193,0.0
11.056,8154.0,-41.97010662603316,0.0
11.064,8159.0,-28.305899435484207,0.0
11.072,8156.0,-15.52479971890375,0.0
11.08,8163.0,-4.795132236321479,0.0
11.088,8162.0,3.5031790159787306,0.0
11.096,8151.0,5.428053429888223,0.0
11.104,8150.0,3.2918541234748773,0.0
11.112,8161.0,3.572433677977415,0.0
11.12,8175.0,8.30426545875116,0.0
11.128,8170.0,11.682345728992004,0.0
11.136,8151.0,7.005735543746368,0.0
11.144,8154.0,-0.09096939918481439,0.0
11.152,8159.0,-2.639750373729612,0.0
11.16,8159.0,-2.725373803775483,0.0
11.168,8159.0,-2.362812521620299,0.0
11.176,8529.0,73.80114088169421,0.0
11.184,8052.0,85.79506509299358,0.0
11.192,8131.0,-1.4310205208782918,1.0
11.2,8176.0,-27.46612193674264,0.0
11.208,8190.0,-26.64530107767814,0.0
11.216,8200.0,-17.216907041187824,0.0
11.224,8207.0,-5.557570011835423,0.0
11.232,8222.0,6.674954032755977,0.0
11.24,8248.0,21.27358056349408,0.0
11.248,8268.0,36.07969622874498,0.0
11.256,8270.0,43.86051894445109,0.0
11.264,8241.0,36.296190036561484,0.0
11.272,8191.0,10.179962440668987,0.0
11.28,8159.0,-23.561201561843063,0.0
11.288,8156.0,-47.094042916980925,0.0
11.296,8158.0,-54.07561454302754,0.0
11.304,8158.0,-49.5974013995276,0.0
11.312,8165.0,-37.99933628544136,0.0
11.32,8169.0,-23.131802725272564,0.0
11.328,8170.0,-9.810609438176016,0.0
11.336,8175.0,0.7807314463684634,0.0
11.344,8173.0,7.538967354887518,0.0
11.352,8169.0,9.166975546762615,0.0
11.36,8177.0,9.557158509675673,0.0
11.368,8183.0,11.199145573171336,0.0
11.376,8193.0,13.741104546653105,0.0
11.384,8176.0,11.730995480779256,0.0
11.392,8176.0,5.290548898622092,0.0
11.4,8174.0,0.2709680991811183,0.0
11.408,8176.0,-2.7386856725247526,0.0
11.416,8166.0,-5.737779471842714,0.0
11.424,8379.0,34.83154382615203,0.0
11.432,8162.0,52.72609826758344,0.0
11.44,8101.0,-1.4806197405853254,0.0
11.448,8187.0,-28.20638336875959,0.0
11.456,8202.0,-19.10115201206918,0.0
11.464,8213.0,-5.5085516618637484,0.0
11.472,8219.0,6.838365241557767,0.0
11.48,8231.0,16.780949493440403,0.0
11.488,8249.0,26.245812140990438,0.0
11.496,8269.0,35.62757271810324,0.0
11.504,8275.0,41.086191335320336,0.0
11.512,8262.0,36.6551520502187,0.0
11.52,8221.0,17.44504450093791,0.0
11.528,8182.0,-12.904722036369321,1.0
11.536,8169.0,-39.52065861426763,0.0
11.544,8168.0,-52.129692840686175,0.0
11.552,8168.0,-51.8874789732165,0.0
11.56,8169.0,-43.67317900226794,0.0
11.568,8176.0,-30.559479515260136,0.0
11.576,8180.0,-15.923572388121102,0.0
11.584,8182.0,-3.6279145686148695,0.0
11.592,8183.0,4.806654338703538,0.0
11.6,8184.0,9.474700600900178,0.0
11.608,8184.0,11.003199843461061,0.0
11.616,8203.0,14.120652465103149,0.0
11.624,8193.0,15.66215863837624,0.0
11.632,8181.0,9.704616595888865,0.0
11.64,8178.0,1.6454892649587691,0.0
11.648,8180.0,-3.5744417716259704,0.0
11.656,8182.0,-5.302369520478351,0.0
11.664,8213.0,1.2215658650957266,0.0
11.672,8441.0,57.80852018666246,0.0
11.68,8062.0,51.660073212271755,0.0
11.688,8162.0,-16.808315039027548,0.0
11.696,8193.0,-27.98866003409944,0.0
11.704,8199.0,-22.7981559086204,0.0
11.712,8208.0,-13.207518428235971,0.0
11.72,8218.0,-1.6514998834682046,0.0
11.728,8228.0,9.519113794420946,0.0
11.736,8249.0,21.015511851126803,0.0
11.744,8267.0,32.59599520397023,0.0
11.752,8262.0,37.158647064318075,0.0
11.76,8232.0,27.072773506030444,0.0
11.768,8188.0,1.8851914967801804,0.0
11.776,8167.0,-26.576073841463312,0.0
11.784,8163.0,-44.48629336444287,0.0
11.792,8160.0,-49.763826266873366,0.0
11.8,8161.0,-45.748768725443824,0.0
11.808,8167.0,-35.0081112114824,0.0
11.816,8176.0,-20.283948823356923,0.0
11.824,8178.0,-6.253508331337116,0.0
11.832,8178.0,3.400778369792988,0.0
11.84,8179.0,8.79901029122675,0.0
11.848,8185.0,12.08758770111558,0.0
11.856,8204.0,17.30734659628888,0.0
11.864,8180.0,16.74880124931883,0.0
11.872,8174.0,7.750137759529252,0.0
11.88,8175.0,0.23182652248965496,0.0
11.888,8172.0,-4.65823963417165,0.0
11.896,8174.0,-7.048273409814328,0.0
11.904,8273.0,13.241249252833313,0.0
11.912,8281.0,45.093098026890175,0.0
11.92,8077.0,17.05062140204791,1.0
11.928,8179.0,-22.95741258275052,0.0
11.936,8197.0,-18.621384283342877,0.0
11.944,8203.0,-8.330622857904018,0.0
11.952,8209.0,1.4699471308802003,0.0
11.96,8214.0,9.290435796804331,0.0
11.968,8230.0,16.79723748508195,0.0
11.976,8252.0,26.453519482762886,0.0
11.984,8269.0,36.121295087588805,0.0
11.992,8257.0,37.38389107151352,0.0
12.0,8216.0,21.634805420826297,0.0
12.008,8183.0,-6.0775307348742444,0.0
12.016,8164.0,-32.16877811902714,0.0
12.024,8163.0,-46.80794882786245,0.0
12.032,8168.0,-47.55168941510851,0.0
12.04,8164.0,-40.577838157613314,0.0
12.048,8167.0,-30.50573562125828,0.0
12.056,8172.0,-18.289674597952853,0.0
12.064,8178.0,-6.0448766301617525,0.0
12.072,8178.0,3.3389562946751994,0.0
12.08,8183.0,9.403818552183338,0.0
12.088,8190.0,14.016448094122325,0.0
12.096,8196.0,17.275201342924447,0.0
12.104,8175.0,13.518785846438504,0.0
12.112,8172.0,4.344420628509852,0.0
12.12,8175.0,-1.739949283038868,0.0
12.128,8179.0,-3.6443329991802784,0.0
12.136,8171.0,-5.035261788081243,0.0
12.144,8375.0,34.94851190274471,0.0
12.152,8113.0,41.446795018578314,0.0
12.16,8110.0,-15.133672840258214,0.0
12.168,8185.0,-31.591165471300428,0.0
12.176,8190.0,-20.190439966562963,0.0
12.184,8194.0,-8.54825326337891,0.0
12.192,8202.0,2.084542744967848,0.0
12.2,8217.0,12.75563844899807,0.0
12.208,8232.0,23.261626235307176,0.0
12.216,8249.0,32.485739364337405,0.0
12.224,8255.0,37.714562088728144,0.0
12.232,8236.0,32.43299573636364,0.0
12.24,8198.0,12.747114142066266,0.0
12.248,8168.0,-14.720152795205422,1.0
12.256,8160.0,-36.495931590103964,0.0
12.264,8163.0,-44.86238138358431,0.0
12.272,8161.0,-42.804318624604775,0.0
12.28,8162.0,-35.30184458310487,0.0
12.288,8169.0,-23.878310886012287,0.0
12.296,8173.0,-11.254909045801242,0.0
12.304,8174.0,-1.0615688285997749,0.0
12.312,8178.0,6.149206257222204,0.0
12.32,8185.0,11.728663572014511,0.0
12.328,8192.0,16.11035313342154,0.0
12.336,8186.0,16.4634582475544,0.0
12.344,8172.0,10.090212947621467,0.0
12.352,8168.0,1.113875964367253,0.0
12.36,8168.0,-5.180794970138322,0.0
12.368,8173.0,-7.096479193064852,0.0
12.376,8166.0,-7.562103324144573,0.0
12.384,8457.0,51.330465556652825,0.0
12.392,8052.0,55.086835276108786,0.0
12.4,8152.0,-13.35521971991011,0.0
12.408,8190.0,-23.61341551001192,0.0
12.416,8197.0,-16.906485983494576,0.0
12.424,8202.0,-7.925186196626328,0.0
12.432,8211.0,1.4481030030772217,0.0
12.44,8220.0,10.44931611246784,0.0
12.448,8236.0,19.29589965260402,0.0
12.456,8255.0,28.752797278322987,0.0
12.464,8258.0,34.480945627903566,0.0
12.472,8229.0,27.32902333454672,0.0
12.48,8187.0,4.450627240722724,0.0
12.488,8162.0,-23.44254134249377,0.0
12.496,8158.0,-42.309073191722746,0.0
12.504,8157.0,-48.073658255661485,0.0
12.512,8156.0,-44.602891979943934,0.0
12.52,8163.0,-34.56215668744767,0.0
12.528,8167.0,-21.13674241406102,0.0
12.536,8163.0,-9.992394909007999,0.0
12.544,8164.0,-2.499583626839467,0.0
12.552,8167.0,3.1278222915775586,0.0
12.56,8168.0,6.798849393020191,0.0
12.568,8170.0,8.552005423647188,0.0
12.576,8182.0,11.152445584529232,0.0
12.584,8173.0,11.612401693295624,0.0
12.592,8158.0,5.220622031168887,0.0
12.6,8160.0,-2.006884560815479,0.0
12.608,8163.0,-4.955448534917423,0.0
12.616,8164.0,-5.130716621605188,0.0
12.624,8175.0,-2.004882787417273,0.0
12.632,8485.0,65.72825868440532,0.0
12.64,8041.0,68.44403659150157,0.0
12.648,8147.0,-9.380459269499624,1.0
12.656,8179.0,-25.790035719510342,0.0
12.664,8188.0,-23.208224555859488,0.0
12.672,8191.0,-15.711095018153173,0.0
12.68,8205.0,-5.42220350599996,0.0
12.688,8222.0,7.81802557765991,0.0
12.696,8241.0,21.817799947278672,0.0
12.704,8258.0,34.144237106449054,0.0
12.712,8254.0,38.9133130710336,0.0
12.72,8226.0,29.29639278281229,0.0
12.728,8182.0,4.45762368417536,0.0
12.736,8157.0,-25.004568654225977,0.0
12.744,8150.0,-45.17509926067487,0.0
12.752,8148.0,-52.09354695594993,0.0
12.76,8150.0,-48.28710891393848,0.0
12.768,8156.0,-37.08068546989921,0.0
12.776,8161.0,-22.584046454640657,0.0
12.784,8168.0,-8.135140135898837,0.0
12.792,8165.0,2.46050580523206,0.0
12.8,8158.0,6.31070338124232,0.0
12.808,8159.0,6.405121813648748,0.0
12.816,8163.0,6.511372770792377,0.0
12.824,8166.0,7.01711421292589,0.0
12.832,8169.0,7.4781364728496555,0.0
12.84,8177.0,8.864319587372165,0.0
12.848,8163.0,7.114365571043891,0.0
12.856,8154.0,0.3019048970718359,0.0
12.864,8159.0,-4.589948757612092,0.0
12.872,8162.0,-5.15268594089207,0.0
12.88,8155.0,-5.52148307233324,0.0
12.888,8315.0,26.35555903650811,0.0
12.896,8222.0,54.89993057825063,0.0
12.904,8080.0,15.446853653757444,0.0
12.912,8167.0,-21.464101673951745,0.0
12.92,8186.0,-18.383081262818223,0.0
12.928,8194.0,-8.257756511311982,0.0
12.936,8202.0,2.2511304002293855,0.0
12.944,8216.0,12.619388989534855,0.0
12.952,8233.0,23.171237256024824,0.0
12.96,8249.0,32.64047705789153,0.0
12.968,8259.0,38.60370970459803,0.0
12.976,8247.0,35.868975963250705,0.0
12.984,8210.0,18.802758411909053,0.0
12.992,8173.0,-9.259155623875131,0.0
13.0,8152.0,-36.30057584840392,0.0
13.008,8154.0,-50.670947078949666,0.0
13.016,8160.0,-49.85284066902091,0.0
13.024,8163.0,-39.972027386188984,0.0
13.032,8169.0,-26.229592121084806,0.0
13.04,8171.0,-12.491216200875442,0.0
13.048,8174.0,-1.4510433934838147,0.0
13.056,8172.0,5.5023927340751015,0.0
13.064,8169.0,7.758911589149648,0.0
13.072,8168.0,7.099867243731296,0.0
13.08,8173.0,6.4508891243192465,0.0
13.088,8178.0,7.132061843271913,0.0
13.096,8193.0,10.539617993752472,0.0
13.104,8176.0,10.548308942909216,0.0
13.112,8169.0,4.050980830293156,0.0
13.12,8171.0,-1.4272089350217811,0.0
13.128,8171.0,-4.042017961711963,0.0
13.136,8168.0,-5.588496549381034,0.0
13.144,8295.0,19.677502817177583,0.0
13.152,8297.0,57.99123783381856,0.0
13.16,8069.0,25.685775113202453,0.0
13.168,8171.0,-23.055792831286908,0.0
13.176,8191.0,-23.461244862024614,0.0
13.184,8191.0,-16.05801039334142,0.0
13.192,8194.0,-8.632263344732564,0.0
13.2,8210.0,0.9497798931686248,0.0
13.208,8230.0,13.82741629940665,0.0
13.216,8254.0,28.336065986679387,0.0
13.224,8262.0,39.158001802833724,0.0
13.232,8250.0,38.80405823257297,0.0
13.24,8212.0,22.49654212294945,0.0
13.248,8171.0,-6.6982024625651775,1.0
13.256,8157.0,-34.18494506111233,0.0
13.264,8155.0,-48.5265313357354,0.0
13.272,8153.0,-50.4681301801545,0.0
13.28,8155.0,-43.964824301354156,0.0
13.288,8157.0,-32.635990327129775,0.0
13.296,8167.0,-18.536525348303712,0.0
13.304,8173.0,-4.1189557772479475,0.0
13.312,8174.0,6.462159182173082,0.0
13.32,8171.0,11.331471868610606,0.0
13.328,8170.0,11.675987180625725,0.0
13.336,8188.0,13.58262950751805,0.0
13.344,8183.0,15.30683839672838,0.0
13.352,8195.0,15.43594108659613,0.0
13.36,8176.0,11.741915568018158,0.0
13.368,8177.0,4.099647133416511,0.0
13.376,8178.0,-0.6329310666544643,0.0
13.384,8175.0,-3.744411840157227,0.0
13.392,8167.0,-7.264148475293041,0.0
13.4,8381.0,33.84158553820885,0.0
13.408,8196.0,58.94538895576966,0.0
13.416,8097.0,6.833486083558455,0.0
13.424,8177.0,-28.90316017419036,0.0
13.432,8193.0,-26.04281448269694,0.0
13.44,8204.0,-14.886690429001874,0.0
13.448,8212.0,-2.150263410264415,0.0
13.456,8223.0,9.5897595066117,0.0
13.464,8245.0,21.82079617329373,0.0
13.472,8261.0,33.509352156259865,0.0
13.48,8268.0,40.04045054014614,0.0
13.488,8265.0,38.64952973618574,0.0
13.496,8234.0,25.020988532942738,0.0
13.504,8192.0,-1.7463456366840546,0.0
13.512,8165.0,-31.40849320121538,0.0
13.52,8161.0,-50.52206562458355,0.0
13.528,8159.0,-55.39186430644986,0.0
13.536,8164.0,-49.26089230047978,0.0
13.544,8166.0,-36.73640707125924,0.0
13.552,8170.0,-22.533969279617395,0.0
13.56,8171.0,-9.696751140421611,0.0
13.568,8166.0,-1.4519028653292025,0.0
13.576,8164.0,2.2141066538756604,0.0
13.584,8158.0,2.412087342472887,0.0
13.592,8166.0,2.5720735317947856,0.0
13.6,8179.0,6.567049703894099,0.0
13.608,8177.0,10.181338844159654,0.0
13.616,8157.0,6.2805942046661585,0.0
13.624,8165.0,0.569878149791748,0.0
13.632,8165.0,-1.2594235700182708,0.0
13.64,8166.0,-1.9460252882404347,0.0
13.648,8170.0,-1.0355358874116973,1.0
13.656,8540.0,76.06843379495444,0.0
13.664,8058.0,87.25302959489363,0.0
13.672,8134.0,-2.3071427291306463,0.0
13.68,8179.0,-30.2026911822486,0.0
13.688,8190.0,-30.680141908145742,0.0
13.696,8202.0,-21.612114875941643,0.0
13.704,8213.0,-8.2737279665605,0.0
13.712,8238.0,8.223796555231957,0.0
13.72,8262.0,26.744321123180498,0.0
13.728,8282.0,42.63181033081264,0.0
13.736,8274.0,48.015769498159216,0.0
13.744,8241.0,35.54374286871143,0.0
13.752,8190.0,5.617686681755913,0.0
13.76,8164.0,-28.663404691379355,0.0
13.768,8155.0,-51.74200398523021,0.0
13.776,8151.0,-60.20186173667389,0.0
13.784,8150.0,-57.09919895518874,0.0
13.792,8155.0,-45.79017347367085,0.0
13.8,8156.0,-30.93389872052967,0.0
13.808,8167.0,-15.006368258543944,0.0
13.816,8166.0,-1.2687022032166624,0.0
13.824,8167.0,7.048081083078841,0.0
13.832,8161.0,9.876536602017495,0.0
13.84,8162.0,9.030376885134956,0.0
13.848,8168.0,8.590953468065436,0.0
13.856,8185.0,11.727508193713447,0.0
13.864,8164.0,10.98722952285425,0.0
13.872,8157.0,3.163213173804479,0.0
13.88,8169.0,-0.9219735288913853,0.0
13.888,8177.0,0.8878523454491187,0.0
13.896,8171.0,2.2321731371444002,0.0
13.904,8343.0,36.60271527596501,0.0
13.912,8265.0,70.58427104283624,0.0
13.92,8073.0,24.818275910726697,0.0
13.928,8160.0,-27.461988281975664,0.0
13.936,8177.0,-32.9696030386865,0.0
13.944,8179.0,-27.346500687795242,0.0
13.952,8190.0,-17.21904422390162,0.0
13.96,8208.0,-2.694348913728845,0.0
13.968,8224.0,13.250255071488937,0.0
13.976,8242.0,27.61720054042189,1.0
13.984,8253.0,37.85141872932377,0.0
13.992,8246.0,38.98239993378024,0.0
14.0,8203.0,23.526027180922483,0.0
14.008,8163.0,-6.138638010084151,0.0
14.016,8145.0,-34.60102992870793,0.0
14.024,8146.0,-49.66083104989502,0.0
14.032,8146.0,-50.83370362367987,0.0
14.04,8146.0,-43.820349046674664,0.0
14.048,8145.0,-33.23328138861871,0.0
14.056,8149.0,-21.320646829970656,0.0
14.064,8153.0,-9.408666079680188,0.0
14.072,8159.0,1.1055327735518858,0.0
14.08,8162.0,8.994708242746583,0.0
14.088,8168.0,14.135357089445279,0.0
14.096,8173.0,17.27975042875869,0.0
14.104,8185.0,19.992639352836022,0.0
14.112,8179.0,19.79172222741977,0.0
14.12,8168.0,13.19912745686156,0.0
14.128,8182.0,7.912036733019022,0.0
14.136,8179.0,5.833010904312914,0.0
14.144,8180.0,3.3105235052244097,0.0
14.152,8186.0,2.7469199470160675,0.0
14.16,8531.0,73.70672957408146,0.0
14.168,8073.0,81.41144065847516,0.0
14.176,8140.0,-6.256563551086856,0.0
14.184,8187.0,-33.864413857356794,0.0
14.192,8199.0,-33.003657522019466,0.0
14.2,8203.0,-24.222050417457012,0.0
14.208,8217.0,-11.678858868197949,0.0
14.216,8238.0,4.660345641332469,0.0
14.224,8258.0,21.99309464027374,0.0
14.232,8277.0,36.8769732288381,0.0
14.24,8276.0,43.765704908139924,0.0
14.248,8250.0,35.688169759062475,0.0
14.256,8196.0,9.156315064722094,0.0
14.264,8169.0,-24.47115226952201,0.0
14.272,8162.0,-47.594493510324355,0.0
14.28,8164.0,-55.07521652405103,0.0
14.288,8163.0,-50.94495005352701,0.0
14.296,8167.0,-40.165559043715575,0.0
14.304,8177.0,-24.840860587143425,0.0
14.312,8180.0,-9.355780794917791,0.0
14.32,8184.0,2.65062243480088,0.0
14.328,8181.0,9.55362468773069,0.0
14.336,8185.0,12.391907395519866,0.0
14.344,8189.0,13.82611027542248,0.0
14.352,8203.0,16.25550881771551,0.0
14.36,8189.0,15.227724102312322,0.0
14.368,8181.0,7.816573067499121,0.0
14.376,8183.0,1.0227408780028782,0.0
14.384,8184.0,-2.5372773946476173,0.0
14.392,8185.0,-3.849383481733639,0.0
14.4,8282.0,15.97973189484901,0.0
14.408,8347.0,58.38065560333689,0.0
14.416,8078.0,32.9279273412028,0.0
14.424,8172.0,-22.86968089298057,0.0
14.432,8199.0,-27.68058110936613,0.0
14.44,8209.0,-18.769906243832338,0.0
14.448,8217.0,-6.976993644468166,0.0
14.456,8232.0,5.754028973149843,0.0
14.464,8252.0,19.561284901498993,0.0
14.472,8269.0,32.3202821118407,0.0
14.48,8283.0,41.29912132115828,0.0
14.488,8276.0,41.777863531825005,0.0
14.496,8232.0,25.30763161138134,0.0
14.504,8186.0,-6.656846250764374,1.0
14.512,8166.0,-38.03518370008601,0.0
14.52,8164.0,-55.320316075721166,0.0
14.528,8166.0,-57.15550197751668,0.0
14.536,8166.0,-49.166777512595445,0.0
14.544,8166.0,-36.98799522466925,0.0
14.552,8173.0,-22.74756102461197,0.0
14.56,8180.0,-8.016781423752718,0.0
14.568,8183.0,3.9534242797224124,0.0
14.576,8190.0,12.47620665673412,0.0
14.584,8202.0,19.506741573824456,0.0
14.592,8199.0,22.54584348208232,0.0
14.6,8177.0,15.817426741740292,0.0
14.608,8181.0,5.762728741968431,0.0
14.616,8182.0,-0.03579665490406114,0.0
14.624,8180.0,-3.663908644054345,0.0
14.632,8182.0,-5.254076295849245,0.0
14.64,8440.0,47.72029547729176,0.0
14.648,8081.0,51.1799082964983,0.0
14.656,8131.0,-17.662515292883427,0.0
14.664,8190.0,-33.42917546385479,0.0
14.672,8197.0,-24.201440311571332,0.0
14.68,8203.0,-12.4190382272011,0.0
14.688,8215.0,0.10934256143855237,0.0
14.696,8227.0,12.405248465815248,0.0
14.704,8241.0,23.108066286014036,0.0
14.712,8266.0,33.90197164354754,0.0
14.72,8274.0,41.88745761693144,0.0
14.728,8244.0,35.76480972995205,0.0
14.736,8196.0,10.78605426398417,0.0
14.744,8167.0,-21.352797149028447,0.0
14.752,8153.0,-45.90726025053391,0.0
14.76,8157.0,-55.511654972227916,0.0
14.768,8162.0,-50.93674863407455,0.0
14.776,8160.0,-39.8956417715749,0.0
14.784,8165.0,-26.704396702908298,0.0
14.792,8172.0,-12.402804480031818,0.0
14.8,8179.0,0.7957566784957635,0.0
14.808,8186.0,11.340929423546186,0.0
14.816,8192.0,18.513819153143686,0.0
14.824,8192.0,21.174745748838404,0.0
14.832,8173.0,15.656356297981347,0.0
14.84,8171.0,5.728784149922831,0.0
14.848,8175.0,-0.6023152999089234,0.0
14.856,8174.0,-3.6422964953069368,0.0
14.864,8172.0,-5.5008236950184255,0.0
14.872,8395.0,39.38451835438218,0.0
14.88,8097.0,44.63591596529841,0.0
14.888,8110.0,-17.25148278975803,1.0
14.896,8183.0,-33.66618907775728,0.0
14.904,8189.0,-22.129862553360226,0.0
14.912,8194.0,-9.70484062602236,0.0
14.92,8212.0,3.8135842065323686,0.0
14.928,8222.0,16.950597067185754,0.0
14.936,8237.0,27.257414831514552,0.0
14.944,8257.0,36.37083289543443,0.0
14.952,8266.0,42.17096964970597,0.0
14.96,8248.0,37.36883678261984,0.0
14.968,8199.0,15.17515135544545,0.0
14.976,8166.0,-17.00355727524402,0.0
14.984,8157.0,-42.036687146271106,0.0
14.992,8158.0,-52.102387526536404,0.0
15.0,8155.0,-50.56449084761584,0.0
15.008,8157.0,-42.19310846233361,0.0
15.016,8167.0,-28.393703561079064,0.0
15.024,8167.0,-13.884929405038292,0.0
15.032,8165.0,-3.6079467487511465,0.0
15.04,8168.0,3.2211519892468914,0.0
15.048,8182.0,10.244619075200944,0.0
15.056,8190.0,17.33969889167429,0.0
15.064,8184.0,19.31541602615789,0.0
15.072,8168.0,13.060788689181209,0.0
15.08,8168.0,4.112829476738625,0.0
15.088,8168.0,-1.8025323442304853,0.0
15.096,8171.0,-4.414679920656681,0.0
15.104,8178.0,-3.2471738634424128,0.0
15.112,8455.0,55.95703128094124,0.0
15.12,8045.0,55.31454453787251,0.0
15.128,8146.0,-16.580713627170553,0.0
15.136,8179.0,-29.209308427314227,0.0
15.144,8188.0,-23.668728023167432,0.0
15.152,8196.0,-13.330465351775501,0.0
15.16,8207.0,-1.3136622967717813,0.0
15.168,8222.0,11.304043360822789,0.0
15.176,8243.0,24.40713695951831,0.0
15.184,8262.0,36.627907832011715,0.0
15.192,8265.0,42.7966465496263,0.0
15.2,8236.0,34.64453025969192,0.0
15.208,8187.0,8.63539811687815,0.0
15.216,8162.0,-23.17384903413017,1.0
15.224,8153.0,-45.418584339253584,0.0
15.232,8159.0,-52.30099311610638,0.0
15.24,8161.0,-46.807383836287045,0.0
15.248,8165.0,-35.23611553994556,0.0
15.256,8166.0,-22.02917140003092,0.0
15.264,8166.0,-10.674423179409587,0.0
15.272,8168.0,-1.932273603324802,0.0
15.28,8168.0,3.9393763780610698,0.0
15.288,8172.0,7.631807837015913,0.0
15.296,8177.0,10.497140983278541,0.0
15.304,8179.0,12.030309576516629,0.0
15.312,8188.0,13.360395091056944,0.0
15.32,8172.0,10.69130610662205,0.0
15.328,8166.0,2.99726494658762,0.0
15.336,8170.0,-2.4160007036921343,0.0
15.344,8176.0,-3.2080946180760748,0.0
15.352,8169.0,-3.3944534667414246,0.0
15.36,8292.0,20.70886904811414,0.0
15.368,8253.0,48.98509450362326,0.0
15.376,8078.0,14.560512700617892,0.0
15.384,8176.0,-23.73683728643232,0.0
15.392,8190.0,-19.90534990039737,0.0
15.4,8198.0,-10.126910445143722,0.0
15.408,8206.0,0.4602148729438795,0.0
15.416,8217.0,10.533364986953757,0.0
15.424,8234.0,20.61404997588602,0.0
15.432,8256.0,31.418149313324193,0.0
15.44,8270.0,40.39914324550773,0.0
15.448,8263.0,41.015607054859856,0.0
15.456,8217.0,24.33378889141136,0.0
15.464,8172.0,-7.812475499253651,0.0
15.472,8155.0,-38.30591087013909,0.0
15.48,8158.0,-53.39226158653446,0.0
15.488,8158.0,-53.60650498536506,0.0
15.496,8158.0,-45.60582927957398,0.0
15.504,8160.0,-33.55125918257818,0.0
15.512,8166.0,-19.70103279255909,0.0
15.52,8167.0,-7.093016856951181,0.0
15.528,8167.0,1.6430288838250817,0.0
15.536,8171.0,7.377612657638565,0.0
15.544,8168.0,9.854803711392378,0.0
15.552,8167.0,9.008502555936957,0.0
15.56,8169.0,7.346506953026619,0.0
15.568,8173.0,6.475593270866284,0.0
15.576,8179.0,7.0217682236811925,0.0
15.584,8192.0,10.161907908102648,0.0
15.592,8182.0,11.091218628871502,0.0
15.6,8167.0,4.8517311905409315,0.0
15.608,8167.0,-2.6383834743285206,0.0
15.616,8167.0,-6.66801486213194,0.0
15.624,8169.0,-7.631580814200561,0.0
15.632,8202.0,0.10613445137300914,0.0
15.64,8453.0,62.68754936872347,0.0
15.648,8057.0,60.57030304052546,0.0
15.656,8156.0,-10.542350645470378,0.0
15.664,8187.0,-24.440804845782395,0.0
15.672,8197.0,-20.57847944956302,0.0
15.68,8202.0,-12.109853831108694,0.0
15.688,8214.0,-1.7924118095152153,0.0
15.696,8228.0,9.89287861152684,0.0
15.704,8250.0,22.658492609142286,0.0
15.712,8271.0,35.55769619841817,0.0
15.72,8271.0,42.08561479783884,0.0
15.728,8241.0,33.436514406873584,0.0
15.736,8188.0,6.295112026605466,0.0
15.744,8156.0,-28.07625194868865,1.0
15.752,8151.0,-51.70585924546572,0.0
15.76,8149.0,-59.27125724482812,0.0
15.768,8150.0,-54.96349976869601,0.0
15.776,8151.0,-43.674182125421794,0.0
15.784,8154.0,-29.558973468367185,0.0
15.792,8161.0,-14.68676481960506,0.0
15.8,8159.0,-2.643174120088588,0.0
15.808,8157.0,4.062918662571292,0.0
15.816,8153.0,6.187099506974619,0.0
15.824,8155.0,6.0966975933158665,0.0
15.832,8161.0,6.753309327671332,0.0
15.84,8160.0,7.139251139808266,0.0
15.848,8160.0,6.080800926196616,0.0
15.856,8168.0,6.167320614255914,0.0
15.864,8175.0,8.347961978724697,0.0
15.872,8180.0,10.823550007359017,0.0
15.88,8162.0,7.990720033750222,0.0
15.888,8158.0,0.6092834476010012,0.0
15.896,8160.0,-4.257062191324394,0.0
15.904,8163.0,-5.468085981704917,0.0
15.912,8150.0,-7.398265320618293,0.0
15.92,8368.0,34.463563129819704,0.0
15.928,8145.0,52.9739923802947,0.0
15.936,8094.0,-0.0888786574344067,0.0
15.944,8172.0,-25.940575800019133,0.0
15.952,8187.0,-18.296352730956414,0.0
15.96,8193.0,-6.711311465378685,0.0
15.968,8202.0,4.222089239410252,0.0
15.976,8214.0,14.338283137711414,0.0
15.984,8234.0,24.684756944013316,0.0
15.992,8258.0,36.050380246521854,0.0
16.0,8270.0,44.66115764003871,0.0
16.008,8258.0,42.982398539882524,0.0
16.016,8210.0,23.21489475745716,0.0
16.024,8171.0,-9.769398166463816,0.0
16.032,8153.0,-39.44024553401027,0.0
16.04,8147.0,-55.91114878022245,0.0
16.048,8147.0,-58.40102865113772,0.0
16.056,8149.0,-50.61065257496489,0.0
16.064,8154.0,-36.90015892485144,0.0
16.072,8158.0,-21.35858852160186,0.0
16.08,8160.0,-7.703310335784863,0.0
16.088,8157.0,1.3360106196203105,0.0
16.096,8156.0,5.662091853718266,0.0
16.104,8159.0,7.7706908548186675,0.0
16.112,8161.0,8.861088494611522,0.0
16.12,8161.0,8.57110390236312,0.0
16.128,8164.0,7.713029445094435,0.0
16.136,8169.0,7.67058591568707,0.0
16.144,8172.0,8.116940112406382,0.0
16.152,8188.0,11.032004981075943,0.0
16.16,8180.0,12.717793961939833,0.0
16.168,8165.0,7.087680148370282,0.0
16.176,8163.0,-0.7896498619970771,0.0
16.184,8166.0,-5.124268779568865,0.0
16.192,8165.0,-6.502253981619788,0.0
16.2,8252.0,11.238497184242988,0.0
16.208,8381.0,64.15543739876239,0.0
16.216,8067.0,47.92805454062864,0.0
16.224,8164.0,-13.268530588162548,0.0
16.232,8187.0,-22.932325376681774,0.0
16.24,8196.0,-18.63304009710282,0.0
16.248,8204.0,-9.792347044173084,0.0
16.256,8217.0,1.2109769584537844,0.0
16.264,8234.0,13.663750961895403,0.0
16.272,8260.0,27.74165049726821,1.0
16.28,8275.0,40.23766920678736,0.0
16.288,8266.0,42.75309342050787,0.0
16.296,8231.0,28.769601286874376,0.0
16.304,8183.0,-0.8189924609569061,0.0
16.312,8161.0,-32.494526800636095,0.0
16.32,8155.0,-52.021254858016164,0.0
16.328,8154.0,-57.11239914158227,0.0
16.336,8159.0,-50.647176345955586,0.0
16.344,8164.0,-37.10193625361853,0.0
16.352,8166.0,-22.03610635588734,0.0
16.36,8168.0,-8.968062268588028,0.0
16.368,8171.0,1.1415256763468733,0.0
16.376,8168.0,6.947250553808999,0.0
16.384,8170.0,9.12316066508447,0.0
16.392,8169.0,9.231112300189125,0.0
16.4,8173.0,8.508311608238273,0.0
16.408,8175.0,8.0166929490033,0.0
16.416,8170.0,5.897622735634741,0.0
16.424,8175.0,3.7502588858023955,0.0
16.432,8182.0,4.363337823596794,0.0
16.44,8195.0,8.150394666098691,0.0
16.448,8176.0,7.928552859273623,0.0
16.456,8170.0,1.487773175022312,0.0
16.464,8176.0,-2.5468572861934717,0.0
16.472,8175.0,-3.5252933416159067,0.0
16.48,8166.0,-5.612470973455402,0.0
16.488,8345.0,28.735232593261344,0.0
16.496,8225.0,56.74555605404157,0.0
16.504,8091.0,12.815109706275734,0.0
16.512,8180.0,-24.30174282780672,0.0
16.52,8196.0,-21.11657061643814,0.0
16.528,8205.0,-10.923823059904407,0.0
16.536,8213.0,0.2334455692850952,0.0
16.544,8229.0,11.699662522143399,0.0
16.552,8249.0,24.061787064666987,0.0
16.56,8275.0,37.1225141250909,0.0
16.568,8287.0,46.98182658419728,0.0
16.576,8272.0,45.076705786709226,0.0
16.584,8229.0,25.26641201954658,0.0
16.592,8183.0,-8.462822711364197,1.0
16.6,8162.0,-40.815327939575354,0.0
16.608,8157.0,-59.072282148772274,0.0
16.616,8149.0,-63.56927025379309,0.0
16.624,8152.0,-57.61243401829552,0.0
16.632,8159.0,-43.31183762214255,0.0
16.64,8167.0,-25.223390311348567,0.0
16.648,8167.0,-9.067342103187002,0.0
16.656,8164.0,1.249131788310251,0.0
16.664,8167.0,7.160894316797567,0.0
16.672,8165.0,9.775725652468964,0.0
16.68,8166.0,9.635716372854858,0.0
16.688,8163.0,7.683425130077467,0.0
16.696,8170.0,6.181148664035845,0.0
16.704,8180.0,7.828683755294833,0.0
16.712,8187.0,11.089226442291192,0.0
16.72,8192.0,13.787858283627429,0.0
16.728,8170.0,9.820308632127308,0.0
16.736,8169.0,1.2861126478610458,0.0
16.744,8174.0,-3.1387833485632655,0.0
16.752,8177.0,-3.6453763473773506,0.0
16.76,8162.0,-5.843902420949689,0.0
16.768,8474.0,54.41924228616358,0.0
16.776,8082.0,65.46410130549634,0.0
16.784,8126.0,-9.025804597117713,0.0
16.792,8185.0,-30.66760872814416,0.0
16.8,8201.0,-23.49440272257857,0.0
16.808,8209.0,-10.786931965166104,0.0
16.816,8213.0,0.8152813919953132,0.0
16.824,8228.0,11.43492062353289,0.0
16.832,8251.0,23.745120142639507,0.0
16.84,8275.0,37.02745009726709,0.0
16.848,8281.0,45.39782437697227,0.0
16.856,8261.0,40.60499235888847,0.0
16.864,8214.0,17.92616805524699,0.0
16.872,8177.0,-15.365139159023784,0.0
16.88,8168.0,-42.121864820792325,0.0
16.888,8163.0,-54.419787915133156,0.0
16.896,8162.0,-54.66788211419248,0.0
16.904,8160.0,-47.1392108880857,0.0
16.912,8166.0,-34.72270306255086,0.0
16.92,8172.0,-19.663619280054718,0.0
16.928,8176.0,-5.733456932663103,0.0
16.936,8176.0,4.191281157202184,0.0
16.944,8173.0,8.812404733617768,0.0
16.952,8174.0,9.800663375134263,0.0
16.96,8176.0,9.512124129858876,0.0
16.968,8180.0,9.125137147513897,0.0
16.976,8193.0,10.985909197383307,0.0
16.984,8190.0,12.463781456814786,0.0
16.992,8169.0,6.54491650666796,0.0
17.0,8172.0,-1.6251918995587857,0.0
17.008,8171.0,-5.801980618275593,0.0
17.016,8173.0,-7.188177011122434,0.0
17.024,8182.0,-4.670849724933305,0.0
17.032,8469.0,57.999093425473575,0.0
17.04,8071.0,63.59125583562104,0.0
17.048,8133.0,-11.387810481431188,0.0
17.056,8187.0,-30.304884587290644,0.0
17.064,8196.0,-24.026880889593258,0.0
17.072,8202.0,-13.606808744715408,0.0
17.08,8216.0,-1.295425957481939,0.0
17.088,8231.0,12.106631296721844,0.0
17.096,8249.0,24.939004859262468,0.0
17.104,8268.0,36.30613242429308,1.0
17.112,8278.0,43.448918617169966,0.0
17.12,8255.0,38.42987096967909,0.0
17.128,8205.0,14.721232246532054,0.0
17.136,8172.0,-18.48889859541032,0.0
17.144,8162.0,-44.111115409747526,0.0
17.152,8165.0,-54.00639220261837,0.0
17.16,8167.0,-50.648931942211675,0.0
17.168,8166.0,-40.78005873933262,0.0
17.176,8170.0,-28.147982672917806,0.0
17.184,8175.0,-14.571119876647572,0.0
17.192,8175.0,-3.311127717151294,0.0
17.2,8186.0,6.09732819477199,0.0
17.208,8176.0,10.94134741062885,0.0
17.216,8176.0,10.104246732693127,0.0
17.224,8173.0,7.46436122903674,0.0
17.232,8188.0,7.223061918193935,0.0
17.24,8168.0,4.963752338059749,0.0
17.248,8157.0,-3.458288620202211,0.0
17.256,8157.0,-10.162061451004774,0.0
17.264,8167.0,-10.542964944715777,0.0
17.272,8172.0,-6.105280349225268,0.0
17.28,8273.0,19.100678944854053,0.0
17.288,8276.0,52.35883906167487,0.0
17.296,8068.0,22.20777312595169,0.0
17.304,8168.0,-21.05496712052104,0.0
17.312,8195.0,-17.50209415599079,0.0
17.32,8199.0,-6.414081329202418,0.0
17.328,8208.0,3.771712330695891,0.0
17.336,8224.0,14.331258407727546,0.0
17.344,8240.0,24.940994993601635,0.0
17.352,8261.0,34.993356987016114,0.0
17.36,8273.0,42.37482853716256,0.0
17.368,8268.0,41.74580023659064,0.0
17.376,8232.0,26.66830407909015,0.0
17.384,8192.0,-1.8185946154758312,0.0
17.392,8171.0,-30.852329412805375,0.0
17.4,8168.0,-48.24847478653669,0.0
17.408,8169.0,-51.63008985271131,0.0
17.416,8168.0,-45.80224039192785,0.0
17.424,8173.0,-34.594296262540865,0.0
17.432,8177.0,-20.882325516935907,0.0
17.44,8182.0,-7.76837417253455,0.0
17.448,8184.0,2.5950780213217968,0.0
17.456,8177.0,7.309057983111188,0.0
17.464,8185.0,9.19305932284351,0.0
17.472,8192.0,11.977990670339068,0.0
17.48,8196.0,14.056298777811662,0.0
17.488,8175.0,9.681191945322325,0.0
17.496,8169.0,0.10985575069639708,0.0
17.504,8172.0,-6.180174596880988,0.0
17.512,8171.0,-8.554499109685821,0.0
17.52,8170.0,-9.070309323028141,0.0
17.528,8368.0,32.24706970883062,0.0
17.536,8115.0,40.556517820663885,0.0
17.544,8103.0,-14.817853513860427,0.0
17.552,8184.0,-31.22284705934294,0.0
17.56,8192.0,-18.00820768194194,0.0
17.568,8201.0,-3.9897208827478607,0.0
17.576,8209.0,8.378791890898356,0.0
17.584,8223.0,18.917804339606846,0.0
17.592,8244.0,29.432925344003934,0.0
17.6,8262.0,39.15690382562184,0.0
17.608,8269.0,44.07852046882226,0.0
17.616,8256.0,39.080527509377816,0.0
17.624,8213.0,18.75880729571054,0.0
17.632,8175.0,-12.651847909659864,1.0
17.64,8165.0,-39.11632770206961,0.0
17.648,8163.0,-51.28849032543917,0.0
17.656,8160.0,-51.73265083977549,0.0
17.664,8159.0,-44.96924944071043,0.0
17.672,8167.0,-32.7214102248638,0.0
17.68,8171.0,-18.065496396467097,0.0
17.688,8174.0,-5.228964860714996,0.0
17.696,8174.0,3.768213992941128,0.0
17.704,8183.0,10.356532433604116,0.0
17.712,8188.0,15.542892078136447,0.0
17.72,8187.0,17.07081401974301,0.0
17.728,8166.0,10.891669502203513,0.0
17.736,8161.0,0.27420653361537006,0.0
17.744,8162.0,-6.863719806338622,0.0
17.752,8168.0,-8.614350967731752,0.0
17.76,8162.0,-8.343634064530306,0.0
17.768,8339.0,28.016901829097378,0.0
17.776,8131.0,38.93944424527672,0.0
17.784,8089.0,-11.579867619990864,0.0
17.792,8175.0,-30.712024487901544,0.0
17.8,8190.0,-16.73606184308892,0.0
17.808,8195.0,-1.847299570672476,0.0
17.816,8202.0,9.689572202678846,0.0
17.824,8215.0,19.12942211923155,0.0
17.832,8233.0,28.145213163775225,0.0
17.84,8253.0,36.97342192062911,0.0
17.848,8258.0,41.69632345483501,0.0
17.856,8250.0,37.55488236594965,0.0
17.864,8208.0,19.19683627387394,0.0
17.872,8171.0,-10.710314008053047,0.0
17.88,8158.0,-36.98858457234246,0.0
17.888,8162.0,-48.760311865508584,0.0
17.896,8161.0,-47.71655068712744,0.0
17.904,8156.0,-41.09068468764508,0.0
17.912,8167.0,-29.71652070176583,0.0
17.92,8168.0,-16.032873683861226,0.0
17.928,8170.0,-4.896712029391665,0.0
17.936,8173.0,3.4530990773396297,0.0
17.944,8180.0,9.910641264677452,0.0
17.952,8184.0,14.474359939963506,0.0
17.96,8185.0,16.00035594768019,0.0
17.968,8169.0,11.412472284961723,0.0
17.976,8164.0,2.6786226349154276,0.0
17.984,8163.0,-4.118477403794714,0.0
17.992,8164.0,-7.513861374237649,0.0
18.0,8166.0,-7.769793309839088,0.0
18.008,8284.0,17.7729402577163,0.0
18.016,8215.0,40.195023645046376,0.0
18.024,8082.0,6.0926002611797685,0.0
18.032,8177.0,-22.762658143606586,0.0
18.04,8184.0,-15.537838661809246,0.0
18.048,8187.0,-6.866364346540195,0.0
18.056,8201.0,2.776067162691561,0.0
18.064,8216.0,13.982424616346407,0.0
18.072,8227.0,23.80176675844359,0.0
18.08,8247.0,32.33360628235005,0.0
18.088,8263.0,39.83199542478451,0.0
18.096,8250.0,38.84043221243587,0.0
18.104,8212.0,21.946013348674796,0.0
18.112,8174.0,-6.899455424837015,0.0
18.12,8156.0,-34.35342538371788,0.0
18.128,8153.0,-49.671590489212804,0.0
18.136,8154.0,-51.60853031227998,0.0
18.144,8156.0,-44.31666850232091,0.0
18.152,8162.0,-31.650936819371964,0.0
18.16,8165.0,-17.52308095134481,0.0
18.168,8166.0,-5.693981079565447,0.0
18.176,8170.0,3.186507945053563,0.0
18.184,8168.0,8.363903946107712,0.0
18.192,8175.0,11.179244965839189,0.0
18.2,8183.0,14.213839877314513,0.0
18.208,8190.0,16.918020771569445,0.0
18.216,8163.0,11.866280767959552,0.0
18.224,8162.0,1.3591987499842162,0.0
18.232,8166.0,-4.447840334326656,0.0
18.24,8170.0,-5.573361986256032,0.0
18.248,8157.0,-7.232713592235768,0.0
18.256,8334.0,26.387848540553705,0.0
18.264,8154.0,41.6573817791309,0.0
18.272,8096.0,-4.251588399850334,0.0
18.28,8174.0,-26.67147020722041,0.0
18.288,8193.0,-16.069661690180283,0.0
18.296,8194.0,-3.277402735312762,0.0
18.304,8202.0,6.623518479377935,0.0
18.312,8214.0,15.560719867099351,0.0
18.32,8228.0,23.798798663357502,0.0
18.328,8249.0,32.213134946856144,0.0
18.336,8257.0,38.23019197296867,0.0
18.344,8246.0,35.379618753487875,0.0
18.352,8210.0,18.72768790346595,0.0
18.36,8170.0,-9.486437733578896,1.0
18.368,8155.0,-35.970514524707596,0.0
18.376,8155.0,-49.244111662918385,0.0
18.384,8158.0,-49.015204075108386,0.0
18.392,8162.0,-40.01843924758123,0.0
18.4,8166.0,-26.99609301979376,0.0
18.408,8166.0,-14.384569282699658,0.0
18.416,8167.0,-4.54096362052951,0.0
18.424,8167.0,2.173293048213509,0.0
18.432,8167.0,5.81459649446856,0.0
18.44,8170.0,7.6993983614418084,0.0
18.448,8176.0,9.485454825759916,0.0
18.456,8185.0,12.168131125883065,0.0
18.464,8179.0,12.522731635137234,0.0
18.472,8160.0,5.726327256611057,0.0
18.48,8165.0,-2.0214454311421832,0.0
18.488,8167.0,-4.866884668159855,0.0
18.496,8169.0,-4.994592282908798,0.0
18.504,8168.0,-4.108578387813623,0.0
18.512,8486.0,61.80167905132862,0.0
18.52,8050.0,67.30353535515633,0.0
18.528,8148.0,-8.70036488584401,0.0
18.536,8183.0,-25.15785854515957,0.0
18.544,8193.0,-21.88302776441128,0.0
18.552,8199.0,-13.359759745971814,0.0
18.56,8206.0,-3.6377051063891486,0.0
18.568,8217.0,6.340835848758843,0.0
18.576,8240.0,18.22701098666471,0.0
18.584,8259.0,31.073679980688212,0.0
18.592,8261.0,38.25035949265248,0.0
18.6,8238.0,32.40511262811469,0.0
18.608,8194.0,10.34709047352726,0.0
18.616,8163.0,-19.58929033372715,0.0
18.624,8156.0,-42.08708027718285,0.0
18.632,8155.0,-50.645744610585325,0.0
18.64,8157.0,-47.82453108465165,0.0
18.648,8159.0,-38.08810335132466,0.0
18.656,8162.0,-25.533885879894342,0.0
18.664,8166.0,-12.807998106181458,0.0
18.672,8163.0,-3.135784540669647,0.0
18.68,8165.0,2.855467741567736,0.0
18.688,8161.0,5.55716020144564,0.0
18.696,8158.0,4.882299817780449,0.0
18.704,8165.0,4.56017751619288,0.0
18.712,8169.0,5.925607248005917,0.0
18.72,8189.0,10.737947922021931,0.0
18.728,8173.0,12.773161910163253,0.0
18.736,8162.0,6.524099738149289,0.0
18.744,8162.0,-0.4080249228068169,0.0
18.752,8166.0,-3.628607327382724,0.0
18.76,8165.0,-4.370212278098279,0.0
18.768,8275.0,18.12256939042527,0.0
18.776,8278.0,51.7631611046811,0.0
18.784,8066.0,21.11137309735136,0.0
18.792,8167.0,-22.894168644016872,0.0
18.8,8185.0,-21.136149193461506,0.0
18.808,8191.0,-11.988749907796318,0.0
18.816,8199.0,-1.9011455155628028,0.0
18.824,8210.0,8.234598853556008,0.0
18.832,8222.0,17.67931793950993,0.0
18.84,8245.0,27.735044809920964,0.0
18.848,8255.0,36.21895214210758,0.0
18.856,8249.0,36.56230359486176,0.0
18.864,8212.0,22.437148845955107,0.0
18.872,8173.0,-4.845043633933983,1.0
18.88,8153.0,-32.298870119578396,0.0
18.888,8151.0,-48.13274602846673,0.0
18.896,8153.0,-50.19938170581531,0.0
18.904,8156.0,-42.78926372324736,0.0
18.912,8161.0,-30.285168127961697,0.0
18.92,8163.0,-16.86857187873602,0.0
18.928,8166.0,-5.355040249519334,0.0
18.936,8162.0,2.061629860379071,0.0
18.944,8165.0,5.930968090722899,0.0
18.952,8166.0,8.137286869786976,0.0
18.96,8169.0,9.025594717891408,0.0
18.968,8175.0,10.021259240911832,0.0
18.976,8182.0,11.746663127702277,0.0
18.984,8187.0,13.437741251883608,0.0
18.992,8169.0,9.744611164921707,0.0
19.0,8167.0,1.997085561136828,0.0
19.008,8170.0,-2.683269227678238,0.0
19.016,8171.0,-4.2272047497378935,0.0
19.024,8158.0,-6.951001428001291,0.0
19.032,8426.0,44.58871376592879,0.0
19.04,8102.0,56.86819489385698,0.0
19.048,8110.0,-9.050690277979129,0.0
19.056,8177.0,-31.340256996464177,0.0
19.064,8190.0,-23.42665117865613,0.0
19.072,8197.0,-11.108784423870247,0.0
19.08,8206.0,1.129017697356403,0.0
19.088,8220.0,12.894180246261158,0.0
19.096,8238.0,24.434794437811206,0.0
19.104,8256.0,34.910121067458704,0.0
19.112,8260.0,40.30704368674856,0.0
19.12,8246.0,35.34474299745489,0.0
19.128,8205.0,15.814820985047845,0.0
19.136,8167.0,-14.272621346899314,0.0
19.144,8153.0,-40.526030140778175,0.0
19.152,8151.0,-53.17684149169804,0.0
19.16,8155.0,-52.18767197840066,0.0
19.168,8159.0,-42.05600509693386,0.0
19.176,8165.0,-27.64495898373275,0.0
19.184,8168.0,-13.092280563310624,0.0
19.192,8172.0,-1.0708004991606686,0.0
19.2,8169.0,6.405329811296042,0.0
19.208,8166.0,8.629772401423224,0.0
19.216,8166.0,8.02402625177433,0.0
19.224,8166.0,6.449251886367847,0.0
19.232,8173.0,5.970255983405195,0.0
19.24,8186.0,8.867833805238206,0.0
19.248,8173.0,9.236988276020611,0.0
19.256,8159.0,2.5387469141696783,0.0
19.264,8165.0,-3.441892577122644,0.0
19.272,8168.0,-4.618293952911017,0.0
19.28,8165.0,-4.613827911971839,0.0
19.288,8222.0,7.120568580134204,0.0
19.296,8420.0,65.07741927262123,0.0
19.304,8057.0,55.776864313699434,0.0
19.312,8155.0,-12.319617986285493,0.0
19.32,8186.0,-24.369159518879997,0.0
19.328,8198.0,-19.015650847712095,0.0
19.336,8204.0,-9.289182688761912,0.0
19.344,8215.0,1.3444982987082312,0.0
19.352,8233.0,13.3541217968816,0.0
19.36,8255.0,26.603983817231438,1.0
19.368,8262.0,36.33117631097639,0.0
19.376,8260.0,37.59709087426063,0.0
19.384,8231.0,26.31226235394729,0.0
19.392,8185.0,0.3266219997801727,0.0
19.4,8159.0,-29.800421965793248,0.0
19.408,8156.0,-49.024134285822356,0.0
19.416,8159.0,-52.96036864694224,0.0
19.424,8163.0,-45.82872838562821,0.0
19.432,8169.0,-32.61990368794045,0.0
19.44,8171.0,-18.228257516192116,0.0
19.448,8177.0,-5.319036105713394,0.0
19.456,8174.0,3.734787283914784,0.0
19.464,8173.0,7.705762377503561,0.0
19.472,8171.0,8.273003497220316,0.0
19.48,8168.0,6.3326798584223525,0.0
19.488,8170.0,4.020765818809878,0.0
19.496,8184.0,5.312721298881797,0.0
19.504,8182.0,7.722920274013859,0.0
19.512,8164.0,3.8914056176333816,0.0
19.52,8165.0,-2.437642870347645,0.0
19.528,8163.0,-6.015357104573241,0.0
19.536,8167.0,-6.810610616720169,0.0
19.544,8173.0,-4.205345031399929,0.0
19.552,8531.0,72.33848473044463,0.0
19.56,8063.0,84.16592065796362,0.0
19.568,8138.0,-1.8901242050508245,0.0
19.576,8183.0,-27.980863209450945,0.0
19.584,8192.0,-28.136409597346983,0.0
19.592,8198.0,-20.89807530793246,0.0
19.6,8208.0,-10.18012826696281,0.0
19.608,8222.0,2.605095332789233,0.0
19.616,8245.0,17.330422789445493,0.0
19.624,8263.0,31.78779431340172,0.0
19.632,8265.0,39.60447165999517,0.0
19.64,8238.0,33.11521577476128,0.0
19.648,8193.0,9.5471636068321,0.0
19.656,8161.0,-21.56956975457183,0.0
19.664,8152.0,-45.0780869911498,0.0
19.672,8151.0,-54.189623505918235,0.0
19.68,8160.0,-49.72797803586968,0.0
19.688,8160.0,-37.71131240862155,0.0
19.696,8166.0,-23.66139113598274,0.0
19.704,8171.0,-9.517635607968032,0.0
19.712,8172.0,1.515748939011246,0.0
19.72,8170.0,7.606768115896557,0.0
19.728,8167.0,9.034206861304028,0.0
19.736,8169.0,8.3043985625809,0.0
19.744,8172.0,7.6352504165572554,0.0
19.752,8192.0,10.780842179448882,0.0
19.76,8173.0,11.210937860726517,0.0
19.768,8163.0,3.8408613251942825,0.0
19.776,8164.0,-2.9388171187079024,0.0
19.784,8167.0,-5.685545112807631,0.0
19.792,8166.0,-6.039358123386819,0.0
19.8,8300.0,21.83904505428768,0.0
19.808,8294.0,61.16573523686293,0.0
19.816,8071.0,28.365138782128497,0.0
19.824,8165.0,-21.688376067344734,0.0
19.832,8189.0,-23.894231153693454,0.0
19.84,8197.0,-15.038496359791452,0.0
19.848,8208.0,-3.6395001859282274,0.0
19.856,8217.0,7.739655031833536,0.0
19.864,8238.0,19.42487033931775,0.0
19.872,8260.0,32.17538322847099,0.0
19.88,8270.0,41.37547402955374,0.0
19.888,8261.0,40.74768314921357,0.0
19.896,8217.0,23.370635240088177,0.0
19.904,8172.0,-8.632159765315691,1.0
19.912,8153.0,-39.32507541702648,0.0
19.92,8151.0,-55.80498683775204,0.0
19.928,8148.0,-58.11198870748149,0.0
19.936,8153.0,-50.257280750033715,0.0
19.944,8162.0,-35.132210900963855,0.0
19.952,8170.0,-17.387697659666628,0.0
19.96,8174.0,-1.8058316903677678,0.0
19.968,8173.0,8.295946027847094,0.0
19.976,8171.0,12.399454904914819,0.0
19.984,8168.0,11.924855448061635,0.0
19.992,8173.0,10.244830919681363,0.0
20.0,8183.0,10.762542255792823,0.0
20.008,8200.0,14.95310970123387,0.0
20.016,8174.0,13.325629031876133,0.0
20.024,8163.0,2.78368649805293,0.0
20.032,8165.0,-5.71154808597089,0.0
20.04,8170.0,-8.439571937681876,0.0
20.048,8166.0,-8.569081199859056,0.0
20.056,8345.0,28.40614534335259,0.0
20.064,8217.0,56.38586847775218,0.0
20.072,8082.0,10.653150610837656,0.0
20.08,8173.0,-26.99748298665145,0.0
20.088,8193.0,-22.49347704321417,0.0
20.096,8201.0,-10.699115652288583,0.0
20.104,8205.0,0.34977234131588375,0.0
20.112,8216.0,9.895549234563532,0.0
20.12,8233.0,19.76104696666721,0.0
20.128,8257.0,30.975811888369662,0.0
20.136,8272.0,40.87963881770497,0.0
20.144,8262.0,41.56041409132786,0.0
20.152,8222.0,25.44693291738281,0.0
20.16,8180.0,-4.693276269249509,0.0
20.168,8160.0,-34.47324132030235,0.0
20.176,8162.0,-50.535928105539824,0.0
20.184,8169.0,-50.53482397046491,0.0
20.192,8172.0,-40.82948694350125,0.0
20.2,8174.0,-27.878030354140037,0.0
20.208,8177.0,-14.970417698232723,0.0
20.216,8182.0,-3.432778232667033,0.0
20.224,8178.0,4.115313249384144,0.0
20.232,8176.0,6.729507098689055,0.0
20.24,8176.0,6.846662675096695,0.0
20.248,8183.0,7.30801918400789,0.0
20.256,8198.0,10.96750082909648,0.0
20.264,8189.0,12.694714606501066,0.0
20.272,8175.0,7.09259845201359,0.0
20.28,8178.0,0.4568854839865253,0.0
20.288,8178.0,-2.9238309849711186,0.0
20.296,8180.0,-4.071292193982572,0.0
20.304,8193.0,-1.068130544791984,0.0
20.312,8476.0,61.34291949464318,0.0
20.32,8059.0,61.57609048602421,0.0
20.328,8157.0,-12.793637655199518,1.0
20.336,8199.0,-26.233990392038095,0.0
20.344,8212.0,-18.968664910715233,0.0
20.352,8214.0,-8.731577537608246,0.0
20.36,8221.0,0.48513669431349626,0.0
20.368,8237.0,10.561252806142875,0.0
20.376,8259.0,22.682472001736187,0.0
20.384,8278.0,34.788344359888015,0.0
20.392,8275.0,39.9422268753508,0.0
20.4,8247.0,30.601185893737238,0.0
20.408,8199.0,4.910546028306953,0.0
20.416,8172.0,-26.349914596409462,0.0
20.424,8162.0,-48.40147189967183,0.0
20.432,8165.0,-55.534597859309315,0.0
20.44,8164.0,-50.92481460702561,0.0
20.448,8167.0,-40.06919175867142,0.0
20.456,8175.0,-25.326922809243115,0.0
20.464,8186.0,-8.886793151455322,0.0
20.472,8186.0,4.43052422903088,0.0
20.48,8190.0,12.45184730142546,0.0
20.488,8184.0,14.899195867955541,0.0
20.496,8187.0,13.47475734677846,0.0
20.504,8196.0,13.041024382596106,0.0
20.512,8205.0,14.484757034269023,0.0
20.52,8180.0,9.873704818707665,0.0
20.528,8175.0,-0.47925878331375316,0.0
20.536,8177.0,-7.142225574081067,0.0
20.544,8181.0,-8.774042503679084,0.0
20.552,8176.0,-8.613148762207175,0.0
20.56,8381.0,33.64802340871279,0.0
20.568,8141.0,46.38924459603459,0.0
20.576,8109.0,-8.678599443543817,0.0
20.584,8188.0,-30.327714768315218,0.0
20.592,8199.0,-20.14585216241221,0.0
20.6,8204.0,-7.801153235479205,0.0
20.608,8217.0,4.3596431070284325,0.0
20.616,8233.0,16.815268566449276,0.0
20.624,8245.0,27.35253481598329,0.0
20.632,8266.0,36.179216773143935,0.0
20.64,8275.0,42.04313035676614,0.0
20.648,8258.0,37.50239777147294,0.0
20.656,8213.0,16.46455873911418,0.0
20.664,8182.0,-14.00026867225688,1.0
20.672,8170.0,-38.679446841430035,0.0
20.68,8163.0,-51.29212709335252,0.0
20.688,8165.0,-51.996257630035416,0.0
20.696,8170.0,-43.099327105417615,0.0
20.704,8177.0,-28.85172045816148,0.0
20.712,8179.0,-14.21274058495419,0.0
20.72,8181.0,-2.5832494922049136,0.0
20.728,8184.0,5.707567603494226,0.0
20.736,8185.0,10.562611845042738,0.0
20.744,8192.0,13.466866968667546,0.0
20.752,8198.0,15.79861338849014,0.0
20.76,8194.0,15.19094975747089,0.0
20.768,8177.0,8.238133888393577,0.0
20.776,8176.0,-0.800163127630185,0.0
20.784,8177.0,-6.02408290751373,0.0
20.792,8180.0,-7.382975082106441,0.0
20.8,8190.0,-4.411364790800235,0.0
20.808,8451.0,53.38037899355709,0.0
20.816,8066.0,54.13192324966599,0.0
20.824,8142.0,-16.759607934334326,0.0
20.832,8187.0,-31.423388479997584,0.0
20.84,8197.0,-24.09482218482094,0.0
20.848,8207.0,-12.021644227950446,0.0
20.856,8217.0,1.027052959997718,0.0
20.864,8230.0,13.287236572240772,0.0
20.872,8248.0,24.856712601808795,0.0
20.88,8262.0,34.46793700391595,0.0
20.888,8267.0,38.807968840837475,0.0
20.896,8241.0,31.200593058867298,0.0
20.904,8196.0,7.465866854566684,0.0
20.912,8175.0,-21.186579035693967,0.0
20.92,8164.0,-41.45707921936332,0.0
20.928,8164.0,-49.406946130204915,0.0
20.936,8162.0,-47.026409756882,0.0
20.944,8162.0,-38.89740732480254,0.0
20.952,8169.0,-26.762516842951527,0.0
20.96,8170.0,-13.894042579162033,0.0
20.968,8168.0,-4.381448085888451,0.0
20.976,8177.0,3.3386696311872583,0.0
20.984,8182.0,10.258364337898456,0.0
20.992,8185.0,14.429777856096507,0.0
21.0,8190.0,16.343426883704296,0.0
21.008,8179.0,13.771494393237163,0.0
21.016,8170.0,6.076520170996673,0.0
21.024,8169.0,-1.4385553230586083,0.0
21.032,8175.0,-4.64335249246119,0.0
21.04,8173.0,-5.017473912276728,0.0
21.048,8270.0,14.930557874059787,0.0
21.056,8272.0,44.68992378576149,0.0
21.064,8071.0,14.858179746701126,0.0
21.072,8173.0,-25.262721530803674,0.0
21.08,8188.0,-21.25683318795609,0.0
21.088,8189.0,-12.396157421573434,0.0
21.096,8202.0,-2.416353058039249,0.0
21.104,8212.0,8.550953393704276,0.0
21.112,8224.0,18.23519301774013,0.0
21.12,8243.0,27.53109141918253,0.0
21.128,8256.0,35.39225836456876,0.0
21.136,8251.0,36.309862010951974,0.0
21.144,8213.0,22.562592186452775,0.0
21.152,8172.0,-5.1280409361104375,0.0
21.16,8158.0,-31.963309515914716,0.0
21.168,8150.0,-47.48224624734007,0.0
21.176,8151.0,-50.89135662942272,0.0
21.184,8150.0,-45.19176852940586,0.0
21.192,8153.0,-34.56083434597076,0.0
21.2,8160.0,-20.990878728361395,0.0
21.208,8163.0,-7.740156124073337,0.0
21.216,8166.0,2.495603353880597,0.0
21.224,8166.0,8.783554182132548,0.0
21.232,8172.0,12.39635239099698,0.0
21.24,8173.0,14.083627723287691,0.0
21.248,8184.0,15.397845266209742,0.0
21.256,8178.0,14.862080385583795,0.0
21.264,8170.0,9.431751567637093,0.0
21.272,8169.0,2.9515917733754122,0.0
21.28,8169.0,-1.5325610219304053,0.0
21.288,8167.0,-4.360728900632466,0.0
21.296,8282.0,17.71382839742887,0.0
21.304,8263.0,47.695938854474434,0.0
21.312,8084.0,17.744479030782486,0.0
21.32,8178.0,-20.024607464005385,0.0
21.328,8195.0,-16.647824602122455,0.0
21.336,8202.0,-7.223574289552744,0.0
21.344,8212.0,2.9182049471339724,0.0
21.352,8223.0,12.763919463337743,0.0
21.36,8234.0,21.14611608196924,0.0
21.368,8255.0,29.4349589253286,0.0
21.376,8270.0,37.229109384919184,0.0
21.384,8260.0,37.21568882328097,0.0
21.392,8218.0,20.94177136169219,0.0
21.4,8174.0,-9.42748720976806,1.0
21.408,8157.0,-38.42084860638897,0.0
21.416,8157.0,-53.215534602848265,0.0
21.424,8162.0,-52.8754802152655,0.0
21.432,8166.0,-42.819118277480584,0.0
21.44,8166.0,-29.562715364070982,0.0
21.448,8164.0,-17.649445592320262,0.0
21.456,8161.0,-8.949597334499913,0.0
21.464,8160.0,-3.2648601223693277,0.0
21.472,8158.0,-0.020827048640967405,0.0
21.48,8150.0,-0.142161853549851,0.0
21.488,8156.0,-0.6009672907393906,0.0
21.496,8170.0,3.3048261508756696,0.0
21.504,8167.0,7.36096436756111,0.0
21.512,8155.0,5.579236374394668,0.0
21.52,8160.0,2.249541517773878,0.0
21.528,8163.0,1.5737150168124572,0.0
21.536,8162.0,1.3440402150624777,0.0
21.544,8171.0,2.638845149407416,0.0
21.552,8504.0,72.87539249146835,0.0
21.56,8047.0,78.03109889996585,0.0
21.568,8140.0,-5.115760506164634,0.0
21.576,8182.0,-25.9324551259881,0.0
21.584,8193.0,-23.483804027718406,0.0
21.592,8195.0,-15.819343208122518,0.0
21.6,8202.0,-7.049487142820681,0.0
21.608,8222.0,4.721898991591615,0.0
21.616,8248.0,20.36541964105436,0.0
21.624,8267.0,35.72287105649957,0.0
21.632,8266.0,43.06664843662543,0.0
21.64,8233.0,33.934106007099444,0.0
21.648,8186.0,7.044258515227057,0.0
21.656,8159.0,-25.044606696684923,0.0
21.664,8152.0,-47.171078718969284,0.0
21.672,8151.0,-54.73935207333784,0.0
21.68,8152.0,-50.91608456932909,0.0
21.688,8155.0,-40.118327766013635,0.0
21.696,8158.0,-26.424335223035996,0.0
21.704,8162.0,-12.889383720229262,0.0
21.712,8161.0,-2.3177505308312902,0.0
21.72,8163.0,4.489995071256089,0.0
21.728,8161.0,7.83534834674424,0.0
21.736,8173.0,10.668861708038776,0.0
21.744,8181.0,14.813087960033727,0.0
21.752,8187.0,17.878349092884946,0.0
21.76,8160.0,12.690253414083827,0.0
21.768,8155.0,1.1604035985046721,0.0
21.776,8157.0,-6.447163929537965,0.0
21.784,8164.0,-8.130093254443864,0.0
21.792,8151.0,-9.118561727815404,0.0
21.8,8384.0,36.62552258130472,0.0
21.808,8143.0,56.49123050194157,0.0
21.816,8089.0,-0.5937030897355271,1.0
21.824,8168.0,-29.156105701933257,0.0
21.832,8183.0,-22.423176266882137,0.0
21.84,8187.0,-11.159999043808057,0.0
21.848,8192.0,-0.9682796020831574,0.0
21.856,8210.0,9.9048080493219,0.0
21.864,8230.0,22.596879672993964,0.0
21.872,8251.0,35.053330023328044,0.0
21.88,8259.0,43.0302795469795,0.0
21.888,8248.0,40.61103358554442,0.0
21.896,8200.0,20.969434835843458,0.0
21.904,8156.0,-12.621463952452814,0.0
21.912,8143.0,-42.2186501907056,0.0
21.92,8145.0,-55.56884070981141,0.0
21.928,8147.0,-54.22202591962014,0.0
21.936,8148.0,-44.59192026258506,0.0
21.944,8155.0,-30.501623607523243,0.0
21.952,8162.0,-14.684027690828088,0.0
21.96,8166.0,-0.8559465548505614,0.0
21.968,8161.0,7.247428608540758,0.0
21.976,8158.0,9.30654900466493,0.0
21.984,8163.0,9.521928382169335,0.0
21.992,8162.0,9.022869953600775,0.0
22.0,8169.0,8.585558981337044,0.0
22.008,8182.0,11.111278398321701,0.0
22.016,8176.0,12.350489510877651,0.0
22.024,8160.0,6.716258796767988,0.0
22.032,8164.0,-0.08568995932614598,0.0
22.04,8165.0,-3.0738555092098068,0.0
22.048,8168.0,-3.5578156145552384,0.0
22.056,8170.0,-2.283117859755066,0.0
22.064,8528.0,72.365180655318,0.0
22.072,8059.0,82.8632542868545,0.0
22.08,8145.0,-1.738465405567922,0.0
22.088,8182.0,-26.37920969288234,0.0
22.096,8190.0,-27.758768592442266,0.0
22.104,8198.0,-21.097267294036556,0.0
22.112,8212.0,-9.464453530930086,0.0
22.12,8227.0,4.7748201241163315,0.0
22.128,8247.0,19.62251284907461,0.0
22.136,8267.0,33.6004422590122,1.0
22.144,8268.0,41.063060329990094,0.0
22.152,8244.0,34.55187676267815,0.0
22.16,8196.0,10.7530418363624,0.0
22.168,8158.0,-22.52170885973146,0.0
22.176,8151.0,-47.97932176064819,0.0
22.184,8155.0,-56.37358303222595,0.0
22.192,8154.0,-52.178132244863036,0.0
22.2,8155.0,-41.78612883439905,0.0
22.208,8159.0,-28.283540675518452,0.0
22.216,8165.0,-13.967005445340874,0.0
22.224,8164.0,-2.361163106289723,0.0
22.232,8162.0,4.247590643562717,0.0
22.24,8163.0,7.307711013849257,0.0
22.248,8164.0,8.418127558459673,0.0
22.256,8163.0,7.798538571314111,0.0
22.264,8173.0,8.08847158723097,0.0
22.272,8180.0,10.506743743293555,0.0
22.28,8186.0,12.999870257989642,0.0
22.288,8166.0,9.643155853692633,0.0
22.296,8163.0,1.4970652798274386,0.0
22.304,8166.0,-3.5474920228971314,0.0
22.312,8169.0,-4.767188286073406,0.0
22.32,8157.0,-6.604460050484477,0.0
22.328,8364.0,33.148955294733696,0.0
22.336,8175.0,55.31070153435439,0.0
22.344,8094.0,4.870143952607805,0.0
22.352,8179.0,-24.881486655528988,0.0
22.36,8190.0,-19.09134575089456,0.0
22.368,8198.0,-8.890876943818967,0.0
22.376,8205.0,1.5541377445904345,0.0
22.384,8219.0,11.785993895663296,0.0
22.392,8241.0,23.405030639743472,0.0
22.4,8262.0,35.512966354346645,0.0
22.408,8272.0,43.62272025250195,0.0
22.416,8259.0,41.19219357539282,0.0
22.424,8215.0,21.864414363473088,0.0
22.432,8172.0,-10.655077406295732,0.0
22.44,8152.0,-41.14256765650089,0.0
22.448,8152.0,-57.02113673291751,0.0
22.456,8152.0,-57.76661893119649,0.0
22.464,8153.0,-49.245093773322424,0.0
22.472,8164.0,-34.2877304728263,0.0
22.48,8170.0,-16.77043180858118,0.0
22.488,8173.0,-2.029427427370365,0.0
22.496,8170.0,6.996063413929278,0.0
22.504,8165.0,9.638631432253078,0.0
22.512,8168.0,9.331509858705203,0.0
22.52,8171.0,8.960916573437089,0.0
22.528,8177.0,9.221875011731981,0.0
22.536,8189.0,11.655475137406938,0.0
22.544,8193.0,14.596407822596348,0.0
22.552,8174.0,11.058170485494884,0.0
22.56,8178.0,4.224601222563479,0.0
22.568,8176.0,-0.04865813541027819,0.0
22.576,8172.0,-3.7942844729568606,0.0
22.584,8158.0,-9.111598239514706,0.0
22.592,8470.0,50.006822648152365,0.0
22.6,8080.0,61.45227043545151,0.0
22.608,8128.0,-10.966682070964453,0.0
22.616,8189.0,-29.863662897724453,0.0
22.624,8200.0,-21.80196306527705,0.0
22.632,8209.0,-9.642835649330209,0.0
22.64,8220.0,3.096036448300538,0.0
22.648,8233.0,15.063608519192712,0.0
22.656,8255.0,27.007918908291913,0.0
22.664,8276.0,38.76198053221083,0.0
22.672,8281.0,45.14836085601928,0.0
22.68,8256.0,37.99421475174222,0.0
22.688,8209.0,13.293233770371899,0.0
22.696,8178.0,-19.26576110128076,1.0
22.704,8168.0,-43.97651400208656,0.0
22.712,8166.0,-54.37466382280172,0.0
22.72,8166.0,-52.688873287623665,0.0
22.728,8166.0,-43.70364444227448,0.0
22.736,8173.0,-30.33370079389738,0.0
22.744,8181.0,-14.76327871409876,0.0
22.752,8189.0,-0.04785626570446766,0.0
22.76,8188.0,10.092181655275454,0.0
22.768,8181.0,12.924482908746313,0.0
22.776,8184.0,11.82279374077757,0.0
22.784,8193.0,11.830391393573336,0.0
22.792,8202.0,13.71867249535785,0.0
22.8,8197.0,13.57268944487123,0.0
22.808,8180.0,6.933957250174217,0.0
22.816,8179.0,-1.7208626264530267,0.0
22.824,8176.0,-7.395609044026969,0.0
22.832,8181.0,-9.221781446451587,0.0
22.84,8182.0,-7.677840932494746,0.0
22.848,8462.0,51.8078258810383,0.0
22.856,8081.0,58.49848999634992,0.0
22.864,8131.0,-14.03729668820506,0.0
22.872,8193.0,-31.92492916251581,0.0
22.88,8204.0,-22.74948925830131,0.0
22.888,8212.0,-9.992342469362711,0.0
22.896,8218.0,1.927381713069508,0.0
22.904,8235.0,13.383392085105015,0.0
22.912,8253.0,25.27990637265657,0.0
22.92,8271.0,35.83758278776463,0.0
22.928,8274.0,40.938291966047245,0.0
22.936,8260.0,35.50080562171661,0.0
22.944,8213.0,14.440393714591437,0.0
22.952,8181.0,-16.343798420710982,0.0
22.96,8169.0,-41.060842413759474,0.0
22.968,8171.0,-51.49616135529277,0.0
22.976,8170.0,-49.65586505438637,0.0
22.984,8172.0,-40.834800777789724,0.0
22.992,8177.0,-27.99689434658262,0.0
23.0,8177.0,-15.13841388274659,0.0
23.008,8178.0,-5.034466680163632,0.0
23.016,8180.0,2.317178083871113,0.0
23.024,8178.0,6.3136171291344,0.0
23.032,8186.0,8.945690658393914,0.0
23.04,8190.0,11.59763220194236,0.0
23.048,8197.0,13.654957191967014,0.0
23.056,8178.0,10.349793221551408,0.0
23.064,8173.0,1.9227540992553713,0.0
23.072,8179.0,-3.1481943371702528,0.0
23.08,8178.0,-4.648337339864156,0.0
23.088,8173.0,-6.056581577079896,0.0
23.096,8361.0,31.415885205387212,0.0
23.104,8157.0,45.545208080949806,0.0
23.112,8099.0,-6.530740767377438,0.0
23.12,8182.0,-31.230713070584898,0.0
23.128,8194.0,-21.694712929443767,0.0
23.136,8202.0,-8.679947127984178,0.0
23.144,8209.0,3.397458713467813,0.0
23.152,8222.0,14.110938260520015,0.0
23.16,8240.0,24.640813157348475,0.0
23.168,8257.0,34.28285454048455,0.0
23.176,8265.0,39.894977121055035,0.0
23.184,8254.0,36.552525259361346,0.0
23.192,8216.0,19.023270071985962,0.0
23.2,8177.0,-9.958818301756082,1.0
23.208,8158.0,-37.438350992337746,0.0
23.216,8158.0,-51.8953210715174,0.0
23.224,8163.0,-51.55570200166744,0.0
23.232,8156.0,-43.94700053252109,0.0
23.24,8162.0,-32.988643843760656,0.0
23.248,8169.0,-18.85051126083158,0.0
23.256,8171.0,-5.792575532095498,0.0
23.264,8172.0,3.420991426628234,0.0
23.272,8173.0,8.75981870527312,0.0
23.28,8184.0,13.040710335879794,0.0
23.288,8185.0,16.046906867765983,0.0
23.296,8187.0,16.004768523239363,0.0
23.304,8165.0,9.467319669791323,0.0
23.312,8166.0,-0.12459152398400875,0.0
23.32,8167.0,-5.36974079650372,0.0
23.328,8170.0,-6.840394045580297,0.0
23.336,8163.0,-7.49025477205646,0.0
23.344,8396.0,39.43301599198162,0.0
23.352,8089.0,46.08658929500393,0.0
23.36,8115.0,-14.374300969932847,0.0
23.368,8180.0,-29.360083091737124,0.0
23.376,8193.0,-17.835850489959512,0.0
23.384,8203.0,-3.61739390997991,0.0
23.392,8213.0,9.42583397143062,0.0
23.4,8222.0,19.592225411493928,0.0
23.408,8240.0,28.150322176271402,0.0
23.416,8260.0,36.70707670402817,0.0
23.424,8263.0,40.90122008469962,0.0
23.432,8244.0,33.91170863551406,0.0
23.44,8198.0,11.357154202816218,0.0
23.448,8166.0,-19.638915031649276,0.0
23.456,8155.0,-43.77738339550751,0.0
23.464,8149.0,-54.888779756431404,0.0
23.472,8154.0,-53.342555181082616,0.0
23.48,8157.0,-42.70635292912175,0.0
23.488,8161.0,-28.511227494766672,0.0
23.496,8163.0,-14.567810149498882,0.0
23.504,8164.0,-3.5001416763300313,0.0
23.512,8168.0,4.5974261259948435,0.0
23.52,8168.0,9.506493605545302,0.0
23.528,8175.0,12.398517149731106,0.0
23.536,8186.0,15.90650839792761,0.0
23.544,8185.0,17.61252245668652,0.0
23.552,8167.0,12.069474403448112,0.0
23.56,8166.0,3.0797344800648716,0.0
23.568,8166.0,-2.9080078131717073,0.0
23.576,8165.0,-6.212561249231385,0.0
23.584,8157.0,-9.063678506955057,0.0
23.592,8420.0,42.721046288276966,0.0
23.6,8071.0,49.299561396057015,0.0
23.608,8122.0,-15.165956669654634,1.0
23.616,8178.0,-29.1312315336379,0.0
23.624,8192.0,-18.672575813846834,0.0
23.632,8194.0,-6.387547979900091,0.0
23.64,8202.0,3.8892331399913473,0.0
23.648,8214.0,13.46326738751668,0.0
23.656,8236.0,24.03037323470835,0.0
23.664,8255.0,35.01278778389451,0.0
23.672,8258.0,40.6940358767788,0.0
23.68,8240.0,34.81970809846871,0.0
23.688,8195.0,13.195609662704555,0.0
23.696,8161.0,-17.733221801301397,0.0
23.704,8149.0,-42.733753918975935,0.0
23.712,8149.0,-53.491695788300376,0.0
23.72,8147.0,-52.152554053635185,0.0
23.728,8152.0,-42.8407425908249,0.0
23.736,8160.0,-28.182679681001446,0.0
23.744,8160.0,-13.606691953911877,0.0
23.752,8164.0,-2.1063384384717665,0.0
23.76,8164.0,5.831500737650458,0.0
23.768,8162.0,9.233199747699928,0.0
23.776,8162.0,9.436495220034885,0.0
23.784,8172.0,10.169048011459608,0.0
23.792,8177.0,12.12504318051515,0.0
23.8,8184.0,13.89512572667013,0.0
23.808,8164.0,10.179373839514255,0.0
23.816,8162.0,1.9439529386115737,0.0
23.824,8164.0,-3.2211876161504733,0.0
23.832,8165.0,-5.174570688276617,0.0
23.84,8162.0,-5.953873871141468,0.0
23.848,8288.0,19.616926455452358,0.0
23.856,8262.0,52.1953804441041,0.0
23.864,8070.0,19.01120896464522,0.0
23.872,8169.0,-22.496155678099967,0.0
23.88,8186.0,-19.933964346383846,0.0
23.888,8189.0,-11.310447845931321,0.0
23.896,8198.0,-2.04410711669766,0.0
23.904,8214.0,8.853422888035766,0.0
23.912,8228.0,20.084945485214575,0.0
23.92,8251.0,31.241265124353276,0.0
23.928,8264.0,40.45737929318739,0.0
23.936,8258.0,41.20406355065961,0.0
23.944,8219.0,26.20509191074575,0.0
23.952,8179.0,-2.7780415542431456,1.0
23.96,8156.0,-32.36838694458629,0.0
23.968,8150.0,-50.885362810338165,0.0
23.976,8153.0,-54.73435265715034,0.0
23.984,8158.0,-47.07785839448752,0.0
23.992,8162.0,-33.57355387656298,0.0
24.0,8169.0,-18.249674328375704,0.0
24.008,8169.0,-4.9901854187316985,0.0
24.016,8164.0,2.5865213523229613,0.0
24.024,8165.0,5.8580227816166826,0.0
24.032,8166.0,7.313239583402037,0.0
24.04,8166.0,7.269379782745091,0.0
24.048,8171.0,7.162821511461061,0.0
24.056,8175.0,7.852542256898005,0.0
24.064,8191.0,11.155920361273047,0.0
24.072,8179.0,12.235366818089005,0.0
24.08,8167.0,6.115503860436547,0.0
24.088,8168.0,-0.6782646402330101,0.0
24.096,8172.0,-3.571751084480411,0.0
24.104,8172.0,-3.9242312767332805,0.0
24.112,8226.0,7.4945168119882055,0.0
24.12,8434.0,66.63810436335712,0.0
24.128,8061.0,57.8027653450647,0.0
24.136,8165.0,-11.142942820809367,0.0
24.144,8193.0,-23.260210501494157,0.0
24.152,8202.0,-19.340689668939604,0.0
24.16,8207.0,-11.230203128988478,0.0
24.168,8218.0,-1.4622302216673688,0.0
24.176,8231.0,9.439443996441696,0.0
24.184,8253.0,21.60607387896198,0.0
24.192,8269.0,33.289094230245155,0.0
24.2,8263.0,37.19440183616916,0.0
24.208,8231.0,26.101452651169666,0.0
24.216,8188.0,0.2612506588022825,0.0
24.224,8160.0,-29.565569408171086,0.0
24.232,8155.0,-49.46453952652951,0.0
24.24,8156.0,-54.55055290075006,0.0
24.248,8156.0,-49.08360429548634,0.0
24.256,8163.0,-36.97870036490508,0.0
24.264,8170.0,-21.353261143935924,0.0
24.272,8173.0,-6.831987473720574,0.0
24.28,8169.0,2.587378952953486,0.0
24.288,8167.0,6.539894593792042,0.0
24.296,8169.0,7.885880613783456,0.0
24.304,8169.0,7.894903593793742,0.0
24.312,8170.0,6.9075800215048275,0.0
24.32,8180.0,7.5237168911712615,0.0
24.328,8181.0,8.994724000748647,0.0
24.336,8194.0,11.361180392967526,0.0
24.344,8176.0,10.016705631535615,0.0
24.352,8175.0,3.821219006777028,0.0
24.36,8172.0,-1.2393267715024194,0.0
24.368,8174.0,-4.248529459340034,0.0
24.376,8173.0,-5.179738930219855,0.0
24.384,8317.0,24.269872759556392,0.0
24.392,8243.0,52.307783084153016,0.0
24.4,8085.0,13.561088460137853,0.0
24.408,8178.0,-24.689217520684224,0.0
24.416,8195.0,-21.094117950617374,0.0
24.424,8202.0,-10.866644943414258,0.0
24.432,8208.0,-0.5147119145083252,0.0
24.44,8221.0,9.567156275916659,0.0
24.448,8240.0,20.616689063279864,0.0
24.456,8262.0,32.401964923268,0.0
24.464,8274.0,41.40546532581129,0.0
24.472,8267.0,41.47406747056107,0.0
24.48,8228.0,25.828842581528534,0.0
24.488,8184.0,-4.296643447419228,1.0
24.496,8162.0,-34.945238761924884,0.0
24.504,8162.0,-52.267274966786545,0.0
24.512,8166.0,-53.76995950374567,0.0
24.52,8165.0,-45.893581655701155,0.0
24.528,8170.0,-33.46029280156063,0.0
24.536,8176.0,-18.78698186710244,0.0
24.544,8184.0,-4.400670228022818,0.0
24.552,8177.0,4.978865132103692,0.0
24.56,8173.0,7.52374309175093,0.0
24.568,8172.0,6.8665873410982385,0.0
24.576,8172.0,5.232589998768162,0.0
24.584,8177.0,4.494428379281999,0.0
24.592,8182.0,5.419480665296078,0.0
24.6,8197.0,9.230914310661774,0.0
24.608,8184.0,10.494075967265644,0.0
24.616,8172.0,4.542561297856992,0.0
24.624,8179.0,-0.68736469821215,0.0
24.632,8177.0,-2.654617587188568,0.0
24.64,8176.0,-4.028478815493827,0.0
24.648,8203.0,1.081608289307269,0.0
24.656,8479.0,65.84287055818231,0.0
24.664,8063.0,65.55790254541262,0.0
24.672,8161.0,-9.51764103177129,0.0
24.68,8189.0,-26.73230315027854,0.0
24.688,8198.0,-25.30096275638084,0.0
24.696,8204.0,-17.554033449563804,0.0
24.704,8217.0,-6.429397897904437,0.0
24.712,8231.0,6.640588093913948,0.0
24.72,8250.0,20.10529192716581,0.0
24.728,8269.0,32.78352733123597,0.0
24.736,8266.0,38.57985833380212,0.0
24.744,8241.0,30.43821395279906,0.0
24.752,8194.0,6.298807026726081,0.0
24.76,8163.0,-24.86763622157855,0.0
24.768,8150.0,-48.51842847118564,0.0
24.776,8155.0,-56.78390816915703,0.0
24.784,8154.0,-52.24578521315243,0.0
24.792,8159.0,-40.82366576134973,0.0
24.8,8162.0,-26.244886963250565,0.0
24.808,8168.0,-11.805279153519677,0.0
24.816,8168.0,-0.250094291233836,0.0
24.824,8166.0,6.212938584369567,0.0
24.832,8167.0,8.888909924105292,0.0
24.84,8169.0,9.73671377122514,0.0
24.848,8173.0,9.98770777977802,0.0
24.856,8181.0,11.07350072520785,0.0
24.864,8187.0,12.896975007603714,0.0
24.872,8163.0,8.342626214392112,0.0
24.88,8161.0,-0.9274701914746402,0.0
24.888,8161.0,-6.677776143422989,0.0
24.896,8164.0,-8.453165446260982,0.0
24.904,8152.0,-10.060235513399903,0.0
24.912,8432.0,45.26721726032042,0.0
24.92,8086.0,57.64088276702091,0.0
24.928,8108.0,-9.973857114855036,0.0
24.936,8175.0,-30.266174983822566,0.0
24.944,8186.0,-21.74284464868947,0.0
24.952,8192.0,-9.932575237156698,0.0
24.96,8202.0,1.8267074560374112,0.0
24.968,8219.0,14.020299698714325,0.0
24.976,8236.0,26.05215515234113,0.0
24.984,8254.0,36.3684892554254,1.0
24.992,8266.0,43.084684719919096,0.0
25.0,8247.0,39.09437912278963,0.0
25.008,8203.0,17.936397715729527,0.0
25.016,8162.0,-14.661337278340397,0.0
25.024,8145.0,-43.566200036526425,0.0
25.032,8149.0,-56.711248777092806,0.0
25.04,8150.0,-54.86561010558853,0.0
25.048,8151.0,-45.047226692685854,0.0
25.056,8157.0,-30.980853878499147,0.0
25.064,8161.0,-15.921952813396956,0.0
25.072,8165.0,-2.9677809743716352,0.0
25.08,8165.0,5.960448818008672,0.0
25.088,8163.0,9.928313154737225,0.0
25.096,8166.0,10.973952943531685,0.0
25.104,8171.0,11.562968388199806,0.0
25.112,8178.0,12.609838551904886,0.0
25.12,8193.0,15.811773611110766,0.0
25.128,8165.0,12.652230497239543,0.0
25.136,8165.0,3.145031344484323,0.0
25.144,8173.0,-1.319927840592527,0.0
25.152,8174.0,-1.9216732826455427,0.0
25.16,8161.0,-4.437806084575186,0.0
25.168,8387.0,38.26305648435891,0.0
25.176,8145.0,54.44633202221621,0.0
25.184,8098.0,-3.280550317547295,0.0
25.192,8183.0,-29.15933189128077,0.0
25.2,8201.0,-19.000116851213306,0.0
25.208,8204.0,-5.821014532709569,0.0
25.216,8212.0,5.10292843002162,0.0
25.224,8226.0,15.284284241304704,0.0
25.232,8248.0,26.343073059316794,0.0
25.24,8273.0,38.49144046136098,0.0
25.248,8281.0,46.58213541045484,0.0
25.256,8270.0,43.69165503297222,0.0
25.264,8225.0,23.91721292594002,0.0
25.272,8186.0,-8.564760562949004,0.0
25.28,8168.0,-38.1211743243407,0.0
25.288,8164.0,-54.31578684093347,0.0
25.296,8163.0,-56.679843706350766,0.0
25.304,8166.0,-49.07600806574624,0.0
25.312,8171.0,-35.50420351912794,0.0
25.32,8176.0,-20.05199611537023,0.0
25.328,8181.0,-5.8304585940395555,0.0
25.336,8182.0,4.689906538753348,0.0
25.344,8177.0,9.38338464875119,0.0
25.352,8184.0,11.14506964466591,0.0
25.36,8189.0,12.948813029890289,0.0
25.368,8202.0,15.729765835382068,0.0
25.376,8185.0,14.172395276175394,0.0
25.384,8177.0,5.995145880098107,0.0
25.392,8179.0,-0.975605756485038,0.0
25.4,8179.0,-4.5415817855564455,0.0
25.408,8178.0,-6.1662375494559,0.0
25.416,8236.0,5.452965090806629,0.0
25.424,8384.0,53.583778311002106,0.0
25.432,8064.0,38.784586854725376,0.0
25.44,8161.0,-21.40691555347894,0.0
25.448,8193.0,-27.403723437380222,0.0
25.456,8202.0,-18.419164005081257,0.0
25.464,8206.0,-7.6572369796103885,0.0
25.472,8221.0,3.7499920909301636,0.0
25.48,8236.0,16.056690222380666,0.0
25.488,8254.0,27.64239464799516,1.0
25.496,8272.0,37.65807751504963,0.0
25.504,8268.0,40.732138343627184,0.0
25.512,8238.0,29.428431869995848,0.0
25.52,8196.0,3.5720815180072805,0.0
25.528,8172.0,-25.74474557827716,0.0
25.536,8165.0,-45.51278703754315,0.0
25.544,8167.0,-51.324802564655556,0.0
25.552,8167.0,-46.571971437429966,0.0
25.56,8169.0,-36.2916927148367,0.0
25.568,8176.0,-22.870996424120676,0.0
25.576,8179.0,-9.423497505094929,0.0
25.584,8181.0,0.9795487593250982,0.0
25.592,8181.0,7.391983664246027,0.0
25.6,8182.0,10.267875945201695,0.0
25.608,8185.0,11.229146006284509,0.0
25.616,8204.0,14.589786592802056,0.0
25.624,8184.0,14.160979213409064,0.0
25.632,8173.0,5.427086085386691,0.0
25.64,8177.0,-1.9910399909297212,0.0
25.648,8176.0,-5.463339886226322,0.0
25.656,8176.0,-6.892846331038754,0.0
25.664,8255.0,9.446547897208575,0.0
25.672,8330.0,49.1397574856212,0.0
25.68,8067.0,26.755533974944683,0.0
25.688,8168.0,-23.63564720206523,0.0
25.696,8195.0,-23.702960066256082,0.0
25.704,8204.0,-12.79429058508913,0.0
25.712,8211.0,-1.1343427794115541,0.0
25.72,8219.0,8.99782324931607,0.0
25.728,8232.0,17.91611063496657,0.0
25.736,8252.0,27.216004449486036,0.0
25.744,8265.0,35.33160600360543,0.0
25.752,8257.0,35.79597499906208,0.0
25.76,8229.0,23.28868005596314,0.0
25.768,8188.0,-1.735709214335884,0.0
25.776,8166.0,-29.142889700197884,0.0
25.784,8160.0,-46.65346807062133,0.0
25.792,8162.0,-50.7531821157354,0.0
25.8,8159.0,-45.687265595020335,0.0
25.808,8159.0,-36.37746465668147,0.0
25.816,8165.0,-24.130605761753486,0.0
25.824,8171.0,-10.777739051458639,0.0
25.832,8170.0,-0.22533911609070856,0.0
25.84,8174.0,6.662399351677777,0.0
25.848,8179.0,11.564405563931132,0.0
25.856,8189.0,15.774655937283569,0.0
25.864,8177.0,15.464365382661981,0.0
25.872,8167.0,8.441661600384123,0.0
25.88,8168.0,1.1698832029419464,0.0
25.888,8167.0,-3.3080026552972868,0.0
25.896,8169.0,-5.250383896855055,0.0
25.904,8213.0,3.7947531284326033,0.0
25.912,8374.0,50.4503718693918,0.0
25.92,8050.0,37.09252165042699,1.0
25.928,8154.0,-21.377134396110478,0.0
25.936,8185.0,-25.134355409535146,0.0
25.944,8189.0,-16.39517591946469,0.0
25.952,8202.0,-5.268023373959295,0.0
25.96,8211.0,6.605868956287168,0.0
25.968,8224.0,17.121159733733748,0.0
25.976,8238.0,26.260237715346648,0.0
25.984,8258.0,34.629939393568065,0.0
25.992,8259.0,38.619776912496945,0.0
26.0,8226.0,28.5865198385477,0.0
26.008,8183.0,2.791951671318884,0.0
26.016,8161.0,-26.165759825453733,0.0
26.024,8157.0,-44.636086060403386,0.0
26.032,8159.0,-49.20065068661802,0.0
26.04,8161.0,-43.62352400162672,0.0
26.048,8161.0,-33.3027776782892,0.0
26.056,8168.0,-20.719905362923555,0.0
26.064,8166.0,-9.115529078404734,0.0
26.072,8170.0,-0.462096622943136,0.0
26.08,8176.0,6.7685966105489115,0.0
26.088,8176.0,11.244422475013835,0.0
26.096,8188.0,14.638241233575627,0.0
26.104,8181.0,15.447514020759627,0.0
26.112,8168.0,9.498074667082165,0.0
26.12,8165.0,1.270752622974669,0.0
26.128,8166.0,-4.196134815879304,0.0
26.136,8172.0,-5.362953697355579,0.0
26.144,8182.0,-1.9711081894456584,0.0
26.152,8459.0,58.968003493750075,0.0
26.16,8049.0,58.89503869017926,0.0
26.168,8155.0,-12.184746193009687,0.0
26.176,8189.0,-23.771747043549794,0.0
26.184,8195.0,-18.848169831262112,0.0
26.192,8200.0,-10.831460297361446,0.0
26.2,8212.0,-0.9751002523421448,0.0
26.208,8219.0,8.883487198610283,0.0
26.216,8241.0,19.29172195363776,0.0
26.224,8261.0,31.102916691880864,1.0
26.232,8261.0,37.458484981248375,0.0
26.24,8232.0,29.613285221746537,0.0
26.248,8188.0,5.5699632644609665,0.0
26.256,8163.0,-23.590446755760013,0.0
26.264,8155.0,-44.00120219241103,0.0
26.272,8157.0,-50.62679263494192,0.0
26.28,8155.0,-46.86953656432047,0.0
26.288,8158.0,-37.33722572765919,0.0
26.296,8166.0,-23.79175961731903,0.0
26.304,8167.0,-10.335174288672079,0.0
26.312,8171.0,0.2114666247596233,0.0
26.32,8171.0,7.233875134612617,0.0
26.328,8172.0,10.494475919244223,0.0
26.336,8179.0,12.466110021639906,0.0
26.344,8181.0,13.580829175401732,0.0
26.352,8189.0,14.224066484285913,0.0
26.36,8167.0,9.587728055727894,0.0
26.368,8162.0,-0.12392984528560191,0.0
26.376,8166.0,-6.05289991425343,0.0
26.384,8170.0,-7.007185371900732,0.0
26.392,8163.0,-7.122078679722563,0.0
26.4,8389.0,38.631645322304166,0.0
26.408,8110.0,49.005365161172904,0.0
26.416,8112.0,-8.880754151298788,0.0
26.424,8182.0,-27.058423178919384,0.0
26.432,8193.0,-17.157923568555816,0.0
26.44,8197.0,-5.63692832038987,0.0
26.448,8210.0,5.504308157657533,0.0
26.456,8219.0,15.75331709128477,0.0
26.464,8236.0,24.73799669504251,0.0
26.472,8262.0,35.08588455225072,0.0
