Time_Seconds,ECG_Raw,ECG_Filtered,R_Peak_Marker
0.0,8169.0,104.16362126177796,0.0
0.008,8167.0,253.7284002893066,0.0
0.016,8168.0,303.5082428494063,0.0
0.024,8169.0,287.3411292539836,0.0
0.032,8166.0,233.80701646030798,0.0
0.04,8174.0,167.72063110206045,0.0
0.048,8175.0,105.04753180911348,0.0
0.056,8184.0,54.09932670531839,0.0
0.064,8191.0,19.035358900566507,0.0
0.072,8169.0,-7.6519113098418075,0.0
0.08,8166.0,-27.382119449443962,0.0
0.088,8167.0,-35.30768115195997,0.0
0.096,8166.0,-34.64178406088263,0.0
0.104,8292.0,-3.4582672245296635,0.0
0.112,8338.0,50.64766913377139,0.0
0.12,8148.0,45.547727538737036,0.0
0.128,8159.0,-0.9437901787428018,0.0
0.136,8163.0,-25.231195015317326,0.0
0.144,8170.0,-33.522070148112334,0.0
0.152,8177.0,-30.482726981835185,0.0
0.16,8185.0,-20.99921086699942,0.0
0.168,8195.0,-8.529532002777614,0.0
0.176,8206.0,4.428510560022005,0.0
0.184,8227.0,17.958087473935166,0.0
0.192,8251.0,32.43033602063815,0.0
0.2,8267.0,44.24441119292305,0.0
0.208,8266.0,47.5877731631133,0.0
0.216,8241.0,37.03834237613637,0.0
0.224,8196.0,10.882918814240611,0.0
0.232,8164.0,-21.966497980005215,0.0
0.24,8152.0,-47.05244481105706,0.0
0.248,8149.0,-57.8190387591726,0.0
0.256,8150.0,-55.82893757758529,0.0
0.264,8156.0,-44.757563337515876,0.0
0.272,8156.0,-30.19839102180117,0.0
0.28,8158.0,-16.60108634318067,0.0
0.288,8157.0,-5.838441308385427,0.0
0.296,8155.0,0.7988433652185449,0.0
0.304,8156.0,4.398707671364264,0.0
0.312,8154.0,5.656464659979065,0.0
0.32,8154.0,5.134111612531797,0.0
0.328,8162.0,5.681207555023093,0.0
0.336,8166.0,7.595030961757402,0.0
0.344,8174.0,10.026976519435948,0.0
0.352,8177.0,12.192326186760965,0.0
0.36,8156.0,7.946995011122908,0.0
0.368,8151.0,-1.0803665249195546,0.0
0.376,8152.0,-7.072540234769576,0.0
0.384,8147.0,-10.36122460515412,0.0
0.392,8297.0,18.88835635203054,0.0
0.4,8299.0,64.37653783172345,0.0
0.408,8132.0,47.80829435548435,0.0
0.416,8146.0,-0.4964653680403899,0.0
0.424,8145.0,-26.332639907567,0.0
0.432,8154.0,-35.985365315746776,0.0
0.44,8160.0,-33.17365271003564,0.0
0.448,8167.0,-23.825382479386008,0.0
0.456,8177.0,-11.211507657330912,0.0
0.464,8189.0,2.44273214736495,0.0
0.472,8206.0,16.07220393592206,0.0
0.48,8231.0,30.2765498782378,1.0
0.488,8247.0,42.46302811759506,0.0
0.496,8251.0,47.31821146993434,0.0
0.504,8219.0,37.295136441820205,0.0
0.512,8174.0,9.981960026444312,0.0
0.52,8146.0,-22.598350612805007,0.0
0.528,8134.0,-46.612148893052336,0.0
0.536,8134.0,-56.19852754105591,0.0
0.544,8137.0,-52.7346334835097,0.0
0.552,8140.0,-41.465094414787245,0.0
0.56,8140.0,-27.90080737025255,0.0
0.568,8141.0,-15.444517826178753,0.0
0.576,8141.0,-5.532016699577753,0.0
0.584,8143.0,1.5775408021997919,0.0
0.592,8144.0,6.155850054759412,0.0
0.6,8142.0,7.725854245915116,0.0
0.608,8142.0,7.07441979207033,0.0
0.616,8149.0,7.046702756930472,0.0
0.624,8152.0,8.004955877536759,0.0
0.632,8157.0,8.992425990382344,0.0
0.64,8172.0,12.299072751191261,0.0
0.648,8151.0,11.164128647552161,0.0
0.656,8145.0,3.2841886411745236,0.0
0.664,8145.0,-3.0997215963559483,0.0
0.672,8148.0,-5.79229873192844,0.0
0.68,8173.0,-0.7860804735189504,0.0
0.688,8446.0,63.17541347099336,0.0
0.696,8142.0,85.09067161809594,0.0
0.704,8143.0,23.247419211149918,0.0
0.712,8143.0,-16.646860635869416,0.0
0.72,8150.0,-36.28630563441425,0.0
0.728,8156.0,-39.74369807448397,0.0
0.736,8165.0,-32.69826815746205,0.0
0.744,8175.0,-19.69245345216882,0.0
0.752,8186.0,-4.724910383876022,0.0
0.76,8203.0,10.563645176163163,0.0
0.768,8227.0,26.38003222956513,0.0
0.776,8248.0,40.92783028958297,0.0
0.784,8257.0,49.455256645381496,0.0
0.792,8242.0,45.77455693690672,1.0
0.8,8195.0,23.991182960369315,0.0
0.808,8159.0,-9.485783430241327,0.0
0.816,8144.0,-38.26519146961459,0.0
0.824,8142.0,-52.95694526255056,0.0
0.832,8146.0,-53.208124608640446,0.0
0.84,8146.0,-44.47248863134814,0.0
0.848,8148.0,-32.15509206106776,0.0
0.856,8150.0,-19.178309240485305,0.0
0.864,8152.0,-7.778999925230664,0.0
0.872,8151.0,0.3462218430761368,0.0
0.88,8152.0,5.098973283577834,0.0
0.888,8152.0,7.340978939023898,0.0
0.896,8154.0,7.962519979888839,0.0
0.904,8155.0,7.735788785352042,0.0
0.912,8161.0,7.858969211768908,0.0
0.92,8165.0,8.783313660252588,0.0
0.928,8168.0,9.428421188822313,0.0
0.936,8183.0,12.057891614768323,0.0
0.944,8162.0,10.559032450140876,0.0
0.952,8158.0,2.964215051009205,0.0
0.96,8158.0,-2.7939607249804794,0.0
0.968,8160.0,-5.367137313024614,0.0
0.976,8224.0,7.4086660662726445,0.0
0.984,8396.0,62.05600843382649,0.0
0.992,8143.0,68.41756649511785,0.0
1.0,8153.0,12.161770494448547,0.0
1.008,8152.0,-21.112975056384812,0.0
1.016,8160.0,-36.16052272332627,0.0
1.024,8170.0,-35.899840704184726,0.0
1.032,8178.0,-26.625419356904104,0.0
1.04,8188.0,-13.426399177637222,0.0
1.048,8196.0,0.09249502732996007,0.0
1.056,8216.0,13.793946515393145,0.0
1.064,8237.0,28.181971025330313,0.0
1.072,8261.0,41.61184264137046,0.0
1.08,8262.0,48.35292067346177,0.0
1.088,8244.0,41.53559558875304,0.0
1.096,8207.0,19.97000888069647,0.0
1.104,8173.0,-10.316891132481942,1.0
1.112,8159.0,-36.47079096487005,0.0
1.12,8154.0,-50.290477477884906,0.0
1.128,8159.0,-50.83878731065329,0.0
1.136,8160.0,-42.22949166551348,0.0
1.144,8158.0,-30.93977984745652,0.0
1.152,8164.0,-18.755023771584774,0.0
1.16,8164.0,-7.4796911921393985,0.0
1.168,8165.0,0.5268322021788663,0.0
1.176,8160.0,4.364799660519793,0.0
1.184,8164.0,5.768511315482101,0.0
1.192,8163.0,6.336992143079215,0.0
1.2,8165.0,5.916728784223096,0.0
1.208,8169.0,5.996944750813327,0.0
1.216,8172.0,6.565282502320315,0.0
1.224,8190.0,10.196339501425882,0.0
1.232,8186.0,13.658066744114876,0.0
1.24,8171.0,9.75288673571572,0.0
1.248,8165.0,1.6743996594657347,0.0
1.256,8159.0,-5.808672922938285,0.0
1.264,8156.0,-11.192193752651747,0.0
1.272,8359.0,28.18103444363078,0.0
1.28,8213.0,58.83886621759916,0.0
1.288,8131.0,21.46860282425314,0.0
1.296,8160.0,-14.714946618056956,0.0
1.304,8162.0,-27.549552957955484,0.0
1.312,8164.0,-30.145877282230913,0.0
1.32,8180.0,-23.433453547898807,0.0
1.328,8184.0,-11.82493257754254,0.0
1.336,8194.0,-0.30666151926902785,0.0
1.344,8208.0,11.454938284764467,0.0
1.352,8227.0,23.41595236858643,0.0
1.36,8250.0,35.52017623082179,0.0
1.368,8257.0,43.42234101893041,0.0
1.376,8272.0,46.00694694885806,0.0
1.384,8243.0,37.700070895477666,0.0
1.392,8199.0,12.15766217882674,0.0
1.4,8171.0,-19.500980665525276,0.0
1.408,8157.0,-43.84790562365947,0.0
1.416,8155.0,-54.86759004428154,0.0
1.424,8161.0,-52.24883566760741,0.0
1.432,8163.0,-41.144161847246096,0.0
1.44,8163.0,-27.930333828453513,0.0
1.448,8163.0,-15.88112943915894,0.0
1.456,8164.0,-6.143182327912882,0.0
1.464,8166.0,1.1601049643857095,0.0
1.472,8166.0,5.711973071581269,0.0
1.48,8168.0,7.9465394757994545,0.0
1.488,8165.0,7.85896835775975,0.0
1.496,8171.0,7.228569049673297,0.0
1.504,8187.0,10.254433682611307,0.0
1.512,8181.0,12.532240096887335,0.0
1.52,8169.0,8.30188069506039,0.0
1.528,8158.0,-0.1575289443001111,0.0
1.536,8160.0,-6.975234030188631,0.0
1.544,8162.0,-9.132482470154173,0.0
1.552,8268.0,13.040805520795402,0.0
1.56,8290.0,50.32741695044797,0.0
1.568,8122.0,34.920506683438134,0.0
1.576,8156.0,-6.861786101295593,1.0
1.584,8162.0,-22.359404434010685,0.0
1.592,8171.0,-25.070208371294257,0.0
1.6,8179.0,-19.399319833077925,0.0
1.608,8184.0,-10.448489118681891,0.0
1.616,8199.0,0.5151481743130262,0.0
1.624,8208.0,11.824142434175656,0.0
1.632,8227.0,22.440006516897938,0.0
1.64,8254.0,34.71387909396435,0.0
1.648,8269.0,45.29022790699764,0.0
1.656,8278.0,49.5817498094234,0.0
1.664,8251.0,40.925155442207824,0.0
1.672,8208.0,15.299865479722257,0.0
1.68,8175.0,-17.70139160330382,0.0
1.688,8161.0,-44.13667947348836,0.0
1.696,8157.0,-56.756238401853125,0.0
1.704,8162.0,-55.410208260789204,0.0
1.712,8168.0,-43.96601758195425,0.0
1.72,8166.0,-29.71497156711098,0.0
1.728,8168.0,-16.781786018808134,0.0
1.736,8167.0,-6.384503739106776,0.0
1.744,8169.0,0.9366988106030476,0.0
1.752,8170.0,5.73733380567819,0.0
1.76,8168.0,7.502273077736618,0.0
1.768,8169.0,7.204321277797362,0.0
1.776,8176.0,7.57025952720096,0.0
1.784,8178.0,8.477641523645161,0.0
1.792,8199.0,12.427874178749562,0.0
1.8,8189.0,15.127131908363253,0.0
1.808,8175.0,9.526796946468266,0.0
1.816,8168.0,0.4800759060481141,0.0
1.824,8171.0,-5.760128473947361,0.0
1.832,8169.0,-8.372970766207118,0.0
1.84,8445.0,47.32966566623827,0.0
1.848,8178.0,74.93508447031172,0.0
1.856,8151.0,19.835397996590473,0.0
1.864,8166.0,-18.20935610104584,0.0
1.872,8172.0,-33.65789032493876,0.0
1.88,8179.0,-35.03528382735976,0.0
1.888,8187.0,-27.473597143199186,0.0
1.896,8193.0,-15.97609495344227,0.0
1.904,8205.0,-3.0769117074735277,0.0
1.912,8217.0,9.921359914892264,0.0
1.92,8238.0,22.846248255719956,0.0
1.928,8262.0,36.2197821054026,1.0
1.936,8275.0,46.196651989239626,0.0
1.944,8271.0,46.931706086917075,0.0
1.952,8238.0,32.69188476951172,0.0
1.96,8196.0,3.991440486853662,0.0
1.968,8173.0,-26.866658016522933,0.0
1.976,8162.0,-47.9890121498031,0.0
1.984,8163.0,-55.24804512603578,0.0
1.992,8164.0,-50.7561678524778,0.0
2.0,8166.0,-39.79154241986862,0.0
2.008,8169.0,-26.252709384603804,0.0
2.016,8170.0,-13.448441934650418,0.0
2.024,8171.0,-3.428475089669746,0.0
2.032,8172.0,3.425715723633175,0.0
2.04,8172.0,7.164194756055849,0.0
2.048,8170.0,7.880346956581889,0.0
2.056,8178.0,8.334929519053958,0.0
2.064,8182.0,9.791705092483198,0.0
2.072,8195.0,12.641815709936054,0.0
2.08,8194.0,14.862327843063667,0.0
2.088,8174.0,9.631913419474586,0.0
2.096,8167.0,-0.4377790682910927,0.0
2.104,8172.0,-6.735207779189977,0.0
2.112,8168.0,-9.23405891441007,0.0
2.12,8317.0,20.311736492745922,0.0
2.128,8297.0,61.06037852074655,0.0
2.136,8144.0,40.55754152571899,0.0
2.144,8164.0,-4.888814119189192,0.0
2.152,8168.0,-26.121292216046413,0.0
2.16,8176.0,-32.26623864515818,0.0
2.168,8182.0,-28.148195660321562,0.0
2.176,8188.0,-18.993583227952058,0.0
2.184,8198.0,-7.431095931359778,0.0
2.192,8211.0,5.232500808754594,0.0
2.2,8230.0,18.466048536970902,0.0
2.208,8256.0,32.68621301842586,0.0
2.216,8276.0,45.53821706280905,0.0
2.224,8277.0,50.52505716135397,0.0
2.232,8248.0,40.093648057164046,0.0
2.24,8202.0,12.523297797937857,0.0
2.248,8176.0,-20.39010100705468,1.0
2.256,8164.0,-44.5270821360366,0.0
2.264,8162.0,-54.91103329769362,0.0
2.272,8165.0,-52.52262328263987,0.0
2.28,8168.0,-41.9212669525125,0.0
2.288,8170.0,-28.27437928827726,0.0
2.296,8171.0,-15.304000313068855,0.0
2.304,8174.0,-4.495869185104084,0.0
2.312,8173.0,2.986270229611364,0.0
2.32,8175.0,7.162742153549289,0.0
2.328,8176.0,9.159646981229344,0.0
2.336,8176.0,9.156203430530923,0.0
2.344,8177.0,7.9702792295663585,0.0
2.352,8189.0,8.716447919965503,0.0
2.36,8188.0,10.083523531621495,0.0
2.368,8204.0,12.427740971116464,0.0
2.376,8185.0,11.317012605542232,0.0
2.384,8176.0,3.2239139098410305,0.0
2.392,8178.0,-3.4812204887209646,0.0
2.4,8178.0,-6.510230152763597,0.0
2.408,8200.0,-2.8199356053678457,0.0
2.416,8486.0,62.71468791342636,0.0
2.424,8173.0,86.44734702718597,0.0
2.432,8169.0,22.61300301005099,0.0
2.44,8170.0,-19.179823445519787,0.0
2.448,8175.0,-39.762339543018925,0.0
2.456,8183.0,-43.250454906449704,0.0
2.464,8191.0,-35.48722792372155,0.0
2.472,8201.0,-21.838370821457147,0.0
2.48,8210.0,-6.57378878585655,0.0
2.488,8227.0,8.762145270073916,0.0
2.496,8246.0,23.858176416052856,0.0
2.504,8270.0,37.95369863938208,0.0
2.512,8281.0,47.68606739573647,0.0
2.52,8267.0,45.59910108220447,0.0
2.528,8225.0,26.01066453236922,0.0
2.536,8189.0,-5.452892604372664,0.0
2.544,8172.0,-34.0616092302314,0.0
2.552,8168.0,-50.10693238417366,0.0
2.56,8168.0,-52.81651095707798,0.0
2.568,8169.0,-46.207043954483424,0.0
2.576,8172.0,-34.475479501273185,0.0
2.584,8174.0,-21.289057880059545,0.0
2.592,8175.0,-9.650054940100745,0.0
2.6,8177.0,-0.6908030835029422,0.0
2.608,8175.0,4.712417595595525,0.0
2.616,8175.0,6.784813618480257,0.0
2.624,8177.0,7.390369029543081,0.0
2.632,8175.0,6.628026324434586,0.0
2.64,8187.0,7.215299323927866,0.0
2.648,8186.0,8.715996131862084,0.0
2.656,8203.0,11.550871046223165,0.0
2.664,8197.0,13.723472073313587,0.0
2.672,8178.0,7.820183780545676,0.0
2.68,8174.0,-1.5555623089894652,0.0
2.688,8175.0,-7.477423955302584,0.0
2.696,8163.0,-12.093246506263313,0.0
2.704,8401.0,33.18242885125096,0.0
2.712,8257.0,74.13181821869057,0.0
2.72,8166.0,39.09926721605916,0.0
2.728,8166.0,-6.138211120596225,0.0
2.736,8170.0,-31.14375267507762,0.0
2.744,8175.0,-39.371520797594485,0.0
2.752,8183.0,-35.612311311489066,0.0
2.76,8193.0,-24.31245943769818,0.0
2.768,8200.0,-10.47057583318815,0.0
2.776,8212.0,3.184669857946801,0.0
2.784,8231.0,17.110851660321032,0.0
2.792,8256.0,31.741801809584558,1.0
2.8,8273.0,44.162724410078454,0.0
2.808,8272.0,48.081660453629866,0.0
2.816,8238.0,35.95903666321783,0.0
2.824,8194.0,7.402458243888077,0.0
2.832,8170.0,-24.500611251812643,0.0
2.84,8163.0,-45.986777651409284,0.0
2.848,8159.0,-53.968831809736,0.0
2.856,8160.0,-51.119996030705806,0.0
2.864,8162.0,-41.07190198298599,0.0
2.872,8166.0,-27.676685650993704,0.0
2.88,8169.0,-14.128558799839993,0.0
2.888,8168.0,-3.5655609868133524,0.0
2.896,8168.0,3.017658812946138,0.0
2.904,8170.0,6.862053103131075,0.0
2.912,8169.0,8.299554126290559,0.0
2.92,8172.0,8.299981141022954,0.0
2.928,8171.0,7.450460215859039,0.0
2.936,8175.0,6.4313797041163525,0.0
2.944,8179.0,6.488030688176423,0.0
2.952,8186.0,7.785181020441996,0.0
2.96,8197.0,11.049403091001523,0.0
2.968,8175.0,9.057329644914489,0.0
2.976,8169.0,0.7855995305194483,0.0
2.984,8169.0,-5.451199129785209,0.0
2.992,8167.0,-8.721767092948994,0.0
3.0,8258.0,8.849120606643737,0.0
3.008,8388.0,63.04936566085257,0.0
3.016,8148.0,63.07118252272744,0.0
3.024,8160.0,6.941161309035579,0.0
3.032,8164.0,-24.037589496207147,0.0
3.04,8169.0,-36.87528193750268,0.0
3.048,8175.0,-36.62943501767518,0.0
3.056,8182.0,-28.274676135501977,0.0
3.064,8191.0,-15.778097675952267,0.0
3.072,8204.0,-1.5008777982275205,0.0
3.08,8220.0,13.094921194514654,0.0
3.088,8246.0,28.32214265816856,0.0
3.096,8263.0,41.81846064648539,0.0
3.104,8268.0,47.95460675231175,0.0
3.112,8247.0,41.04421583993485,1.0
3.12,8204.0,17.65938170602908,0.0
3.128,8173.0,-13.96600235538267,0.0
3.136,8160.0,-39.54102781649544,0.0
3.144,8157.0,-51.939982361609054,0.0
3.152,8161.0,-51.19368841622304,0.0
3.16,8160.0,-42.377861507198304,0.0
3.168,8164.0,-30.126309523687723,0.0
3.176,8164.0,-17.496054462514394,0.0
3.184,8165.0,-7.169633246576495,0.0
3.192,8166.0,0.432997911731718,0.0
3.2,8167.0,5.272135499356864,0.0
3.208,8164.0,6.926073871067274,0.0
3.216,8167.0,6.854135746840939,0.0
3.224,8167.0,6.385326249851914,0.0
3.232,8176.0,6.978689676417844,0.0
3.24,8179.0,8.723161992560108,0.0
3.248,8196.0,12.518322208724157,0.0
3.256,8182.0,13.47775077025426,0.0
3.264,8168.0,6.281346058397958,0.0
3.272,8170.0,-1.3785319199455444,0.0
3.28,8170.0,-5.290967769131839,0.0
3.288,8160.0,-8.845610957709596,0.0
3.296,8457.0,49.02761452503751,0.0
3.304,8204.0,84.80981587684846,0.0
3.312,8156.0,31.618633514163548,0.0
3.32,8163.0,-13.00863589082769,0.0
3.328,8167.0,-35.18155762897868,0.0
3.336,8172.0,-41.121940170847665,0.0
3.344,8181.0,-35.54028956102093,0.0
3.352,8188.0,-23.582170007216746,0.0
3.36,8199.0,-9.25740765527894,0.0
3.368,8214.0,5.929586885744811,0.0
3.376,8233.0,20.958383084636807,0.0
3.384,8256.0,35.24948474347411,0.0
3.392,8271.0,46.120412074188835,0.0
3.4,8266.0,47.600069967323634,0.0
3.408,8230.0,32.88207095651251,0.0
3.416,8189.0,3.4613970548909947,0.0
3.424,8167.0,-27.333681568530437,0.0
3.432,8158.0,-47.73505709281494,0.0
3.44,8161.0,-53.78900379528318,0.0
3.448,8163.0,-48.19274590072132,0.0
3.456,8165.0,-36.7593357903977,0.0
3.464,8163.0,-24.424486706666357,0.0
3.472,8167.0,-13.018035166712252,0.0
3.48,8168.0,-3.2770866198779913,0.0
3.488,8164.0,2.367636831459322,0.0
3.496,8167.0,5.1426544604019,0.0
3.504,8166.0,6.412709842489221,0.0
3.512,8169.0,6.6001776458804216,0.0
3.52,8170.0,6.527584256820546,0.0
3.528,8179.0,7.538002067718935,0.0
3.536,8179.0,8.831418825949413,0.0
3.544,8197.0,11.934810866426005,0.0
3.552,8180.0,12.164994427655529,0.0
3.56,8169.0,4.736344781475964,0.0
3.568,8171.0,-2.2137395652857776,0.0
3.576,8175.0,-4.762573996336187,0.0
3.584,8181.0,-3.504879801093921,0.0
3.592,8497.0,63.55516504481852,0.0
3.6,8174.0,92.14854604896345,0.0
3.608,8163.0,26.851341865664835,0.0
3.616,8166.0,-17.470703999629222,0.0
3.624,8173.0,-38.99091567070559,0.0
3.632,8177.0,-43.55914126358766,0.0
3.64,8186.0,-37.000791667474914,0.0
3.648,8195.0,-23.835022936433006,0.0
3.656,8206.0,-8.349121714795729,0.0
3.664,8223.0,7.795463218609939,0.0
3.672,8243.0,23.72059039389228,0.0
3.68,8264.0,37.91869665845525,1.0
3.688,8272.0,46.491235215326924,0.0
3.696,8263.0,44.308099544236256,0.0
3.704,8224.0,26.49292626074407,0.0
3.712,8190.0,-2.9735383525685393,0.0
3.72,8170.0,-30.9813779463409,0.0
3.728,8163.0,-48.364147779976065,0.0
3.736,8166.0,-52.128916831240986,0.0
3.744,8169.0,-45.22623100193505,0.0
3.752,8171.0,-33.26565941431272,0.0
3.76,8172.0,-20.535828005210305,0.0
3.768,8171.0,-9.893952776614924,0.0
3.776,8169.0,-2.713227759596748,0.0
3.784,8171.0,1.9447985311833236,0.0
3.792,8170.0,4.608994011923869,0.0
3.8,8171.0,5.4858169327008,0.0
3.808,8172.0,5.581255612434461,0.0
3.816,8173.0,5.200115309849934,0.0
3.824,8181.0,6.0250181215637895,0.0
3.832,8180.0,7.029506191216797,0.0
3.84,8200.0,10.439518330147848,0.0
3.848,8177.0,10.260537213051066,0.0
3.856,8171.0,2.6743456192991744,0.0
3.864,8169.0,-3.85198453949738,0.0
3.872,8174.0,-6.5147366402186435,0.0
3.88,8209.0,1.070260100408177,0.0
3.888,8462.0,64.23238800265449,0.0
3.896,8159.0,81.63293691352169,0.0
3.904,8160.0,17.84822712600635,0.0
3.912,8166.0,-21.149841220072403,0.0
3.92,8170.0,-38.96366073418494,0.0
3.928,8178.0,-41.139763461577786,0.0
3.936,8185.0,-33.12492092971206,0.0
3.944,8193.0,-20.298314903118126,0.0
3.952,8207.0,-5.140598980431605,0.0
3.96,8222.0,10.52774861428361,0.0
3.968,8245.0,25.961283920451706,0.0
3.976,8262.0,39.32464715316951,0.0
3.984,8271.0,46.57745889416901,0.0
3.992,8254.0,42.17066066232087,1.0
4.0,8214.0,21.525770551324058,0.0
4.008,8178.0,-9.47400696637169,0.0
4.016,8161.0,-37.19879668972408,0.0
4.024,8159.0,-51.837130633602555,0.0
4.032,8162.0,-52.43079550877701,0.0
4.04,8167.0,-43.1983538782838,0.0
4.048,8167.0,-30.167418658612178,0.0
4.056,8167.0,-17.887208303580564,0.0
4.064,8166.0,-8.117101059092874,0.0
4.072,8164.0,-1.7213298840747484,0.0
4.08,8166.0,2.3220925728539896,0.0
4.088,8166.0,4.769910953694762,0.0
4.096,8166.0,5.494371906559309,0.0
4.104,8166.0,5.089805286037745,0.0
4.112,8173.0,5.50897646499493,0.0
4.12,8178.0,7.373257643645502,0.0
4.128,8194.0,11.64823488073398,0.0
4.136,8187.0,14.249146892188264,0.0
4.144,8169.0,8.519462502129954,0.0
4.152,8163.0,-1.0639342579556796,0.0
4.16,8168.0,-6.774535135353517,0.0
4.168,8153.0,-11.167683833194815,0.0
4.176,8419.0,39.206874855370415,0.0
4.184,8238.0,80.419650876466,0.0
4.192,8155.0,38.66483275270457,0.0
4.2,8160.0,-7.826407168670812,0.0
4.208,8163.0,-32.50026751273958,0.0
4.216,8170.0,-40.1219154289538,0.0
4.224,8176.0,-35.890478768715184,0.0
4.232,8185.0,-24.88208152569905,0.0
4.24,8195.0,-10.717600628677474,0.0
4.248,8211.0,4.5959862142628936,0.0
4.256,8230.0,20.106139319023214,0.0
4.264,8248.0,33.78962075122672,0.0
4.272,8263.0,43.50103097282022,0.0
4.28,8263.0,45.713585573461614,0.0
4.288,8235.0,34.37094448429434,0.0
4.296,8191.0,7.742225013728785,0.0
4.304,8163.0,-23.889427827878535,0.0
4.312,8157.0,-45.920643959757626,0.0
4.32,8160.0,-52.60065968504637,0.0
4.328,8162.0,-47.55482497214075,0.0
4.336,8166.0,-36.13504891787488,0.0
4.344,8165.0,-23.290009778145304,0.0
4.352,8165.0,-12.366735246204371,0.0
4.36,8164.0,-4.236086486694376,0.0
4.368,8165.0,1.2146064973987905,0.0
4.376,8163.0,4.049687836296698,0.0
4.384,8165.0,5.112369789845161,0.0
4.392,8166.0,5.578645014282529,0.0
4.4,8166.0,5.212911806068405,0.0
4.408,8178.0,6.65788872102371,0.0
4.416,8172.0,7.728836115830518,0.0
4.424,8192.0,10.050621397498617,0.0
4.432,8172.0,9.899928549292326,0.0
4.44,8168.0,3.4066432424876893,0.0
4.448,8164.0,-2.5843689033042665,0.0
4.456,8169.0,-5.531321954972782,0.0
4.464,8233.0,7.661225442514251,0.0
4.472,8368.0,54.95760805375562,0.0
4.48,8132.0,53.96200543134296,0.0
4.488,8160.0,2.6973592649369493,0.0
4.496,8164.0,-21.491793088113127,0.0
4.504,8171.0,-30.29149933422059,0.0
4.512,8176.0,-28.451472365435166,0.0
4.52,8184.0,-20.393793696906414,0.0
4.528,8193.0,-9.063441961105354,0.0
4.536,8208.0,3.9146539408161516,0.0
4.544,8228.0,18.146899568090475,0.0
4.552,8245.0,31.37167249694062,1.0
4.56,8263.0,41.58699441001272,0.0
4.568,8274.0,47.24796362964753,0.0
4.576,8252.0,41.185193449893404,0.0
4.584,8205.0,17.25876282867648,0.0
4.592,8174.0,-15.443385249155426,0.0
4.6,8157.0,-42.248421786683366,0.0
4.608,8150.0,-56.59873656646505,0.0
4.616,8159.0,-56.095850895617104,0.0
4.624,8162.0,-44.84204212575537,0.0
4.632,8162.0,-30.775072821343883,0.0
4.64,8162.0,-17.7900260731044,0.0
4.648,8166.0,-6.596309599393862,0.0
4.656,8164.0,1.4323159124153335,0.0
4.664,8168.0,6.371877454080732,0.0
4.672,8165.0,8.53137499844297,0.0
4.68,8165.0,7.902138663520191,0.0
4.688,8174.0,8.170659257047191,0.0
4.696,8185.0,11.176709993865643,0.0
4.704,8187.0,13.915873000694091,0.0
4.712,8166.0,9.544283222920512,0.0
4.72,8167.0,1.4258897570714453,0.0
4.728,8169.0,-2.978593999364648,0.0
4.736,8163.0,-5.949011720833596,0.0
4.744,8281.0,16.077920853222622,0.0
4.752,8284.0,51.38740962760289,0.0
4.76,8122.0,31.994614164396353,0.0
4.768,8160.0,-9.658316469656256,0.0
4.776,8163.0,-24.451142402813502,0.0
4.784,8169.0,-27.653806056880512,0.0
4.792,8181.0,-21.67779781543186,0.0
4.8,8189.0,-10.770969885386876,0.0
4.808,8197.0,0.5811295297087327,0.0
4.816,8214.0,12.314156920175947,0.0
4.824,8231.0,24.332306463128134,0.0
4.832,8252.0,35.51418674760612,0.0
4.84,8271.0,44.914795383760065,0.0
4.848,8274.0,48.15930483723491,0.0
4.856,8250.0,38.48626600848752,0.0
4.864,8205.0,12.833917716978021,0.0
4.872,8170.0,-20.62667812684822,0.0
4.88,8163.0,-45.868606095895984,0.0
4.888,8159.0,-56.08972765729618,0.0
4.896,8160.0,-54.24351980469123,0.0
4.904,8164.0,-43.90621353856477,0.0
4.912,8169.0,-29.29734001795873,0.0
4.92,8168.0,-15.398650447815044,0.0
4.928,8168.0,-5.048672008292442,0.0
4.936,8167.0,1.6334256218765404,0.0
4.944,8167.0,5.133259715578788,0.0
4.952,8166.0,6.220492241296824,0.0
4.96,8169.0,6.328981366008975,0.0
4.968,8173.0,6.8636991465696156,0.0
4.976,8177.0,7.773719148759028,0.0
4.984,8196.0,11.832234856872901,0.0
4.992,8186.0,14.277235308728905,0.0
5.0,8171.0,8.451086543871497,0.0
5.008,8173.0,1.0683165812097286,0.0
5.016,8173.0,-3.0512091584257632,0.0
5.024,8173.0,-5.024890566114891,0.0
5.032,8477.0,56.677160811448175,0.0
5.04,8154.0,80.69301004610793,0.0
5.048,8158.0,17.48996795849166,0.0
5.056,8169.0,-19.475380155904986,0.0
5.064,8174.0,-35.11511539212461,0.0
5.072,8180.0,-36.79325398612173,0.0
5.08,8187.0,-29.55150007569182,0.0
5.088,8199.0,-16.906666868341745,0.0
5.096,8209.0,-2.370664966579625,0.0
5.104,8220.0,10.875640695378706,0.0
5.112,8241.0,23.59823490386384,0.0
5.12,8263.0,36.3295206366688,1.0
5.128,8279.0,46.11422921065969,0.0
5.136,8270.0,46.339534043998356,0.0
5.144,8227.0,28.823515758924486,0.0
5.152,8192.0,-1.8408780799836677,0.0
5.16,8168.0,-31.750399831015557,0.0
5.168,8162.0,-50.7541310353954,0.0
5.176,8160.0,-55.93238759457995,0.0
5.184,8163.0,-50.31048900680048,0.0
5.192,8167.0,-37.92793770827575,0.0
5.2,8170.0,-23.424488476184706,0.0
5.208,8174.0,-9.86563779733683,0.0
5.216,8171.0,-0.14690789583937658,0.0
5.224,8167.0,4.192900146533702,0.0
5.232,8170.0,5.919461490889262,0.0
5.24,8171.0,6.860290088515967,0.0
5.248,8176.0,7.602398563243014,0.0
5.256,8178.0,8.318772704972389,0.0
5.264,8180.0,8.298414356103649,0.0
5.272,8191.0,9.684147611562821,0.0
5.28,8179.0,8.831136065542978,0.0
5.288,8170.0,2.6974446675935724,0.0
5.296,8171.0,-2.973381358368215,0.0
5.304,8173.0,-5.263396338142456,0.0
5.312,8212.0,2.556619385662998,0.0
5.32,8429.0,59.09476113765572,0.0
5.328,8145.0,69.88370642103382,0.0
5.336,8160.0,10.71215437439696,0.0
5.344,8166.0,-21.615575689198522,0.0
5.352,8171.0,-35.209656472670076,0.0
5.36,8180.0,-35.05076237915432,0.0
5.368,8188.0,-26.169569363728442,0.0
5.376,8195.0,-13.885118484122813,0.0
5.384,8204.0,-1.2461534424728598,0.0
5.392,8222.0,11.933563473477534,0.0
5.4,8248.0,26.907993518633475,0.0
5.408,8270.0,41.49071690172741,0.0
5.416,8277.0,49.7491569572976,0.0
5.424,8259.0,44.84331631648661,1.0
5.432,8211.0,21.659379785060764,0.0
5.44,8180.0,-11.475144809591484,0.0
5.448,8163.0,-39.13752019600338,0.0
5.456,8161.0,-53.44500903669109,0.0
5.464,8161.0,-54.212141791714885,0.0
5.472,8164.0,-45.833719778322575,0.0
5.48,8167.0,-32.70399695105357,0.0
5.488,8170.0,-18.75498361238374,0.0
5.496,8170.0,-7.0491807577845975,0.0
5.504,8170.0,0.9423507599199183,0.0
5.512,8170.0,5.5256578264327345,0.0
5.52,8173.0,8.011365593992423,0.0
5.528,8170.0,8.266791483810039,0.0
5.536,8176.0,7.777409241067062,0.0
5.544,8182.0,8.76045223973074,0.0
5.552,8182.0,9.239439231001825,0.0
5.56,8198.0,11.390716491904186,0.0
5.568,8181.0,10.73171042292961,0.0
5.576,8173.0,3.6074007411102684,0.0
5.584,8170.0,-3.4001378590855893,0.0
5.592,8175.0,-6.6202819531399655,0.0
5.6,8190.0,-3.434940489219116,0.0
5.608,8490.0,63.324402378160585,0.0
5.616,8165.0,88.0975202346001,0.0
5.624,8164.0,22.789608647865407,0.0
5.632,8167.0,-18.87995461679361,0.0
5.64,8174.0,-38.61783342312606,0.0
5.648,8181.0,-41.575651497651734,0.0
5.656,8188.0,-34.16132918638323,0.0
5.664,8196.0,-21.53273810330529,0.0
5.672,8207.0,-6.9178772370391926,0.0
5.68,8222.0,8.085980661114718,0.0
5.688,8246.0,23.7010395235543,0.0
5.696,8273.0,39.761744284794986,0.0
5.704,8284.0,50.99510016610952,0.0
5.712,8267.0,48.6812242647859,0.0
5.72,8222.0,27.265502558778508,0.0
5.728,8185.0,-6.286159560310352,1.0
5.736,8169.0,-36.00344492431441,0.0
5.744,8161.0,-53.02287106368317,0.0
5.752,8158.0,-57.29654758434981,0.0
5.76,8163.0,-50.72855827250828,0.0
5.768,8165.0,-37.72310624414877,0.0
5.776,8167.0,-23.495231887932732,0.0
5.784,8168.0,-10.90583349732674,0.0
5.792,8169.0,-1.3984293105163488,0.0
5.8,8169.0,4.640553065747554,0.0
5.808,8168.0,7.304133843495038,0.0
5.816,8170.0,7.976279043761679,0.0
5.824,8168.0,7.164486556280281,0.0
5.832,8170.0,5.598173089757438,0.0
5.84,8178.0,5.866117012597897,0.0
5.848,8178.0,6.76961262157829,0.0
5.856,8196.0,9.955000094267007,0.0
5.864,8188.0,12.372545719331129,0.0
5.872,8169.0,6.410331990273335,0.0
5.88,8168.0,-2.173609859687076,0.0
5.888,8167.0,-7.329195655991498,0.0
5.896,8161.0,-10.697113795122732,0.0
5.904,8403.0,37.14790821903193,0.0
5.912,8239.0,75.74677829599818,0.0
5.92,8156.0,36.62767715858922,0.0
5.928,8158.0,-8.60884972162603,0.0
5.936,8162.0,-32.83064896370706,0.0
5.944,8169.0,-39.93055813755859,0.0
5.952,8175.0,-35.41957806928144,0.0
5.96,8182.0,-24.72585506850487,0.0
5.968,8190.0,-11.58836107169759,0.0
5.976,8207.0,3.045584148405169,0.0
5.984,8226.0,18.593158395488445,0.0
5.992,8251.0,33.95826216610703,0.0
6.0,8271.0,47.0902229288688,0.0
6.008,8272.0,52.00732656077366,0.0
6.016,8237.0,40.08414094250179,0.0
6.024,8189.0,9.998591308588857,0.0
6.032,8165.0,-24.019516955946983,0.0
6.04,8155.0,-47.44235584331591,0.0
6.048,8153.0,-56.55337290764305,0.0
6.056,8153.0,-53.77605616871142,0.0
6.064,8152.0,-44.18477159294753,0.0
6.072,8159.0,-30.587763854034392,0.0
6.08,8160.0,-16.274643256789886,0.0
6.088,8162.0,-4.729556844272565,0.0
6.096,8163.0,3.428147342538523,0.0
6.104,8161.0,7.528551724353065,0.0
6.112,8161.0,8.40350516276817,0.0
6.12,8163.0,8.055482259185965,0.0
6.128,8163.0,7.0369575432075635,0.0
6.136,8166.0,5.980620354137955,0.0
6.144,8166.0,5.062074117129214,0.0
6.152,8176.0,5.7943854436744004,0.0
6.16,8176.0,7.391984170780233,0.0
6.168,8192.0,10.484902561624722,0.0
6.176,8179.0,11.337316885288828,0.0
6.184,8168.0,5.219342468295281,0.0
6.192,8164.0,-2.2546438048786968,0.0
6.2,8166.0,-6.741518000372025,0.0
6.208,8163.0,-8.577255124649128,0.0
6.216,8475.0,54.76646079351917,0.0
6.224,8202.0,91.89232021607086,0.0
6.232,8155.0,34.54026810359437,0.0
6.24,8157.0,-13.807890398202062,0.0
6.248,8162.0,-38.8773666938489,0.0
6.256,8167.0,-45.766137723846214,0.0
6.264,8176.0,-40.041247335694834,0.0
6.272,8183.0,-27.316017687565363,0.0
6.28,8193.0,-12.175793134094874,0.0
6.288,8207.0,3.527324445612976,0.0
6.296,8228.0,19.429867123963504,0.0
6.304,8257.0,36.103848666129124,1.0
6.312,8270.0,49.07167887349328,0.0
6.32,8267.0,51.34399478895443,0.0
6.328,8228.0,36.32284840719967,0.0
6.336,8184.0,4.975426229725144,0.0
6.344,8158.0,-28.618778611404878,0.0
6.352,8153.0,-50.480716885894935,0.0
6.36,8150.0,-57.39076520660183,0.0
6.368,8154.0,-52.57193815165169,0.0
6.376,8155.0,-40.73006129898772,0.0
6.384,8158.0,-26.734433504584104,0.0
6.392,8159.0,-13.586983324541961,0.0
6.4,8161.0,-3.138753444480926,0.0
6.408,8159.0,3.5161845520012776,0.0
6.416,8161.0,6.918808830517719,0.0
6.424,8161.0,8.29074378319251,0.0
6.432,8163.0,8.253730883938715,0.0
6.44,8160.0,6.776177667353522,0.0
6.448,8163.0,4.875006614166523,0.0
6.456,8166.0,4.237353588673386,0.0
6.464,8174.0,5.465122888407905,0.0
6.472,8174.0,6.997053085264724,0.0
6.48,8187.0,9.498108956802525,0.0
6.488,8188.0,12.397415387677938,0.0
6.496,8171.0,8.96365273697893,0.0
6.504,8167.0,1.2836182988035034,0.0
6.512,8166.0,-4.4744572133772635,0.0
6.52,8164.0,-7.8142955237376555,0.0
6.528,8324.0,23.674799282232698,0.0
6.536,8287.0,63.837020410462856,0.0
6.544,8146.0,41.544899256088,0.0
6.552,8161.0,-3.679225406914611,0.0
6.56,8162.0,-26.59807098797205,0.0
6.568,8169.0,-34.48525037482591,0.0
6.576,8179.0,-30.44823024579091,0.0
6.584,8186.0,-19.97131808371614,0.0
6.592,8196.0,-7.274287937819963,0.0
6.6,8209.0,6.036501630265548,0.0
6.608,8228.0,19.530902115439176,0.0
6.616,8251.0,33.13098764295091,0.0
6.624,8270.0,44.73164163607066,0.0
6.632,8271.0,48.89642090805819,0.0
6.64,8249.0,39.65587263595603,0.0
6.648,8203.0,14.28627320079977,0.0
6.656,8171.0,-18.818698021103046,0.0
6.664,8158.0,-44.737323772402306,0.0
6.672,8154.0,-56.755963985724065,0.0
6.68,8153.0,-56.28039805778462,0.0
6.688,8159.0,-46.44487238086003,0.0
6.696,8160.0,-32.15646207659256,0.0
6.704,8165.0,-17.605215624019365,0.0
6.712,8159.0,-6.53477479419098,0.0
6.72,8161.0,0.1858113564640007,0.0
6.728,8160.0,4.336484555840798,0.0
6.736,8158.0,5.520821126010333,0.0
6.744,8166.0,6.6100191193518185,0.0
6.752,8163.0,7.273516218794157,0.0
6.76,8164.0,6.15455474944838,0.0
6.768,8168.0,5.581203757568574,0.0
6.776,8175.0,6.643257626271179,0.0
6.784,8178.0,8.307166506674548,0.0
6.792,8192.0,11.504848992710095,0.0
6.8,8184.0,12.877487184594884,0.0
6.808,8167.0,6.629363484594023,0.0
6.816,8164.0,-2.156872810701998,0.0
6.824,8167.0,-7.026031094056179,0.0
6.832,8155.0,-10.679121448817568,0.0
6.84,8430.0,42.51064459118356,0.0
6.848,8165.0,69.5648772883435,0.0
6.856,8143.0,16.383512825657135,0.0
6.864,8156.0,-19.390499788155466,1.0
6.872,8168.0,-32.49984262029761,0.0
6.88,8170.0,-32.465115066736644,0.0
6.888,8181.0,-24.866571887717782,0.0
6.896,8187.0,-13.129626155442566,0.0
6.904,8197.0,-0.9289963097669443,0.0
6.912,8211.0,11.330502656149747,0.0
6.92,8228.0,23.196237744942437,0.0
6.928,8253.0,35.27742509693394,0.0
6.936,8277.0,47.08448572977113,0.0
6.944,8269.0,50.19741131467072,0.0
6.952,8234.0,35.64293486965926,0.0
6.96,8193.0,6.1046892111555735,0.0
6.968,8165.0,-26.386480392173098,0.0
6.976,8158.0,-48.75173150159776,0.0
6.984,8154.0,-56.83447526831378,0.0
6.992,8159.0,-52.793518487624624,0.0
7.0,8161.0,-40.96947698980989,0.0
7.008,8164.0,-26.743797925895706,0.0
7.016,8164.0,-13.66317687182459,0.0
7.024,8167.0,-3.242917785571535,0.0
7.032,8162.0,3.002669224575129,0.0
7.04,8160.0,4.810953219428484,0.0
7.048,8164.0,5.559573747430477,0.0
7.056,8160.0,5.159409691131714,0.0
7.064,8164.0,4.140525919824313,0.0
7.072,8170.0,4.953215378181085,0.0
7.08,8171.0,6.112978437684205,0.0
7.088,8179.0,7.71076813226864,0.0
7.096,8192.0,11.776972171147463,0.0
7.104,8173.0,11.170385600086547,0.0
7.112,8165.0,3.601966739566933,0.0
7.12,8165.0,-3.054490965078685,0.0
7.128,8167.0,-6.119410545261644,0.0
7.136,8208.0,1.7807113817095797,0.0
7.144,8416.0,57.0537588518971,0.0
7.152,8136.0,66.38246537858367,0.0
7.16,8156.0,8.716867426127465,0.0
7.168,8162.0,-21.396230694713722,1.0
7.176,8169.0,-33.305235439879425,0.0
7.184,8174.0,-32.84712451127871,0.0
7.192,8183.0,-24.735975137120704,0.0
7.2,8194.0,-12.102772482108094,0.0
7.208,8206.0,1.9023248628905094,0.0
7.216,8221.0,15.412623696766559,0.0
7.224,8244.0,28.829287802544286,0.0
7.232,8265.0,41.38225678863864,0.0
7.24,8275.0,48.86534892202826,0.0
7.248,8262.0,45.26937112283099,0.0
7.256,8216.0,24.225596149029116,0.0
7.264,8177.0,-9.258114065557947,0.0
7.272,8156.0,-39.91473517299028,0.0
7.28,8155.0,-56.48808350532863,0.0
7.288,8157.0,-57.520973347027166,0.0
7.296,8160.0,-48.3894600684805,0.0
7.304,8164.0,-34.222579089649116,0.0
7.312,8164.0,-19.83855880185274,0.0
7.32,8163.0,-8.528414063220907,0.0
7.328,8165.0,-0.3423040495240457,0.0
7.336,8163.0,4.55084525123516,0.0
7.344,8164.0,6.550383000693955,0.0
7.352,8163.0,6.7397909491178325,0.0
7.36,8166.0,6.238576285338695,0.0
7.368,8168.0,6.017821079266469,0.0
7.376,8168.0,5.3834957561341525,0.0
7.384,8181.0,6.848066021115301,0.0
7.392,8180.0,9.127572713181053,0.0
7.4,8196.0,12.156333817010363,0.0
7.408,8182.0,12.51309609559462,0.0
7.416,8171.0,5.719431045413785,0.0
7.424,8170.0,-1.6170744124551675,0.0
7.432,8170.0,-5.915004901552038,0.0
7.44,8201.0,-1.2266837932556882,0.0
7.448,8452.0,59.34479377588195,0.0
7.456,8150.0,75.74995250175607,0.0
7.464,8164.0,15.128712016505006,0.0
7.472,8167.0,-19.543166966188437,0.0
7.48,8172.0,-35.45067765277645,0.0
7.488,8178.0,-37.236303007151946,0.0
7.496,8190.0,-28.969441007000796,0.0
7.504,8200.0,-15.193705117613945,0.0
7.512,8205.0,-1.6787002245100666,0.0
7.52,8225.0,11.676082764460489,0.0
7.528,8245.0,25.975880414038784,0.0
7.536,8268.0,39.27944253791338,1.0
7.544,8278.0,47.933847325077295,0.0
7.552,8267.0,45.58041018394715,0.0
7.56,8226.0,26.654420283968648,0.0
7.568,8187.0,-4.923569615253882,0.0
7.576,8169.0,-34.49741649838984,0.0
7.584,8161.0,-52.068946690980965,0.0
7.592,8160.0,-56.40516118444498,0.0
7.6,8164.0,-49.80500060199529,0.0
7.608,8165.0,-37.32914642987316,0.0
7.616,8170.0,-23.065602682077724,0.0
7.624,8170.0,-10.111644682219548,0.0
7.632,8169.0,-1.121951414967043,0.0
7.64,8169.0,4.160338616003855,0.0
7.648,8171.0,7.062121439908196,0.0
7.656,8168.0,7.50322922594205,0.0
7.664,8173.0,7.035123177184005,0.0
7.672,8171.0,6.3045807920293555,0.0
7.68,8175.0,5.325292014407978,0.0
7.688,8184.0,6.5946758353629775,0.0
7.696,8185.0,8.388564880659715,0.0
7.704,8198.0,11.03787399474777,0.0
7.712,8180.0,9.909694932826369,0.0
7.72,8171.0,2.223942718793296,0.0
7.728,8173.0,-4.088680206367144,0.0
7.736,8173.0,-6.793461168805834,0.0
7.744,8212.0,0.6046368764407362,0.0
7.752,8440.0,59.436509864779055,0.0
7.76,8150.0,72.5516550005334,0.0
7.768,8164.0,12.921215445807093,0.0
7.776,8169.0,-20.421421315166754,0.0
7.784,8174.0,-35.00106496886315,0.0
7.792,8180.0,-36.0695585389808,0.0
7.8,8186.0,-28.781283162695445,0.0
7.808,8197.0,-16.634312860978298,0.0
7.816,8209.0,-2.2297375187690704,0.0
7.824,8221.0,11.530378900919004,0.0
7.832,8241.0,24.457573904312994,0.0
7.84,8266.0,37.58817592287096,1.0
7.848,8281.0,47.82681414065314,0.0
7.856,8264.0,46.222216708443966,0.0
7.864,8218.0,25.39447486582185,0.0
7.872,8180.0,-7.934388697130316,0.0
7.88,8162.0,-37.88292284327372,0.0
7.888,8160.0,-53.93695479708276,0.0
7.896,8161.0,-55.45810466161106,0.0
7.904,8163.0,-47.33670444594259,0.0
7.912,8166.0,-34.33541449437325,0.0
7.92,8167.0,-20.623615639299715,0.0
7.928,8166.0,-9.387696840502258,0.0
7.936,8168.0,-1.1152065136986948,0.0
7.944,8166.0,3.9462090983265625,0.0
7.952,8165.0,5.728327595850487,0.0
7.96,8164.0,5.5051858109993645,0.0
7.968,8167.0,4.947170626656998,0.0
7.976,8167.0,4.480014378691294,0.0
7.984,8168.0,3.728816708565091,0.0
7.992,8175.0,4.353633613277452,0.0
8.0,8179.0,6.3103961241888555,0.0
8.008,8190.0,9.575404074715834,0.0
8.016,8190.0,12.301889180526587,0.0
8.024,8172.0,8.371801535042096,0.0
8.032,8166.0,-0.1249295315958534,0.0
8.04,8168.0,-5.948144782299096,0.0
8.048,8162.0,-9.30737902085366,0.0
8.056,8334.0,24.031020741292878,0.0
8.064,8296.0,67.48021946129984,0.0
8.072,8155.0,46.37535863298399,0.0
8.08,8162.0,-0.5133834826363,0.0
8.088,8164.0,-26.32676585463173,0.0
8.096,8169.0,-36.1712034125685,0.0
8.104,8174.0,-34.46619792865545,0.0
8.112,8181.0,-25.78076817795545,0.0
8.12,8190.0,-13.466737395040127,0.0
8.128,8201.0,-0.05650706159144647,0.0
8.136,8223.0,14.624775388922899,0.0
8.144,8245.0,30.079209323712348,0.0
8.152,8265.0,43.23920752259278,0.0
8.16,8268.0,49.16535348753973,1.0
8.168,8242.0,40.517099571875406,0.0
8.176,8195.0,14.345705752204822,0.0
8.184,8161.0,-19.855358496065264,0.0
8.192,8149.0,-46.4693427162415,0.0
8.2,8144.0,-58.6366222659658,0.0
8.208,8145.0,-57.75953057864558,0.0
8.216,8146.0,-48.07519175341781,0.0
8.224,8146.0,-34.85482238949021,0.0
8.232,8148.0,-21.343313612006796,0.0
8.24,8145.0,-10.321032151600775,0.0
8.248,8143.0,-3.2591868905612955,0.0
8.256,8141.0,0.5941046597845343,0.0
8.264,8139.0,1.9656583539983785,0.0
8.272,8137.0,1.6615726423519845,0.0
8.28,8134.0,0.20831870739220903,0.0
8.288,8135.0,-1.0913184974331216,0.0
8.296,8137.0,-1.081562559325448,0.0
8.304,8143.0,0.7225913309771386,0.0
8.312,8139.0,2.088613241111034,0.0
8.32,8150.0,4.0099236966013905,0.0
8.328,8130.0,2.699524350376123,0.0
8.336,8120.0,-4.613748146941134,0.0
8.344,8118.0,-10.690916659469849,0.0
8.352,8118.0,-13.072676592046491,0.0
8.36,8154.0,-5.144443740466841,0.0
8.368,8397.0,57.32418847059421,0.0
8.376,8101.0,74.74906728989049,0.0
8.384,8104.0,13.861129477316354,0.0
8.392,8103.0,-23.840805754766507,0.0
8.4,8109.0,-41.50161641738464,0.0
8.408,8114.0,-43.40674674829279,0.0
8.416,8122.0,-35.29655181193198,0.0
8.424,8130.0,-21.880008831688656,0.0
8.432,8140.0,-6.9508049953340105,0.0
8.44,8151.0,7.222442932422837,0.0
8.448,8176.0,21.86430046722603,0.0
8.456,8199.0,37.01502441565913,0.0
8.464,8207.0,46.6965485273638,0.0
8.472,8191.0,43.70803139351051,1.0
8.48,8144.0,22.443021890726413,0.0
8.488,8110.0,-10.084063464248402,0.0
8.496,8094.0,-38.00670628588364,0.0
8.504,8091.0,-52.63956159498957,0.0
8.512,8090.0,-54.12983253087532,0.0
8.52,8094.0,-46.19155230095703,0.0
8.528,8096.0,-33.26787696471911,0.0
8.536,8100.0,-19.35522890674133,0.0
8.544,8103.0,-6.762724850387485,0.0
8.552,8100.0,1.7097701994830459,0.0
8.56,8102.0,6.256867636450352,0.0
8.568,8103.0,8.610301050779071,0.0
8.576,8103.0,8.900995245697004,0.0
8.584,8107.0,8.5406186686389,0.0
8.592,8108.0,8.05413807746686,0.0
8.6,8108.0,6.749632682823403,0.0
8.608,8114.0,6.180631305025372,0.0
8.616,8118.0,6.950076412504359,0.0
8.624,8139.0,11.458931968898924,0.0
8.632,8133.0,15.452664734486007,0.0
8.64,8118.0,11.181428028836535,0.0
8.648,8113.0,2.8741727278300004,0.0
8.656,8117.0,-2.6787836968962893,0.0
8.664,8107.0,-6.7824626902765885,0.0
8.672,8335.0,36.35650941627705,0.0
8.68,8176.0,70.45350731733333,0.0
8.688,8101.0,32.130439472124635,0.0
8.696,8117.0,-7.458862180531696,0.0
8.704,8124.0,-25.042139405024045,0.0
8.712,8130.0,-28.988265933894354,0.0
8.72,8140.0,-23.658222190916376,0.0
8.728,8149.0,-13.037461713422772,0.0
8.736,8158.0,-1.102313555951696,0.0
8.744,8172.0,10.82215609320042,0.0
8.752,8194.0,23.588330857086703,0.0
8.76,8216.0,36.55119245320316,0.0
8.768,8231.0,46.23494572279651,0.0
8.776,8238.0,49.44675607193972,1.0
8.784,8212.0,39.96778789182281,0.0
8.792,8172.0,14.818498930253782,0.0
8.8,8139.0,-17.215368621968764,0.0
8.808,8127.0,-42.74362909060346,0.0
8.816,8125.0,-54.22077309269298,0.0
8.824,8138.0,-50.54051887277524,0.0
8.832,8133.0,-39.06707678527505,0.0
8.84,8144.0,-25.13286713625712,0.0
8.848,8142.0,-11.243051790122763,0.0
8.856,8142.0,-1.7326601833474342,0.0
8.864,8147.0,5.1759655907656,0.0
8.872,8142.0,8.476978006087393,0.0
8.88,8142.0,8.122477261461881,0.0
8.888,8148.0,7.907167625051898,0.0
8.896,8149.0,8.01111968715145,0.0
8.904,8155.0,8.288122231805119,0.0
8.912,8159.0,9.23837216408947,0.0
8.92,8178.0,13.09862110142376,0.0
8.928,8170.0,15.642969458075413,0.0
8.936,8155.0,10.077115111483863,0.0
8.944,8152.0,1.580253593529278,0.0
8.952,8159.0,-2.8671581003154643,0.0
8.96,8148.0,-5.879858330823254,0.0
8.968,8402.0,42.87499195025339,0.0
8.976,8150.0,65.61677682438881,0.0
8.984,8132.0,13.956730473402786,0.0
8.992,8159.0,-16.87223343073242,0.0
9.0,8158.0,-27.23458068815239,0.0
9.008,8164.0,-28.212267756385927,0.0
9.016,8181.0,-19.81423852323951,0.0
9.024,8185.0,-7.5532681325153135,0.0
9.032,8200.0,4.724729808499433,0.0
9.04,8210.0,16.377113349624096,0.0
9.048,8232.0,27.322976452727517,0.0
9.056,8255.0,38.847393203840056,0.0
9.064,8272.0,47.945223899482244,0.0
9.072,8268.0,48.71251482683465,0.0
9.08,8240.0,35.24327081415731,0.0
9.088,8195.0,7.020326088159891,1.0
9.096,8163.0,-26.46620466474087,0.0
9.104,8167.0,-47.977917806223104,0.0
9.112,8155.0,-55.060297442847286,0.0
9.12,8167.0,-50.901014088921784,0.0
9.128,8162.0,-39.293920455733996,0.0
9.136,8165.0,-26.880683919352123,0.0
9.144,8171.0,-13.625379909930189,0.0
9.152,8167.0,-3.311844901724271,0.0
9.16,8167.0,2.472474180397967,0.0
9.168,8163.0,4.701251382804685,0.0
9.176,8166.0,5.102280520922477,0.0
9.184,8172.0,6.404589959174018,0.0
9.192,8178.0,8.655372071362763,0.0
9.2,8183.0,10.921533399713553,0.0
9.208,8200.0,15.100522232502044,0.0
9.216,8176.0,13.8524461595905,0.0
9.224,8175.0,5.906621075389694,0.0
9.232,8180.0,1.1291630436207925,0.0
9.24,8172.0,-2.4803146786055095,0.0
9.248,8186.0,-3.0131039255406904,0.0
9.256,8476.0,59.23607809965847,0.0
9.264,8142.0,78.0800168248229,0.0
9.272,8159.0,12.623077651644735,0.0
9.28,8176.0,-21.0556278049512,0.0
9.288,8178.0,-33.89916132280314,0.0
9.296,8186.0,-34.31228464406627,0.0
9.304,8193.0,-26.289945374553554,0.0
9.312,8203.0,-14.086567111677596,0.0
9.32,8211.0,-1.0564046435740693,0.0
9.328,8226.0,11.508694330643948,0.0
9.336,8253.0,25.77545386670249,0.0
9.344,8274.0,40.11136845651481,0.0
9.352,8284.0,48.841573352622845,0.0
9.36,8276.0,47.008244763764196,0.0
9.368,8235.0,28.78627210134323,0.0
9.376,8200.0,-1.8813737657967522,0.0
9.384,8180.0,-30.96947583980341,0.0
9.392,8170.0,-49.60581809606606,0.0
9.4,8172.0,-54.74089923269389,0.0
9.408,8176.0,-48.25260634905317,0.0
9.416,8181.0,-35.26106854476825,0.0
9.424,8179.0,-21.618997837850202,0.0
9.432,8184.0,-9.660501987751104,0.0
9.44,8184.0,-0.10211700647687394,0.0
9.448,8182.0,5.157576608406998,0.0
9.456,8182.0,7.077599601370139,0.0
9.464,8187.0,8.161554515743092,0.0
9.472,8182.0,7.565215665828418,0.0
9.48,8188.0,6.269866686663363,0.0
9.488,8198.0,7.82202682880893,0.0
9.496,8209.0,11.844377493966022,0.0
9.504,8204.0,13.653246559029412,0.0
9.512,8187.0,8.15839727333855,0.0
9.52,8182.0,-0.8227749940645026,0.0
9.528,8185.0,-6.4180847145401,0.0
9.536,8174.0,-10.3884908547941,0.0
9.544,8438.0,40.52654388128735,0.0
9.552,8185.0,66.74061814662969,0.0
9.56,8159.0,15.124982988801321,0.0
9.568,8180.0,-18.715048619890467,1.0
9.576,8185.0,-30.578743819443616,0.0
9.584,8189.0,-31.12010768489131,0.0
9.592,8199.0,-23.861882191873974,0.0
9.6,8205.0,-12.682823419069337,0.0
9.608,8218.0,-0.2669650972488853,0.0
9.616,8225.0,11.202244591348517,0.0
9.624,8245.0,21.802846043719,0.0
9.632,8270.0,33.95999255049696,0.0
9.64,8284.0,43.9687053835637,0.0
9.648,8284.0,46.08187847334625,0.0
9.656,8252.0,33.80742247453918,0.0
9.664,8211.0,6.508764966498347,0.0
9.672,8183.0,-24.719178550839615,0.0
9.68,8172.0,-47.40734577186254,0.0
9.688,8170.0,-56.293487988265724,0.0
9.696,8178.0,-51.78817566192038,0.0
9.704,8178.0,-39.637636074553484,0.0
9.712,8181.0,-25.829391030443276,0.0
9.72,8182.0,-12.929973821728709,0.0
9.728,8185.0,-2.5237398033229965,0.0
9.736,8182.0,4.013118582514835,0.0
9.744,8182.0,6.657667236488805,0.0
9.752,8180.0,6.803666365404297,0.0
9.76,8182.0,5.8584938816704835,0.0
9.768,8184.0,5.2285069071738235,0.0
9.776,8190.0,5.697636881793187,0.0
9.784,8197.0,7.767161288101988,0.0
9.792,8213.0,12.512400238333612,0.0
9.8,8199.0,13.830300813201575,0.0
9.808,8186.0,6.99674593553118,0.0
9.816,8185.0,-0.9656079632452474,0.0
9.824,8188.0,-5.11953171888581,0.0
9.832,8182.0,-7.412876415879509,0.0
9.84,8475.0,50.989059447629415,0.0
9.848,8181.0,77.59302395135387,0.0
9.856,8169.0,19.04649416556117,0.0
9.864,8181.0,-18.4655003601747,0.0
9.872,8187.0,-34.17302943137861,0.0
9.88,8192.0,-36.0340925391547,0.0
9.888,8200.0,-29.015617720705222,0.0
9.896,8205.0,-17.809882436344196,0.0
9.904,8217.0,-5.009526654052934,0.0
9.912,8228.0,8.019004982388424,0.0
9.92,8248.0,20.841606859213698,0.0
9.928,8270.0,33.84567348725295,1.0
9.936,8288.0,44.576886427450745,0.0
9.944,8284.0,47.02513746457544,0.0
9.952,8247.0,32.96712939591316,0.0
9.96,8207.0,3.9238771860191264,0.0
9.968,8183.0,-26.922413142182904,0.0
9.976,8175.0,-47.62072915637714,0.0
9.984,8177.0,-53.86761943967235,0.0
9.992,8176.0,-49.19075229829832,0.0
10.0,8180.0,-38.35405963818903,0.0
10.008,8184.0,-24.495922717760322,0.0
10.016,8184.0,-11.769169071401393,0.0
10.024,8183.0,-2.662543822296584,0.0
10.032,8183.0,2.9224715832581296,0.0
10.04,8187.0,6.59956259651176,0.0
10.048,8183.0,7.773616572312903,0.0
10.056,8185.0,6.880776481427802,0.0
10.064,8189.0,6.535350337780301,0.0
10.072,8194.0,7.178937053567552,0.0
10.08,8196.0,7.901247352665905,0.0
10.088,8211.0,10.603612125040627,0.0
10.096,8195.0,10.389852614408483,0.0
10.104,8188.0,3.9892923406405316,0.0
10.112,8187.0,-2.0352188540418865,0.0
10.12,8189.0,-5.085240817342992,0.0
10.128,8211.0,-1.2148164635586909,0.0
10.136,8486.0,61.9356714505916,0.0
10.144,8167.0,80.9033507760123,0.0
10.152,8176.0,16.52164660778567,0.0
10.16,8182.0,-20.993951371620142,0.0
10.168,8187.0,-37.75037427165012,0.0
10.176,8197.0,-38.87218046051157,0.0
10.184,8203.0,-30.373320217885748,0.0
10.192,8213.0,-17.473341237154273,0.0
10.2,8222.0,-3.3134344955117285,0.0
10.208,8239.0,10.874888218823344,0.0
10.216,8261.0,25.58480961350392,0.0
10.224,8288.0,40.41601413925787,0.0
10.232,8300.0,51.02735139996821,0.0
10.24,8285.0,48.95362751705079,1.0
10.248,8240.0,28.047233419067197,0.0
10.256,8202.0,-5.526033642172706,0.0
10.264,8188.0,-35.16703937036186,0.0
10.272,8179.0,-52.0638619890326,0.0
10.28,8179.0,-56.00182643643598,0.0
10.288,8179.0,-49.84019421475068,0.0
10.296,8182.0,-38.026950873726264,0.0
10.304,8188.0,-23.436576215957757,0.0
10.312,8186.0,-10.437387812543648,0.0
10.32,8185.0,-1.7801605043387099,0.0
10.328,8185.0,3.405301973656151,0.0
10.336,8186.0,6.159992785093891,0.0
10.344,8186.0,7.059485598371566,0.0
10.352,8188.0,6.929744470687183,0.0
10.36,8187.0,6.006685549165923,0.0
10.368,8189.0,4.7544064200362754,0.0
10.376,8196.0,5.131693894499449,0.0
10.384,8196.0,6.006901488791527,0.0
10.392,8212.0,8.882593837998456,0.0
10.4,8188.0,7.602160886761794,0.0
10.408,8182.0,-0.4366871010106479,0.0
10.416,8181.0,-6.554747399294911,0.0
10.424,8184.0,-8.77057945035267,0.0
10.432,8214.0,-2.0093683024558686,0.0
10.44,8476.0,61.94968547172607,0.0
10.448,8165.0,80.37192050124781,0.0
10.456,8171.0,16.769716699523997,0.0
10.464,8178.0,-20.731098050813216,0.0
10.472,8183.0,-37.314329015259545,0.0
10.48,8187.0,-39.62562433245921,0.0
10.488,8195.0,-32.533198312300556,0.0
10.496,8205.0,-19.72891755031378,0.0
10.504,8213.0,-5.487935409062175,0.0
10.512,8230.0,8.8737143437952,0.0
10.52,8252.0,23.989542643564846,0.0
10.528,8276.0,38.68975867324093,0.0
10.536,8286.0,48.46384613627288,0.0
10.544,8273.0,46.28363175953723,1.0
10.552,8227.0,25.923363055429263,0.0
10.56,8189.0,-7.2092233563435,0.0
10.568,8173.0,-36.743021495393805,0.0
10.576,8167.0,-53.1332034060747,0.0
10.584,8167.0,-55.99651412035496,0.0
10.592,8166.0,-49.404439686697515,0.0
10.6,8167.0,-38.01560153391006,0.0
10.608,8170.0,-24.699444220169198,0.0
10.616,8173.0,-11.853758509071668,0.0
10.624,8170.0,-2.459671451451868,0.0
10.632,8170.0,2.8559888991298976,0.0
10.64,8169.0,5.362359215070455,0.0
10.648,8172.0,6.4402271850538,0.0
10.656,8173.0,6.918465364434269,0.0
10.664,8175.0,6.765276097037031,0.0
10.672,8177.0,6.466187803989897,0.0
10.68,8184.0,7.147664504710292,0.0
10.688,8187.0,8.510026638864701,0.0
10.696,8205.0,12.315822183006048,0.0
10.704,8189.0,13.107941029770245,0.0
10.712,8176.0,5.664356325824201,0.0
10.72,8172.0,-3.0696646877622698,0.0
10.728,8175.0,-7.97385374122041,0.0
10.736,8177.0,-8.64374859455802,0.0
10.744,8496.0,57.85113560713103,0.0
10.752,8201.0,93.30840528141948,0.0
10.76,8164.0,32.30324684042739,0.0
10.768,8166.0,-15.823185650423738,0.0
10.776,8172.0,-40.25169017671715,0.0
10.784,8180.0,-45.73582460003263,0.0
10.792,8186.0,-39.184830265744495,0.0
10.8,8195.0,-26.3051878665849,0.0
10.808,8206.0,-10.613995125981319,0.0
10.816,8220.0,5.3824779429019145,0.0
10.824,8242.0,21.381548230783892,0.0
10.832,8266.0,36.99951485248266,0.0
10.84,8279.0,48.18552188950616,0.0
10.848,8274.0,49.12982072944351,1.0
10.856,8235.0,33.25038051235629,0.0
10.864,8197.0,3.08699212009833,0.0
10.872,8172.0,-28.090562421253253,0.0
10.88,8164.0,-49.011983150357764,0.0
10.888,8160.0,-56.40569161292683,0.0
10.896,8167.0,-51.61364750400094,0.0
10.904,8171.0,-38.707093269000325,0.0
10.912,8172.0,-24.184222033002925,0.0
10.92,8173.0,-11.520204759858188,0.0
10.928,8171.0,-2.4884276267182486,0.0
10.936,8170.0,2.6173230074236926,0.0
10.944,8172.0,5.44433927798832,0.0
10.952,8172.0,6.699407591731642,0.0
10.96,8175.0,7.038846129097919,0.0
10.968,8173.0,6.376718188804034,0.0
10.976,8177.0,5.426952720262307,0.0
10.984,8184.0,6.2897819659776815,0.0
10.992,8186.0,7.685159990828424,0.0
11.0,8203.0,11.226938949829673,0.0
11.008,8195.0,13.458112144254073,0.0
11.016,8177.0,7.425394207798718,0.0
11.024,8175.0,-1.354139127618737,0.0
11.032,8177.0,-6.341037192951035,0.0
11.04,8164.0,-10.576213469983031,0.0
11.048,8400.0,34.08167287894116,0.0
11.056,8258.0,74.52936683638882,0.0
11.064,8167.0,39.54844258108733,0.0
11.072,8165.0,-6.135205718076804,0.0
11.08,8170.0,-31.60936793162614,0.0
11.088,8176.0,-39.63508312197769,0.0
11.096,8185.0,-35.307819056966764,0.0
11.104,8195.0,-23.513884437257275,0.0
11.112,8204.0,-9.092272858780234,0.0
11.12,8215.0,4.90115682503847,0.0
11.128,8231.0,17.949897101237866,0.0
11.136,8254.0,30.91321646447841,0.0
11.144,8275.0,42.882129934477916,0.0
11.152,8277.0,48.1580075315012,1.0
11.16,8245.0,37.847805742093215,0.0
11.168,8203.0,10.893934317008416,0.0
11.176,8174.0,-21.20354836164529,0.0
11.184,8165.0,-44.73466981817114,0.0
11.192,8163.0,-54.115941352590426,0.0
11.2,8165.0,-51.459394407030004,0.0
11.208,8169.0,-40.860660385586016,0.0
11.216,8169.0,-27.580424849069004,0.0
11.224,8170.0,-15.340696670386933,0.0
11.232,8167.0,-6.184912563824128,0.0
11.24,8170.0,0.16750881068401213,0.0
11.248,8168.0,4.103224850377728,0.0
11.256,8167.0,5.195801035311888,0.0
11.264,8170.0,5.462805673015737,0.0
11.272,8173.0,6.018290901268529,0.0
11.28,8171.0,5.638660836424378,0.0
11.288,8177.0,5.376464000558144,0.0
11.296,8180.0,6.244973239360661,0.0
11.304,8201.0,10.715016299116769,0.0
11.312,8186.0,12.959874395802444,0.0
11.32,8171.0,6.1935851143830405,0.0
11.328,8168.0,-2.4244226582934516,0.0
11.336,8172.0,-6.949226331499858,0.0
11.344,8169.0,-8.367302203086865,0.0
11.352,8484.0,55.80448902318426,0.0
11.36,8175.0,86.52076628391978,0.0
11.368,8155.0,24.353781408183295,0.0
11.376,8164.0,-18.35130074676158,0.0
11.384,8169.0,-37.964530587099034,0.0
11.392,8175.0,-41.56058236271588,0.0
11.4,8184.0,-34.32169424450444,0.0
11.408,8191.0,-21.568240594003555,0.0
11.416,8203.0,-6.874153614569423,0.0
11.424,8215.0,7.761327810442481,0.0
11.432,8234.0,21.57334404376229,0.0
11.44,8257.0,35.051608696866424,0.0
11.448,8267.0,44.45032178522297,0.0
11.456,8263.0,44.49531670599049,1.0
11.464,8230.0,30.216780916994594,0.0
11.472,8189.0,2.0729967428233067,0.0
11.48,8160.0,-29.186539295713374,0.0
11.488,8157.0,-49.785979892297746,0.0
11.496,8161.0,-54.216012077480855,0.0
11.504,8159.0,-48.20753679172208,0.0
11.512,8165.0,-36.52809952216694,0.0
11.52,8164.0,-23.061304408219712,0.0
11.528,8166.0,-11.396397203151537,0.0
11.536,8162.0,-3.1785636283946133,0.0
11.544,8162.0,1.3461540667422014,0.0
11.552,8161.0,3.6136709820839314,0.0
11.56,8165.0,5.019704045740355,0.0
11.568,8162.0,5.294484122630365,0.0
11.576,8166.0,4.85858314511529,0.0
11.584,8169.0,5.294279242792072,0.0
11.592,8172.0,5.975078918387453,0.0
11.6,8180.0,7.719119300766806,0.0
11.608,8191.0,11.4619479709811,0.0
11.616,8167.0,9.281773357031398,0.0
11.624,8163.0,0.8647722060939032,0.0
11.632,8168.0,-4.039837247756168,0.0
11.64,8167.0,-5.510724884954925,0.0
11.648,8253.0,11.82045559507992,0.0
11.656,8330.0,53.579000929092444,0.0
11.664,8129.0,44.8184246241517,0.0
11.672,8159.0,-2.093008901282701,0.0
11.68,8164.0,-22.368499645295287,0.0
11.688,8169.0,-28.925054629932674,0.0
11.696,8173.0,-26.578503322037022,0.0
11.704,8188.0,-17.279426263130063,0.0
11.712,8192.0,-5.278486780537378,0.0
11.72,8206.0,6.296544782517458,0.0
11.728,8220.0,17.907791936593185,0.0
11.736,8242.0,29.414461404307986,0.0
11.744,8261.0,40.13624101226151,0.0
11.752,8270.0,46.1123789924286,0.0
11.76,8255.0,41.42967125441078,1.0
11.768,8214.0,20.938252281117002,0.0
11.776,8175.0,-10.698891251435953,0.0
11.784,8158.0,-39.227813742610806,0.0
11.792,8158.0,-53.62548589642165,0.0
11.8,8158.0,-54.00998884336104,0.0
11.808,8161.0,-45.43592896534847,0.0
11.816,8163.0,-32.455116834331875,0.0
11.824,8169.0,-18.223300550675503,0.0
11.832,8162.0,-7.2480612257022585,0.0
11.84,8161.0,-1.2928377429971079,0.0
11.848,8154.0,0.790674474300431,0.0
11.856,8159.0,1.4943829331225515,0.0
11.864,8163.0,3.5226962826698127,0.0
11.872,8161.0,4.596756765814689,0.0
11.88,8172.0,6.373739200165346,0.0
11.888,8182.0,10.748626897615168,0.0
11.896,8184.0,14.157919452253736,0.0
11.904,8167.0,10.963149382435176,0.0
11.912,8162.0,2.9170066458354995,0.0
11.92,8165.0,-2.6923231906296223,0.0
11.928,8161.0,-5.805784458210837,0.0
11.936,8264.0,13.458926739000162,0.0
11.944,8295.0,50.18782348175682,0.0
11.952,8122.0,35.289448983107604,0.0
11.96,8152.0,-8.08674001272243,0.0
11.968,8165.0,-23.728365992399404,0.0
11.976,8166.0,-26.521085908234454,0.0
11.984,8178.0,-21.495875481895155,0.0
11.992,8182.0,-11.996132682500502,0.0
12.0,8192.0,-1.69903360133344,0.0
12.008,8209.0,10.164369624030314,0.0
12.016,8218.0,20.951149755449933,0.0
12.024,8239.0,30.28301687185376,0.0
12.032,8267.0,41.22134528817469,0.0
12.04,8268.0,47.36533608468153,0.0
12.048,8249.0,40.14032324949244,0.0
12.056,8208.0,17.523666312104297,0.0
12.064,8175.0,-13.626842966072445,0.0
12.072,8165.0,-38.768148005636704,0.0
12.08,8155.0,-51.844982007670524,0.0
12.088,8160.0,-52.73979297634696,0.0
12.096,8163.0,-43.63860098575469,0.0
12.104,8167.0,-30.209938280204824,0.0
12.112,8166.0,-17.075163596305174,0.0
12.12,8168.0,-6.514182330529366,0.0
12.128,8181.0,3.7837038749917156,0.0
12.136,8183.0,12.364714996049088,0.0
12.144,8189.0,17.199280680817992,0.0
12.152,8191.0,19.085227488486453,0.0
12.16,8194.0,18.328531683668643,0.0
12.168,8195.0,15.919404585836219,0.0
12.176,8213.0,15.962796814113517,0.0
12.184,8201.0,14.794115438738345,0.0
12.192,8185.0,6.139573597184153,0.0
12.2,8180.0,-4.199857315951931,0.0
12.208,8183.0,-10.086433418993693,0.0
12.216,8175.0,-13.060026581968714,0.0
12.224,8442.0,40.075363000966945,0.0
12.232,8172.0,64.81074426901455,0.0
12.24,8157.0,11.387399223617422,0.0
12.248,8176.0,-21.116339798421905,1.0
12.256,8180.0,-32.43859215190378,0.0
12.264,8183.0,-32.78637429953983,0.0
12.272,8194.0,-25.161039211235902,0.0
12.28,8199.0,-13.567904890297086,0.0
12.288,8205.0,-2.4073807682848383,0.0
12.296,8221.0,9.05254027275646,0.0
12.304,8237.0,20.995073104450057,0.0
12.312,8262.0,33.25110023156799,0.0
12.32,8274.0,43.01716569482892,0.0
12.328,8269.0,43.7009964083195,0.0
12.336,8242.0,30.9421995083203,0.0
12.344,8199.0,4.404407683957061,0.0
12.352,8174.0,-25.850214895361887,0.0
12.36,8166.0,-46.56547831247076,0.0
12.368,8162.0,-54.208184691271754,0.0
12.376,8168.0,-50.100866351341665,0.0
12.384,8169.0,-38.64581658329985,0.0
12.392,8174.0,-24.786352140640474,0.0
12.4,8170.0,-12.627683344139314,0.0
12.408,8169.0,-4.5440649387003305,0.0
12.416,8171.0,1.1298083643689552,0.0
12.424,8169.0,4.314035398153919,0.0
12.432,8171.0,5.543123329460286,0.0
12.44,8170.0,5.633901805213327,0.0
12.448,8181.0,6.876430275846815,0.0
12.456,8178.0,8.203118163778527,0.0
12.464,8197.0,11.012842843423414,0.0
12.472,8182.0,11.82203571920877,0.0
12.48,8171.0,5.196409464007047,0.0
12.488,8168.0,-2.3700235309288473,0.0
12.496,8170.0,-6.6897768126139,0.0
12.504,8178.0,-6.187214411467039,0.0
12.512,8484.0,59.19851372971948,0.0
12.52,8155.0,84.19341316914506,0.0
12.528,8156.0,19.19996990949994,0.0
12.536,8164.0,-20.30927993191267,0.0
12.544,8171.0,-37.531346230956615,0.0
12.552,8177.0,-39.370342043195706,0.0
12.56,8185.0,-31.62870103410569,0.0
12.568,8191.0,-19.39481135874439,0.0
12.576,8202.0,-5.7461128323313915,0.0
12.584,8218.0,8.713005760507713,0.0
12.592,8235.0,22.68503734389924,0.0
12.6,8257.0,35.476486512192196,1.0
12.608,8270.0,44.813203211879454,0.0
12.616,8264.0,44.97081728735361,0.0
12.624,8227.0,29.46098783429329,0.0
12.632,8185.0,-0.317898352075872,0.0
12.64,8169.0,-29.730333216143435,0.0
12.648,8160.0,-47.72484987618327,0.0
12.656,8157.0,-53.58273669460982,0.0
12.664,8163.0,-48.31040348358056,0.0
12.672,8163.0,-36.64212197014581,0.0
12.68,8166.0,-23.573238851603037,0.0
12.688,8168.0,-11.248837543197169,0.0
12.696,8166.0,-2.2547503805337783,0.0
12.704,8167.0,3.20188388707993,0.0
12.712,8167.0,6.147785830808971,0.0
12.72,8168.0,7.162211310846942,0.0
12.728,8170.0,7.2891675665753155,0.0
12.736,8175.0,7.6892312164372925,0.0
12.744,8177.0,8.190155757485627,0.0
12.752,8197.0,11.739295554734781,0.0
12.76,8184.0,13.488540979272784,0.0
12.768,8170.0,6.961897559358022,0.0
12.776,8170.0,-0.8136659841165965,0.0
12.784,8167.0,-5.90166255055442,0.0
12.792,8160.0,-10.058941872102196,0.0
12.8,8450.0,46.82463758605081,0.0
12.808,8189.0,79.29104885267088,0.0
12.816,8153.0,25.792827218695038,0.0
12.824,8163.0,-15.068251341514724,0.0
12.832,8169.0,-33.680087888567414,0.0
12.84,8174.0,-37.33348940582937,0.0
12.848,8179.0,-31.790899138418354,0.0
12.856,8190.0,-20.42433165061516,0.0
12.864,8198.0,-6.723876959293875,0.0
12.872,8211.0,6.6882857810039695,0.0
12.88,8232.0,20.552421671132834,0.0
12.888,8254.0,34.42059450976876,0.0
12.896,8268.0,44.758470328068825,0.0
12.904,8269.0,47.15087300140499,1.0
12.912,8231.0,33.85797660817161,0.0
12.92,8188.0,4.314943932093001,0.0
12.928,8165.0,-27.294807723123085,0.0
12.936,8159.0,-47.77527162055026,0.0
12.944,8158.0,-54.07419488373466,0.0
12.952,8159.0,-49.60108150955875,0.0
12.96,8163.0,-38.414076091125025,0.0
12.968,8165.0,-24.748267228881787,0.0
12.976,8166.0,-12.30129849693435,0.0
12.984,8167.0,-2.6665580101725936,0.0
12.992,8168.0,3.8442949474454053,0.0
13.0,8169.0,7.520563811325474,0.0
13.008,8166.0,8.145895265563922,0.0
13.016,8167.0,6.872099735972824,0.0
13.024,8175.0,6.915595143845167,0.0
13.032,8178.0,8.14014147181706,0.0
13.04,8188.0,10.286105338236666,0.0
13.048,8191.0,12.651640565871503,0.0
13.056,8172.0,8.863662967797609,0.0
13.064,8167.0,0.3764035500371392,0.0
13.072,8167.0,-5.721519020081814,0.0
13.08,8169.0,-8.051768909177781,0.0
13.088,8291.0,17.124170566754174,0.0
13.096,8344.0,65.16959753771289,0.0
13.104,8153.0,55.509589872953256,0.0
13.112,8162.0,4.198018212235411,0.0
13.12,8164.0,-24.536720720490848,0.0
13.128,8170.0,-36.175934879076976,0.0
13.136,8175.0,-35.327339147447674,0.0
13.144,8185.0,-26.40492706624491,0.0
13.152,8194.0,-13.243212996151897,0.0
13.16,8204.0,0.43014607430654905,0.0
13.168,8221.0,13.967455120694012,0.0
13.176,8246.0,28.436400932962442,0.0
13.184,8267.0,42.07985552094169,0.0
13.192,8272.0,49.08059071810544,0.0
13.2,8246.0,41.48929978774754,0.0
13.208,8200.0,15.999895931313631,0.0
13.216,8170.0,-17.027131211866163,1.0
13.224,8159.0,-42.35408034129523,0.0
13.232,8159.0,-53.158326864782566,0.0
13.24,8158.0,-51.69281146566709,0.0
13.248,8164.0,-41.967363580334904,0.0
13.256,8165.0,-28.422896284849912,0.0
13.264,8164.0,-16.103474090074542,0.0
13.272,8168.0,-5.7634088920301565,0.0
13.28,8169.0,2.2469935572246413,0.0
13.288,8168.0,6.643661614159555,0.0
13.296,8169.0,8.236586335701759,0.0
13.304,8170.0,8.338477329717989,0.0
13.312,8172.0,7.747426382334197,0.0
13.32,8179.0,8.061985959069034,0.0
13.328,8181.0,8.864431162049641,0.0
13.336,8194.0,11.059555901453678,0.0
13.344,8190.0,12.51969725633785,0.0
13.352,8174.0,7.39907208046543,0.0
13.36,8171.0,-0.6327595305231171,0.0
13.368,8169.0,-6.308341811894479,0.0
13.376,8161.0,-10.751460980313595,0.0
13.384,8370.0,29.315399741948113,0.0
13.392,8275.0,71.8566084646991,0.0
13.4,8165.0,44.23943018761224,0.0
13.408,8163.0,-1.6822356327056696,0.0
13.416,8167.0,-28.176584665619202,0.0
13.424,8170.0,-38.143290418150855,0.0
13.432,8177.0,-36.211602475430254,0.0
13.44,8188.0,-25.90168421537419,0.0
13.448,8196.0,-11.995698834755558,0.0
13.456,8207.0,1.9286831898759829,0.0
13.464,8225.0,15.795852531464107,0.0
13.472,8251.0,30.591272198196748,0.0
13.48,8268.0,43.48819649380812,0.0
13.488,8270.0,48.403808021894065,1.0
13.496,8238.0,37.843279217608824,0.0
13.504,8194.0,10.333449434554723,0.0
13.512,8165.0,-22.416451625201717,0.0
13.52,8156.0,-46.149521785509705,0.0
13.528,8154.0,-55.43571719199895,0.0
13.536,8153.0,-53.13575125883267,0.0
13.544,8156.0,-43.310946471895704,0.0
13.552,8159.0,-29.708317467598135,0.0
13.56,8161.0,-16.138109388877865,0.0
13.568,8159.0,-5.665982833899989,0.0
13.576,8158.0,0.7733429493482618,0.0
13.584,8159.0,4.4643016824322785,0.0
13.592,8158.0,5.970287762945418,0.0
13.6,8161.0,6.3643610018054915,0.0
13.608,8160.0,6.041104664768454,0.0
13.616,8168.0,6.364134396878853,0.0
13.624,8171.0,7.837604821756486,0.0
13.632,8189.0,11.811056710243975,0.0
13.64,8171.0,12.370253997711416,0.0
13.648,8159.0,4.696461104619857,0.0
13.656,8156.0,-3.618358663846493,0.0
13.664,8159.0,-7.987143484467197,0.0
13.672,8162.0,-8.134085450930797,0.0
13.68,8490.0,60.635809520548946,0.0
13.688,8186.0,97.01632737941281,0.0
13.696,8150.0,34.360605041899134,0.0
13.704,8148.0,-15.666790476448114,0.0
13.712,8154.0,-42.06043605485593,0.0
13.72,8159.0,-49.045426904953274,0.0
13.728,8165.0,-43.49316428582824,0.0
13.736,8173.0,-30.75527671006239,0.0
13.744,8183.0,-14.881833191747546,0.0
13.752,8197.0,1.6651764883918077,0.0
13.76,8220.0,18.757720822423153,0.0
13.768,8245.0,35.82877104629415,1.0
13.776,8254.0,47.43872543704674,0.0
13.784,8248.0,47.7254650785419,0.0
13.792,8208.0,31.2614606798968,0.0
13.8,8165.0,-0.17189922866305096,0.0
13.808,8149.0,-30.789223139174055,0.0
13.816,8139.0,-49.540069808291264,0.0
13.824,8140.0,-54.957137706694084,0.0
13.832,8143.0,-49.01142867266094,0.0
13.84,8147.0,-36.634329290133564,0.0
13.848,8148.0,-22.73883226603698,0.0
13.856,8148.0,-10.86928204111041,0.0
13.864,8147.0,-2.406038977838307,0.0
13.872,8151.0,3.576795398828608,0.0
13.88,8149.0,6.981351033419742,0.0
13.888,8150.0,7.732043577816967,0.0
13.896,8150.0,7.208033663925107,0.0
13.904,8156.0,7.031117027260052,0.0
13.912,8161.0,8.107797554378976,0.0
13.92,8164.0,9.149713428098266,0.0
13.928,8179.0,12.05611104143236,0.0
13.936,8156.0,10.312694466218318,0.0
13.944,8151.0,1.9976914907485934,0.0
13.952,8153.0,-3.8355636434196185,0.0
13.96,8155.0,-5.886621094548218,0.0
13.968,8186.0,0.534795352637957,0.0
13.976,8432.0,60.84265749642486,0.0
13.984,8135.0,76.8648206743162,0.0
13.992,8147.0,16.460952552020217,0.0
14.0,8149.0,-18.897258636730157,0.0
14.008,8157.0,-34.899990736598966,0.0
14.016,8160.0,-36.825420514316875,0.0
14.024,8170.0,-29.725037376903856,0.0
14.032,8181.0,-16.7288986598453,0.0
14.04,8193.0,-1.8077861931940333,0.0
14.048,8208.0,12.806739101778476,0.0
14.056,8227.0,26.45432048210523,0.0
14.064,8249.0,38.89102416941546,0.0
14.072,8255.0,46.070154994146606,0.0
14.08,8247.0,42.92250019487983,1.0
14.088,8206.0,24.542684281036372,0.0
14.096,8165.0,-6.80073676794791,0.0
14.104,8151.0,-35.54265767372476,0.0
14.112,8143.0,-51.646514017962545,0.0
14.12,8149.0,-53.74868862641824,0.0
14.128,8150.0,-45.4128698372092,0.0
14.136,8154.0,-32.576449129350294,0.0
14.144,8153.0,-19.43313440873999,0.0
14.152,8155.0,-8.509606371925202,0.0
14.16,8150.0,-1.3721956035039966,0.0
14.168,8154.0,2.852597584064597,0.0
14.176,8152.0,5.327247494497215,0.0
14.184,8152.0,5.574476123035538,0.0
14.192,8160.0,6.509936942349441,0.0
14.2,8163.0,8.32349271567523,0.0
14.208,8170.0,10.177095111384688,0.0
14.216,8181.0,13.40775960581982,0.0
14.224,8160.0,11.242586404394615,0.0
14.232,8156.0,3.1500771346115926,0.0
14.24,8154.0,-3.339213327478774,0.0
14.248,8156.0,-6.670704853754842,0.0
14.256,8237.0,9.327382560132719,0.0
14.264,8334.0,53.74003051608338,0.0
14.272,8118.0,47.54617626160689,0.0
14.28,8151.0,-0.7124713114633323,0.0
14.288,8156.0,-21.381105543082185,0.0
14.296,8158.0,-28.93276801162847,0.0
14.304,8168.0,-26.560649716571106,0.0
14.312,8182.0,-16.227655079427905,0.0
14.32,8189.0,-3.366117722983745,0.0
14.328,8200.0,8.427932282165102,0.0
14.336,8216.0,19.64126225480186,0.0
14.344,8237.0,30.85409042051174,0.0
14.352,8258.0,41.38812883970991,0.0
14.36,8260.0,46.041931897591894,0.0
14.368,8243.0,38.749170658932144,1.0
14.376,8198.0,15.8947609319805,0.0
14.384,8166.0,-15.762296144519723,0.0
14.392,8150.0,-41.90091693080444,0.0
14.4,8147.0,-54.88829625036783,0.0
14.408,8152.0,-53.83869573633751,0.0
14.416,8145.0,-45.46398361415049,0.0
14.424,8154.0,-33.20971447428428,0.0
14.432,8159.0,-18.067363662924663,0.0
14.44,8154.0,-6.372976767855107,0.0
14.448,8158.0,1.3049820394755898,0.0
14.456,8159.0,6.6693676612419495,0.0
14.464,8153.0,7.809197493585771,0.0
14.472,8156.0,6.686421988738175,0.0
14.48,8166.0,7.664584625596262,0.0
14.488,8173.0,10.55414091158923,0.0
14.496,8180.0,13.52309893790266,0.0
14.504,8165.0,11.594267807132155,0.0
14.512,8155.0,3.588211796584119,0.0
14.52,8158.0,-3.12067756108695,0.0
14.528,8160.0,-5.593667992342716,0.0
14.536,8245.0,11.566047350051122,0.0
14.544,8330.0,54.6918655472889,0.0
14.552,8126.0,47.59267286928889,0.0
14.56,8150.0,-0.5955373165570563,0.0
14.568,8161.0,-21.853146040250067,0.0
14.576,8167.0,-27.63855189833498,0.0
14.584,8170.0,-25.03099326762208,0.0
14.592,8179.0,-17.242283468640153,0.0
14.6,8195.0,-4.9143990338322965,0.0
14.608,8206.0,8.637494653763497,0.0
14.616,8219.0,20.245735880218717,0.0
14.624,8242.0,31.396167749585175,0.0
14.632,8261.0,41.81111978051035,0.0
14.64,8267.0,46.73896657390742,0.0
14.648,8248.0,39.9111973128845,0.0
14.656,8201.0,16.338402821032105,0.0
14.664,8169.0,-16.219368816596216,0.0
14.672,8157.0,-42.0041698000814,0.0
14.68,8156.0,-53.54084137205041,0.0
14.688,8157.0,-52.24618640052972,0.0
14.696,8160.0,-42.74218774282599,0.0
14.704,8162.0,-29.61981431543063,0.0
14.712,8163.0,-16.755648364254284,0.0
14.72,8166.0,-5.790244464552643,0.0
14.728,8166.0,2.185449202875134,0.0
14.736,8166.0,6.570921394014931,0.0
14.744,8165.0,7.963952350644149,0.0
14.752,8173.0,9.010465153299265,0.0
14.76,8175.0,10.306286470497753,0.0
14.768,8179.0,10.735883328108685,0.0
14.776,8190.0,12.426771932731526,0.0
14.784,8174.0,10.521211240348748,0.0
14.792,8170.0,3.7131094915184804,0.0
14.8,8168.0,-2.1019468311990295,0.0
14.808,8171.0,-5.017980779568461,0.0
14.816,8223.0,5.254812003033521,0.0
14.824,8396.0,56.50111866180646,0.0
14.832,8139.0,61.080594195397,0.0
14.84,8165.0,7.334859019774967,0.0
14.848,8170.0,-19.22900580873261,1.0
14.856,8174.0,-30.184780006773963,0.0
14.864,8183.0,-29.431727155666977,0.0
14.872,8188.0,-21.663964167437825,0.0
14.88,8200.0,-10.31249525125645,0.0
14.888,8211.0,2.663159713980349,0.0
14.896,8228.0,15.653597301986565,0.0
14.904,8249.0,28.726281881123896,0.0
14.912,8271.0,40.8871380314622,0.0
14.92,8278.0,47.80479947933077,0.0
14.928,8261.0,42.60511294846265,0.0
14.936,8217.0,20.608238612755713,0.0
14.944,8184.0,-11.256292298902736,0.0
14.952,8167.0,-38.60937778734433,0.0
14.96,8168.0,-52.20112324243382,0.0
14.968,8164.0,-52.93785513207058,0.0
14.976,8170.0,-44.93895181991638,0.0
14.984,8173.0,-31.556430637846915,0.0
14.992,8172.0,-18.44910066446141,0.0
15.0,8179.0,-6.674540956976671,0.0
15.008,8174.0,1.709455082919476,0.0
15.016,8173.0,5.182758005176311,0.0
15.024,8172.0,6.042494690586182,0.0
15.032,8172.0,5.430527207165824,0.0
15.04,8181.0,6.083986041381422,0.0
15.048,8184.0,7.99964631421517,0.0
15.056,8192.0,10.167032903877725,0.0
15.064,8196.0,12.358989456937707,0.0
15.072,8175.0,8.308426254995311,0.0
15.08,8172.0,-0.2499454166124906,0.0
15.088,8174.0,-5.477758462783186,0.0
15.096,8173.0,-7.534684815886976,0.0
15.104,8281.0,14.251387683594885,0.0
15.112,8338.0,58.6845924641143,0.0
15.12,8148.0,48.8930299872743,0.0
15.128,8169.0,1.1627163205241686,0.0
15.136,8171.0,-22.542275053146113,0.0
15.144,8178.0,-31.304985477603395,0.0
15.152,8186.0,-28.67652030599288,0.0
15.16,8195.0,-19.301237362796655,0.0
15.168,8202.0,-7.5616018916693974,0.0
15.176,8213.0,4.2050421093235855,0.0
15.184,8232.0,16.655306684153402,0.0
15.192,8253.0,29.66526451644313,0.0
15.2,8273.0,41.2380616727371,0.0
15.208,8276.0,46.52893688906602,0.0
15.216,8254.0,38.721900072376,1.0
15.224,8215.0,15.771783983522027,0.0
15.232,8181.0,-15.106025623483447,0.0
15.24,8169.0,-40.474697449636096,0.0
15.248,8168.0,-51.99715698540081,0.0
15.256,8168.0,-51.132438637250516,0.0
15.264,8172.0,-42.05156109681775,0.0
15.272,8176.0,-28.671225479045006,0.0
15.28,8174.0,-16.002619202294,0.0
15.288,8177.0,-5.87993955386014,0.0
15.296,8176.0,1.4066663906357917,0.0
15.304,8174.0,4.889783432239938,0.0
15.312,8175.0,6.00404339932652,0.0
15.32,8174.0,5.752731058996233,0.0
15.328,8181.0,5.957728370296763,0.0
15.336,8186.0,7.627311391027661,0.0
15.344,8186.0,8.479813722878134,0.0
15.352,8201.0,10.76285470937114,0.0
15.36,8181.0,9.459761450465294,0.0
15.368,8176.0,2.147382144002904,0.0
15.376,8177.0,-3.319918699443406,0.0
15.384,8178.0,-5.641330894859038,0.0
15.392,8236.0,5.894830744520732,0.0
15.4,8421.0,61.468672104153484,0.0
15.408,8156.0,68.67150808642009,0.0
15.416,8171.0,11.444636148548625,0.0
15.424,8174.0,-20.45696866041385,0.0
15.432,8181.0,-34.17899899625536,0.0
15.44,8189.0,-34.04773307153437,0.0
15.448,8199.0,-25.13064956754897,0.0
15.456,8207.0,-12.36958314323897,0.0
15.464,8217.0,0.730080148144225,0.0
15.472,8232.0,13.474031262123844,0.0
15.48,8254.0,26.527091260669067,0.0
15.488,8279.0,39.826968019745436,0.0
15.496,8285.0,47.987580313895705,0.0
15.504,8268.0,43.29096030812025,0.0
15.512,8223.0,21.283315306593067,0.0
15.52,8193.0,-10.281333305508724,1.0
15.528,8174.0,-37.40058336337802,0.0
15.536,8169.0,-52.67171302737461,0.0
15.544,8169.0,-54.73888465213531,0.0
15.552,8173.0,-46.84514222372604,0.0
15.56,8175.0,-33.84871452295374,0.0
15.568,8177.0,-20.21358065540244,0.0
15.576,8174.0,-9.28946837153103,0.0
15.584,8173.0,-2.23777662044472,0.0
15.592,8172.0,1.8632539563175214,0.0
15.6,8175.0,4.41470703441064,0.0
15.608,8174.0,5.662912131781468,0.0
15.616,8175.0,5.542534247372714,0.0
15.624,8183.0,6.469736770641703,0.0
15.632,8184.0,7.875901773233181,0.0
15.64,8202.0,11.395141427458611,0.0
15.648,8191.0,13.178881784614532,0.0
15.656,8173.0,6.310984951345063,0.0
15.664,8171.0,-2.7935142095950596,0.0
15.672,8173.0,-7.754370276351665,0.0
15.68,8162.0,-11.351265732077081,0.0
15.688,8420.0,38.70482569674505,0.0
15.696,8233.0,76.94516574362046,0.0
15.704,8158.0,34.36782849079259,0.0
15.712,8160.0,-10.93686720033088,0.0
15.72,8163.0,-35.05032726063973,0.0
15.728,8166.0,-42.771139512775335,0.0
15.736,8172.0,-39.01389813337005,0.0
15.744,8180.0,-28.01669277910605,0.0
15.752,8187.0,-14.200789978529883,0.0
15.76,8199.0,0.004635201901919572,0.0
15.768,8216.0,14.329721387925701,0.0
15.776,8239.0,28.80103181113259,0.0
15.784,8256.0,41.16479753527983,0.0
15.792,8252.0,44.89154972365304,1.0
15.8,8220.0,32.934626334869336,0.0
15.808,8174.0,4.934579164209026,0.0
15.816,8148.0,-27.082402367706663,0.0
15.824,8136.0,-49.674611920558846,0.0
15.832,8135.0,-58.160260620446934,0.0
15.84,8137.0,-54.156576444753,0.0
15.848,8141.0,-42.352223053267835,0.0
15.856,8143.0,-27.72424605425408,0.0
15.864,8140.0,-15.07426245284364,0.0
15.872,8138.0,-6.329151010755822,0.0
15.88,8137.0,-0.8106349948145635,0.0
15.888,8138.0,2.5759081127059744,0.0
15.896,8137.0,4.188166048891617,0.0
15.904,8136.0,4.098075677869701,0.0
15.912,8135.0,3.0148780880836057,0.0
15.92,8143.0,3.3472914851638507,0.0
15.928,8143.0,4.670797915770436,0.0
15.936,8161.0,8.422784178639631,0.0
15.944,8146.0,9.977611642296324,0.0
15.952,8132.0,3.459686440874748,0.0
15.96,8130.0,-4.188346267343604,0.0
15.968,8133.0,-7.872076646976211,0.0
15.976,8120.0,-10.900137225976323,0.0
15.984,8382.0,39.832567453352794,0.0
15.992,8207.0,81.5708896883475,0.0
16.0,8127.0,41.791044755276516,0.0
16.008,8125.0,-4.823373214013145,0.0
16.016,8129.0,-31.25118119210174,0.0
16.024,8136.0,-39.89518625298001,0.0
16.032,8140.0,-36.71134639050683,0.0
16.04,8153.0,-25.789441297468784,0.0
16.048,8165.0,-10.312740318155647,0.0
16.056,8179.0,5.7155097162929,0.0
16.064,8200.0,21.478580477145215,0.0
16.072,8224.0,36.737965309461515,0.0
16.08,8244.0,49.1816674354186,0.0
16.088,8243.0,52.96604672208082,1.0
16.096,8211.0,40.43191732506216,0.0
16.104,8169.0,11.771036961737991,0.0
16.112,8142.0,-21.06034545401144,0.0
16.12,8133.0,-44.63860360763647,0.0
16.128,8134.0,-53.44941400554171,0.0
16.136,8136.0,-49.94364822455782,0.0
16.144,8138.0,-39.48109424479799,0.0
16.152,8139.0,-26.694854695340837,0.0
16.16,8141.0,-14.472936168511069,0.0
16.168,8139.0,-5.050645746763394,0.0
16.176,8141.0,1.287418785429736,0.0
16.184,8137.0,4.4319501683492035,0.0
16.192,8139.0,5.2110832376101826,0.0
16.2,8139.0,5.2904011711962085,0.0
16.208,8148.0,6.373929822402943,0.0
16.216,8149.0,8.091372127845489,0.0
16.224,8154.0,9.106122100844459,0.0
16.232,8165.0,11.594461156418447,0.0
16.24,8147.0,9.878097835296103,0.0
16.248,8142.0,2.6664882101945295,0.0
16.256,8139.0,-3.6371235139135933,0.0
16.264,8140.0,-7.22223988861947,0.0
16.272,8203.0,4.827757767641515,0.0
16.28,8369.0,58.00705021880481,0.0
16.288,8115.0,62.684170066830575,0.0
16.296,8135.0,8.140158075015961,0.0
16.304,8133.0,-21.673809904551263,0.0
16.312,8143.0,-34.385329414205216,0.0
16.32,8152.0,-32.80796362882802,0.0
16.328,8154.0,-24.653728502491276,0.0
16.336,8166.0,-13.233319511078662,0.0
16.344,8176.0,0.02163711035086635,0.0
16.352,8192.0,13.169137594620679,0.0
16.36,8214.0,26.711382328561285,0.0
16.368,8236.0,39.65971895961252,0.0
16.376,8245.0,47.63778793323354,0.0
16.384,8222.0,42.27334228941004,0.0
16.392,8183.0,20.025029209581135,0.0
16.4,8148.0,-11.286878258510797,1.0
16.408,8135.0,-37.89990431238516,0.0
16.416,8132.0,-51.161544390987956,0.0
16.424,8133.0,-51.65636410540105,0.0
16.432,8138.0,-42.89148020012135,0.0
16.44,8141.0,-29.57068104720838,0.0
16.448,8146.0,-15.575111510990155,0.0
16.456,8143.0,-4.528182366316059,0.0
16.464,8140.0,1.4656742670763379,0.0
16.472,8142.0,4.583916855355255,0.0
16.48,8145.0,6.754568601422534,0.0
16.488,8142.0,7.014216138172742,0.0
16.496,8153.0,7.738739899103621,0.0
16.504,8152.0,9.0369459871672,0.0
16.512,8172.0,12.31631091013719,0.0
16.52,8164.0,14.840033701615084,0.0
16.528,8145.0,8.566512670691509,0.0
16.536,8143.0,-0.732739070240541,0.0
16.544,8149.0,-5.3040060299617835,0.0
16.552,8143.0,-7.203295853919144,0.0
16.56,8402.0,44.45368049868375,0.0
16.568,8153.0,70.30683672352734,0.0
16.576,8131.0,19.571480995941783,0.0
16.584,8146.0,-14.830698039530944,0.0
16.592,8149.0,-29.25016629173365,0.0
16.6,8158.0,-30.89153568919687,0.0
16.608,8170.0,-22.88840009673254,0.0
16.616,8178.0,-10.59919079806491,0.0
16.624,8181.0,0.5228988207106795,0.0
16.632,8198.0,11.107223138135623,0.0
16.64,8224.0,24.46772440351174,0.0
16.648,8244.0,38.057344919867546,0.0
16.656,8254.0,46.45330611973873,0.0
16.664,8260.0,47.64460740251434,0.0
16.672,8225.0,35.20093225845358,0.0
16.68,8183.0,6.773722998188077,0.0
16.688,8164.0,-23.52740833551161,0.0
16.696,8152.0,-44.213740196341405,0.0
16.704,8150.0,-52.604489406136054,0.0
16.712,8158.0,-48.36549820042978,0.0
16.72,8159.0,-36.68707796309104,0.0
16.728,8166.0,-22.58387883927753,0.0
16.736,8164.0,-9.79778340628036,0.0
16.744,8161.0,-1.7721521556172775,0.0
16.752,8160.0,2.4256688221037166,0.0
16.76,8166.0,5.561997324554568,0.0
16.768,8159.0,6.369251560769044,0.0
16.776,8172.0,7.106811615133665,0.0
16.784,8179.0,10.551543375442634,0.0
16.792,8194.0,15.483631673545688,0.0
16.8,8185.0,17.278764185480895,0.0
16.808,8169.0,10.6132173861497,0.0
16.816,8171.0,2.2019234290919485,0.0
16.824,8169.0,-3.1063395324399607,0.0
16.832,8165.0,-7.000484703777147,0.0
16.84,8440.0,47.123403758272616,0.0
16.848,8163.0,71.57911628792999,0.0
16.856,8154.0,16.759909699054106,0.0
16.864,8169.0,-16.975273892332552,1.0
16.872,8176.0,-29.857935828584914,0.0
16.88,8182.0,-30.29399464449716,0.0
16.888,8191.0,-22.894439582416,0.0
16.896,8198.0,-11.778474454238449,0.0
16.904,8210.0,0.4629604126396316,0.0
16.912,8224.0,12.94415598038563,0.0
16.92,8240.0,24.49205235904492,0.0
16.928,8264.0,35.780207982643105,0.0
16.936,8277.0,44.590433247040664,0.0
16.944,8276.0,45.491959833288774,0.0
16.952,8241.0,31.773173421532192,0.0
16.96,8206.0,4.541659928934678,0.0
16.968,8181.0,-24.509630967297653,0.0
16.976,8172.0,-44.920795182181564,0.0
16.984,8173.0,-51.81580787244684,0.0
16.992,8178.0,-46.8118139846506,0.0
17.0,8184.0,-34.50792763968707,0.0
17.008,8184.0,-20.773815450136226,0.0
17.016,8186.0,-9.093326869311795,0.0
17.024,8184.0,-0.8068494928559176,0.0
17.032,8182.0,3.398884176030606,0.0
17.04,8181.0,4.7579347016146585,0.0
17.048,8184.0,5.248917529600476,0.0
17.056,8191.0,6.786494354701517,0.0
17.064,8189.0,7.68840622734956,0.0
17.072,8202.0,9.30345135529069,0.0
17.08,8206.0,12.321187356006249,0.0
17.088,8189.0,9.58192329992562,0.0
17.096,8186.0,2.4231778948751526,0.0
17.104,8185.0,-2.9950780037365803,0.0
17.112,8179.0,-7.1754422020521815,0.0
17.12,8338.0,22.69820515371657,0.0
17.128,8267.0,54.9025876697001,0.0
17.136,8157.0,28.645876867264178,0.0
17.144,8182.0,-8.590921733871937,0.0
17.152,8185.0,-23.589794820012003,0.0
17.16,8190.0,-27.249205705408713,0.0
17.168,8199.0,-22.421862509747598,0.0
17.176,8207.0,-12.694446676787265,0.0
17.184,8217.0,-1.339626197646794,0.0
17.192,8227.0,9.66471554396253,0.0
17.2,8244.0,20.223502410630545,0.0
17.208,8267.0,31.57386285537268,0.0
17.216,8287.0,42.28441246501643,0.0
17.224,8286.0,46.089513475875265,1.0
17.232,8262.0,36.24460907387811,0.0
17.24,8222.0,11.851985537809242,0.0
17.248,8196.0,-17.85452711365747,0.0
17.256,8184.0,-40.47938398913243,0.0
17.264,8184.0,-50.17414452751609,0.0
17.272,8186.0,-47.892015739050976,0.0
17.28,8188.0,-38.46417036056732,0.0
17.288,8190.0,-26.239732611865065,0.0
17.296,8190.0,-14.623365447990864,0.0
17.304,8190.0,-5.536390249625811,0.0
17.312,8191.0,0.8813148366657515,0.0
17.32,8189.0,4.338816488353132,0.0
17.328,8192.0,5.930062296689357,0.0
17.336,8194.0,6.993559126409991,0.0
17.344,8199.0,7.992309056484601,0.0
17.352,8202.0,9.005646323034625,0.0
17.36,8218.0,12.121285693123582,0.0
17.368,8206.0,12.943342993017723,0.0
17.376,8192.0,6.155321318997039,0.0
17.384,8190.0,-2.0611360632090054,0.0
17.392,8192.0,-6.607842857645437,0.0
17.4,8189.0,-8.499231611765481,0.0
17.408,8500.0,54.595441914459116,0.0
17.416,8201.0,86.08382430156166,0.0
17.424,8180.0,26.27841410532642,0.0
17.432,8184.0,-16.547638657491234,0.0
17.44,8188.0,-37.73167172390254,0.0
17.448,8197.0,-41.88339644139546,0.0
17.456,8201.0,-35.33279160887264,0.0
17.464,8210.0,-23.44599573682717,0.0
17.472,8217.0,-9.59266136801807,0.0
17.48,8230.0,4.140554915187295,0.0
17.488,8250.0,18.37652658833008,0.0
17.496,8273.0,32.794493873701185,1.0
17.504,8282.0,42.8868499742689,0.0
17.512,8274.0,42.557600888353136,0.0
17.52,8236.0,26.51281098180948,0.0
17.528,8193.0,-3.5440731738549403,0.0
17.536,8172.0,-33.857594341412096,0.0
17.544,8161.0,-53.189376223304635,0.0
17.552,8159.0,-59.21393361901187,0.0
17.56,8161.0,-53.79931566409982,0.0
17.568,8161.0,-42.031906610117176,0.0
17.576,8158.0,-29.313049603726313,0.0
17.584,8156.0,-18.36843834427964,0.0
17.592,8150.0,-10.745347818798109,0.0
17.6,8149.0,-6.038048857820058,0.0
17.608,8146.0,-3.155923833168572,0.0
17.616,8143.0,-2.1987694868973904,0.0
17.624,8139.0,-2.7294563472519258,0.0
17.632,8145.0,-2.2208842336694943,0.0
17.64,8143.0,-0.7661999629590355,0.0
17.648,8156.0,2.457571942053164,0.0
17.656,8141.0,3.5829067690681313,0.0
17.664,8122.0,-3.2410110526018343,0.0
17.672,8114.0,-12.301411527772643,0.0
17.68,8114.0,-17.429084839234065,0.0
17.688,8099.0,-20.88363976130995,0.0
17.696,8361.0,30.701852042390783,0.0
17.704,8162.0,69.4256156240724,0.0
17.712,8091.0,26.639820213276607,0.0
17.72,8093.0,-16.799296719403856,0.0
17.728,8096.0,-38.920643065449894,0.0
17.736,8100.0,-44.67223616769684,0.0
17.744,8104.0,-39.66647396137614,0.0
17.752,8112.0,-28.240558898801282,0.0
17.76,8119.0,-14.137177137357867,0.0
17.768,8134.0,0.8415206419197148,0.0
17.776,8153.0,16.518541378723967,0.0
17.784,8175.0,31.66183354448208,0.0
17.792,8191.0,43.58067520457553,0.0
17.8,8187.0,46.473723640260005,1.0
17.808,8155.0,33.78387298567759,0.0
17.816,8116.0,6.651723792108442,0.0
17.824,8090.0,-23.682217930728484,0.0
17.832,8083.0,-44.77308448827807,0.0
17.84,8083.0,-51.8881658838327,0.0
17.848,8087.0,-47.411951585537736,0.0
17.856,8090.0,-36.14640857290692,0.0
17.864,8092.0,-22.982258693344875,0.0
17.872,8096.0,-10.48681552283847,0.0
17.88,8096.0,-0.6899027204992763,0.0
17.888,8091.0,4.187068633782246,0.0
17.896,8088.0,4.802085831296154,0.0
17.904,8085.0,3.2119481488766723,0.0
17.912,8082.0,0.558769147684643,0.0
17.92,8085.0,-1.0950325377930312,0.0
17.928,8090.0,-0.2726616758088767,0.0
17.936,8089.0,1.0722291218155533,0.0
17.944,8109.0,5.586748393154494,0.0
17.952,8090.0,7.613911472455584,0.0
17.96,8082.0,2.1422912696505136,0.0
17.968,8084.0,-2.6442174865280776,0.0
17.976,8087.0,-4.052552170485569,0.0
17.984,8097.0,-1.6151135216618968,0.0
17.992,8408.0,65.65181855110563,0.0
18.0,8099.0,95.88838231949694,0.0
18.008,8081.0,32.42605616245851,0.0
18.016,8083.0,-13.29044494586583,0.0
18.024,8088.0,-36.88201423579221,0.0
18.032,8091.0,-43.60787413241337,0.0
18.04,8098.0,-38.931059901224444,0.0
18.048,8109.0,-26.5853766349951,0.0
18.056,8117.0,-11.371787345130315,0.0
18.064,8131.0,3.844219602464591,0.0
18.072,8151.0,19.206339985492605,0.0
18.08,8172.0,33.755898607030986,0.0
18.088,8182.0,43.57601647707975,0.0
18.096,8174.0,43.18558119836348,1.0
18.104,8134.0,26.60079500232291,0.0
18.112,8097.0,-2.971578187537716,0.0
18.12,8077.0,-31.65525159593585,0.0
18.128,8072.0,-48.92693958543259,0.0
18.136,8077.0,-51.72348583939788,0.0
18.144,8081.0,-43.696760294937576,0.0
18.152,8091.0,-29.464611866408177,0.0
18.16,8093.0,-14.128949913633733,0.0
18.168,8098.0,-1.4872433694711162,0.0
18.176,8105.0,8.66613458067286,0.0
18.184,8107.0,15.195644687319827,0.0
18.192,8108.0,17.366249576774635,0.0
18.2,8112.0,17.038517433560855,0.0
18.208,8114.0,15.487261773575483,0.0
18.216,8121.0,14.060507464029797,0.0
18.224,8125.0,13.332297490463361,0.0
18.232,8126.0,11.901805767171481,0.0
18.24,8141.0,12.520174272196755,0.0
18.248,8118.0,9.35326359103351,0.0
18.256,8109.0,-0.47533370382893736,0.0
18.264,8106.0,-8.667493632094647,0.0
18.272,8108.0,-12.402529991228903,0.0
18.28,8152.0,-3.3332164790410843,0.0
18.288,8410.0,64.23456448082129,0.0
18.296,8125.0,88.93919832592678,0.0
18.304,8129.0,32.656714167935206,0.0
18.312,8133.0,-3.9453909118333286,0.0
18.32,8144.0,-21.929135317710234,0.0
18.328,8152.0,-25.358260695532408,0.0
18.336,8166.0,-19.047010019151912,0.0
18.344,8176.0,-7.523575450913995,0.0
18.352,8191.0,5.539548205378651,0.0
18.36,8216.0,20.59723007801108,0.0
18.368,8235.0,35.36877138394175,1.0
18.376,8252.0,46.09714301860254,0.0
18.384,8254.0,49.3347289902938,0.0
18.392,8237.0,40.70519239594546,0.0
18.4,8191.0,16.55935911996903,0.0
18.408,8158.0,-16.370806292848556,0.0
18.416,8140.0,-43.78298640226603,0.0
18.424,8139.0,-57.23820265911195,0.0
18.432,8136.0,-57.33481153569596,0.0
18.44,8130.0,-50.53801910609127,0.0
18.448,8135.0,-39.06054787214612,0.0
18.456,8141.0,-24.10344113135602,0.0
18.464,8142.0,-10.173360913240685,0.0
18.472,8141.0,-0.3927328419576952,0.0
18.48,8143.0,5.6553582338026445,0.0
18.488,8144.0,8.987672736915329,0.0
18.496,8147.0,10.412964064942798,0.0
18.504,8150.0,10.902955691029547,0.0
18.512,8159.0,11.991329047008549,0.0
18.52,8165.0,13.881476597103529,0.0
18.528,8184.0,18.002231647897815,0.0
18.536,8178.0,20.36579930070502,0.0
18.544,8163.0,14.385596442563838,0.0
18.552,8158.0,4.581871624543055,0.0
18.56,8160.0,-2.5236033635831063,0.0
18.568,8148.0,-8.386169743273285,0.0
18.576,8402.0,38.858959964471296,0.0
18.584,8199.0,71.32751682334242,0.0
18.592,8143.0,26.80136086546986,0.0
18.6,8157.0,-12.175371639098557,0.0
18.608,8165.0,-28.885598798488218,0.0
18.616,8170.0,-31.732691147953346,0.0
18.624,8181.0,-25.33659314694637,0.0
18.632,8189.0,-13.83090909121347,0.0
18.64,8201.0,-0.8435209519495857,0.0
18.648,8213.0,11.86830649859371,0.0
18.656,8233.0,24.124311321318828,0.0
18.664,8260.0,37.31710076339186,0.0
18.672,8276.0,48.246517187624704,0.0
18.68,8275.0,50.459926925123455,1.0
18.688,8246.0,37.98958854166449,0.0
18.696,8209.0,11.37112654451812,0.0
18.704,8184.0,-18.76163610692197,0.0
18.712,8173.0,-41.09244645065064,0.0
18.72,8174.0,-50.111759200892266,0.0
18.728,8182.0,-46.00952428584105,0.0
18.736,8185.0,-34.36057329886194,0.0
18.744,8188.0,-21.036129457658262,0.0
18.752,8191.0,-8.740944865709707,0.0
18.76,8188.0,-0.1443625527401764,0.0
18.768,8192.0,5.165829946094618,0.0
18.776,8190.0,7.931669889563182,0.0
18.784,8193.0,8.569149120164866,0.0
18.792,8194.0,8.464172431067254,0.0
18.8,8196.0,7.731723415929082,0.0
18.808,8202.0,7.7607403392592005,0.0
18.816,8218.0,11.095899195372795,0.0
18.824,8212.0,13.429045599383244,0.0
18.832,8190.0,7.052439633651829,0.0
18.84,8188.0,-2.6911274969468195,0.0
18.848,8187.0,-8.658352814448563,0.0
18.856,8180.0,-12.509058138755563,0.0
18.864,8445.0,39.81977461434417,0.0
18.872,8185.0,65.75131631356112,0.0
18.88,8159.0,12.688475926897354,0.0
18.888,8177.0,-22.250929711337903,0.0
18.896,8181.0,-35.04591488759911,0.0
18.904,8182.0,-36.27796954508699,0.0
18.912,8186.0,-30.484932127828188,0.0
18.92,8191.0,-20.598356392344385,0.0
18.928,8202.0,-8.359684651388307,0.0
18.936,8219.0,5.866095586393158,0.0
18.944,8242.0,21.561862207207014,0.0
18.952,8263.0,36.564516164471115,0.0
18.96,8284.0,48.474083363251566,0.0
18.968,8282.0,52.04985423184576,0.0
18.976,8250.0,39.32695893176492,0.0
18.984,8216.0,12.356374053740865,1.0
18.992,8193.0,-17.11250451917863,0.0
19.0,8187.0,-37.87061695742818,0.0
19.008,8190.0,-45.0182003689647,0.0
19.016,8198.0,-40.172669800735775,0.0
19.024,8199.0,-29.377672673555708,0.0
19.032,8202.0,-17.722323936132852,0.0
19.04,8202.0,-7.529553941263657,0.0
19.048,8200.0,-0.7685989663302735,0.0
19.056,8198.0,2.5291440379623964,0.0
19.064,8200.0,4.0959757252044255,0.0
19.072,8198.0,4.401599135284414,0.0
19.08,8201.0,4.119310757394032,0.0
19.088,8206.0,4.962236337502645,0.0
19.096,8209.0,6.342814129950966,0.0
19.104,8215.0,8.036347489756963,0.0
19.112,8195.0,4.959283650333418,0.0
19.12,8187.0,-3.3327958500156,0.0
19.128,8188.0,-9.16153257687256,0.0
19.136,8184.0,-11.832543864231866,0.0
19.144,8272.0,5.543047019993537,0.0
19.152,8342.0,47.258081707527026,0.0
19.16,8143.0,38.40859511927033,0.0
19.168,8167.0,-8.400817287157679,0.0
19.176,8171.0,-29.08974047434549,0.0
19.184,8178.0,-34.66747845633017,0.0
19.192,8184.0,-30.054233856922792,0.0
19.2,8190.0,-20.31778211761275,0.0
19.208,8201.0,-8.006131007998874,0.0
19.216,8212.0,4.983401256793059,0.0
19.224,8228.0,17.425969027781775,0.0
19.232,8253.0,30.518834299483615,0.0
19.24,8271.0,42.419853173169486,0.0
19.248,8273.0,47.11276215844828,0.0
19.256,8254.0,39.27217594511967,0.0
19.264,8215.0,16.83169295383027,0.0
19.272,8184.0,-13.292512717060617,0.0
19.28,8170.0,-38.28615355584907,0.0
19.288,8173.0,-49.510027822076836,0.0
19.296,8175.0,-47.61999982988755,0.0
19.304,8179.0,-38.05668138986471,0.0
19.312,8181.0,-25.405303585051797,0.0
19.32,8180.0,-13.867254889771857,0.0
19.328,8181.0,-4.941232389973493,0.0
19.336,8181.0,1.291052579279949,0.0
19.344,8181.0,4.781076825626542,0.0
19.352,8180.0,5.915902906888732,0.0
19.36,8182.0,5.894417295894527,0.0
19.368,8191.0,7.235356571630064,0.0
19.376,8192.0,8.97442863304218,0.0
19.384,8214.0,13.341202631846727,0.0
19.392,8198.0,15.126826729976983,0.0
19.4,8184.0,7.76041166748314,0.0
19.408,8185.0,-0.42855478069509445,0.0
19.416,8189.0,-4.185017953124088,0.0
19.424,8178.0,-7.20219173105761,0.0
19.432,8456.0,46.65371403625363,0.0
19.44,8212.0,78.37698222267613,0.0
19.448,8177.0,28.25526512388933,0.0
19.456,8187.0,-10.777988048160523,0.0
19.464,8195.0,-28.55070458068394,0.0
19.472,8198.0,-32.485526958734,0.0
19.48,8206.0,-27.64007602991046,0.0
19.488,8214.0,-17.3151093750173,0.0
19.496,8225.0,-4.7020504956940385,0.0
19.504,8240.0,8.781999519117335,0.0
19.512,8257.0,21.96261606049029,1.0
19.52,8274.0,33.37404714980357,0.0
19.528,8287.0,41.19187393460152,0.0
19.536,8285.0,41.817458578347896,0.0
19.544,8253.0,28.90117996743561,0.0
19.552,8212.0,1.9667938994771248,0.0
19.56,8184.0,-28.357103663945963,0.0
19.568,8180.0,-48.5289614408382,0.0
19.576,8181.0,-53.71390398299286,0.0
19.584,8189.0,-46.79790118144274,0.0
19.592,8193.0,-33.16106443790977,0.0
19.6,8193.0,-19.251449587799698,0.0
19.608,8195.0,-7.697977656787316,0.0
19.616,8194.0,0.5061316960859585,0.0
19.624,8196.0,5.485593727138621,0.0
19.632,8195.0,7.803059429373889,0.0
19.64,8194.0,7.581967263814022,0.0
19.648,8196.0,6.505998815163139,0.0
19.656,8205.0,7.130595702022902,0.0
19.664,8205.0,8.25760621569043,0.0
19.672,8224.0,11.55388346646646,0.0
19.68,8211.0,12.977396234677371,0.0
19.688,8193.0,5.518407338176075,0.0
19.696,8195.0,-2.998295275959663,0.0
19.704,8194.0,-7.376181382889172,0.0
19.712,8185.0,-10.889948089948575,0.0
19.72,8453.0,41.59697423569514,0.0
19.728,8242.0,77.97620827137916,0.0
19.736,8182.0,32.30319035596085,0.0
19.744,8187.0,-10.841847426934237,0.0
19.752,8190.0,-33.07959300703942,0.0
19.76,8193.0,-39.98989738223872,0.0
19.768,8202.0,-35.56208964301891,0.0
19.776,8209.0,-24.283045710917804,0.0
19.784,8217.0,-10.866529005583743,0.0
19.792,8230.0,3.0057882257960955,0.0
19.8,8247.0,16.88316552176525,0.0
19.808,8270.0,30.70256937529075,0.0
19.816,8282.0,41.37099896788868,0.0
19.824,8281.0,43.655267943318904,1.0
19.832,8248.0,31.441298919395877,0.0
19.84,8204.0,3.7199422708138172,0.0
19.848,8181.0,-26.926564734321573,0.0
19.856,8173.0,-47.30179896594518,0.0
19.864,8173.0,-53.81457444561465,0.0
19.872,8174.0,-49.30299361825223,0.0
19.88,8174.0,-38.95563555141666,0.0
19.888,8175.0,-26.725790063704835,0.0
19.896,8174.0,-15.441134373631712,0.0
19.904,8178.0,-5.813446899472183,0.0
19.912,8177.0,1.3746412422531193,0.0
19.92,8177.0,5.212952056818267,0.0
19.928,8177.0,6.6925776819639395,0.0
19.936,8178.0,6.757252889425445,0.0
19.944,8183.0,6.996827349214755,0.0
19.952,8194.0,9.346522865579573,0.0
19.96,8197.0,12.179297272610029,0.0
19.968,8217.0,16.706989121199513,0.0
19.976,8201.0,17.6688851620504,0.0
19.984,8195.0,11.06431921546482,0.0
19.992,8194.0,4.050802642397684,0.0
20.0,8194.0,-0.9154298148500857,0.0
20.008,8206.0,-1.2620516459485316,0.0
20.016,8522.0,65.73496907118442,0.0
20.024,8206.0,95.39069945992014,0.0
20.032,8187.0,30.025917401211018,0.0
20.04,8186.0,-17.26900692199706,0.0
20.048,8190.0,-42.008059439791396,0.0
20.056,8195.0,-48.43106924327503,0.0
20.064,8204.0,-42.02669335982796,0.0
20.072,8213.0,-28.189998408965266,0.0
20.08,8219.0,-12.668550963049938,0.0
20.088,8231.0,2.1089241640868295,0.0
20.096,8251.0,17.06618717382821,0.0
20.104,8272.0,31.700786239734953,0.0
20.112,8278.0,41.065572883527466,0.0
20.12,8267.0,39.35636257889382,1.0
20.128,8233.0,23.185112220345445,0.0
20.136,8192.0,-5.216237081713416,0.0
20.144,8175.0,-33.07135293459123,0.0
20.152,8167.0,-49.63833567386132,0.0
20.16,8167.0,-53.544670955072434,0.0
20.168,8171.0,-46.91966377338417,0.0
20.176,8171.0,-35.070867307944354,0.0
20.184,8174.0,-22.13344869743287,0.0
20.192,8172.0,-10.922287761440202,0.0
20.2,8169.0,-3.6575820425698566,0.0
20.208,8166.0,-0.032519393008669795,0.0
20.216,8168.0,1.911966181183061,0.0
20.224,8168.0,3.1806567517742224,0.0
20.232,8167.0,3.2444323329962117,0.0
20.24,8167.0,2.585954045042172,0.0
20.248,8171.0,2.6216732118505206,0.0
20.256,8176.0,4.084028283154112,0.0
20.264,8189.0,8.007090605449093,0.0
20.272,8185.0,10.951921166738884,0.0
20.28,8165.0,6.1298288030584445,0.0
20.288,8161.0,-2.554522854130255,0.0
20.296,8162.0,-7.9160407631407,0.0
20.304,8152.0,-11.72537581777351,0.0
20.312,8379.0,32.13277395826435,0.0
20.32,8255.0,74.24168852380353,0.0
20.328,8152.0,41.51262777103034,0.0
20.336,8156.0,-4.362870769963365,0.0
20.344,8159.0,-29.401996500884934,0.0
20.352,8163.0,-38.32229869336015,0.0
20.36,8170.0,-35.54032881858211,0.0
20.368,8176.0,-25.850832356921728,0.0
20.376,8185.0,-13.136676444217755,0.0
20.384,8199.0,1.0730485682322524,0.0
20.392,8214.0,15.238693590500134,0.0
20.4,8231.0,27.84349326297638,1.0
20.408,8247.0,37.81847598235004,0.0
20.416,8245.0,40.84414850978578,0.0
20.424,8218.0,30.516347332834812,0.0
20.432,8178.0,6.093709060580295,0.0
20.44,8151.0,-22.96183239908214,0.0
20.448,8139.0,-44.63167904401098,0.0
20.456,8142.0,-52.51920869176115,0.0
20.464,8147.0,-47.58694218097685,0.0
20.472,8149.0,-36.02516000196238,0.0
20.48,8149.0,-23.317099955190997,0.0
20.488,8149.0,-12.266426618103424,0.0
20.496,8147.0,-4.279943211569616,0.0
20.504,8152.0,1.705042290497886,0.0
20.512,8154.0,6.416154083013907,0.0
20.52,8153.0,8.433833962787276,0.0
20.528,8153.0,8.14411691575583,0.0
20.536,8150.0,6.125132005584646,0.0
20.544,8151.0,3.593863699738449,0.0
20.552,8156.0,2.7778085855634345,0.0
20.56,8162.0,4.121355434335101,0.0
20.568,8164.0,5.92548728998031,0.0
20.576,8146.0,2.8252608918280657,0.0
20.584,8140.0,-4.339770571299141,0.0
20.592,8136.0,-9.962206166351507,0.0
20.6,8124.0,-15.045730453480019,0.0
20.608,8301.0,17.93862800196098,0.0
20.616,8221.0,54.54299542841454,0.0
20.624,8099.0,26.652629566123778,0.0
20.632,8119.0,-14.721224139179185,0.0
20.64,8118.0,-33.07602600877772,0.0
20.648,8124.0,-37.89480549834593,0.0
20.656,8130.0,-32.54771404880944,0.0
20.664,8136.0,-21.9992254633396,0.0
20.672,8148.0,-8.74810961924959,0.0
20.68,8156.0,4.500911607498438,0.0
20.688,8175.0,17.170091848680386,0.0
20.696,8196.0,30.23146853795197,0.0
20.704,8220.0,42.56603480586341,1.0
20.712,8230.0,50.35339168457722,0.0
20.72,8220.0,47.32465318018126,0.0
20.728,8174.0,26.917640043716347,0.0
20.736,8127.0,-8.23204249433661,0.0
20.744,8108.0,-41.25528639454956,0.0
20.752,8098.0,-60.45511392667754,0.0
20.76,8097.0,-64.89146049211104,0.0
20.768,8098.0,-57.67679718200952,0.0
20.776,8089.0,-46.29998054966677,0.0
20.784,8086.0,-35.00373628887883,0.0
20.792,8079.0,-25.059184712033584,0.0
20.8,8085.0,-15.583025940653215,0.0
20.808,8085.0,-6.39046565344529,0.0
20.816,8098.0,2.6707800841975313,0.0
20.824,8108.0,12.323583048729006,0.0
20.832,8121.0,20.862753115989108,0.0
20.84,8122.0,25.609976130985842,0.0
20.848,8132.0,26.782010394991858,0.0
20.856,8158.0,30.769510304729693,0.0
20.864,8140.0,30.097096822708636,0.0
20.872,8134.0,20.233137686216423,0.0
20.88,8133.0,9.901920250018293,0.0
20.888,8139.0,3.3123114248621732,0.0
20.896,8152.0,2.7947577822185394,0.0
20.904,8449.0,65.3982146766507,0.0
20.912,8123.0,86.58193070024731,0.0
20.92,8137.0,22.24124558988933,0.0
20.928,8153.0,-13.052740138626177,0.0
20.936,8159.0,-27.45197750551324,0.0
20.944,8170.0,-28.332504914113997,0.0
20.952,8187.0,-18.837282124609374,0.0
20.96,8193.0,-5.666949746398359,0.0
20.968,8202.0,6.045651945198642,0.0
20.976,8228.0,19.20640193214217,0.0
20.984,8253.0,34.49707258177614,0.0
20.992,8274.0,47.707624524949324,0.0
21.0,8288.0,55.43781302213961,0.0
21.008,8281.0,53.03451271266135,1.0
21.016,8252.0,36.217717078287706,0.0
21.024,8214.0,7.093103232304657,0.0
21.032,8191.0,-23.66889383693433,0.0
21.04,8185.0,-44.197728413342475,0.0
21.048,8175.0,-52.906363212678116,0.0
21.056,8187.0,-49.62680468553026,0.0
21.064,8188.0,-37.50735910443154,0.0
21.072,8194.0,-23.223274840500608,0.0
21.08,8196.0,-9.620361780066105,0.0
21.088,8198.0,0.7001422748344339,0.0
21.096,8193.0,6.084619052638573,0.0
21.104,8193.0,7.324985552668977,0.0
21.112,8195.0,7.356583634472827,0.0
21.12,8196.0,6.8728282486456465,0.0
21.128,8198.0,6.15763669815783,0.0
21.136,8200.0,5.618306486533129,0.0
21.144,8212.0,7.307757449840892,0.0
21.152,8194.0,5.973148732203981,0.0
21.16,8178.0,-2.667964541074298,0.0
21.168,8177.0,-10.846923782580461,0.0
21.176,8183.0,-13.017920995869872,0.0
21.184,8206.0,-6.4034507843555275,0.0
21.192,8456.0,54.25329974994702,0.0
21.2,8144.0,69.23351029117407,0.0
21.208,8164.0,7.940324057258749,0.0
21.216,8179.0,-22.3616832334626,0.0
21.224,8183.0,-33.01022960389196,0.0
21.232,8188.0,-32.46431451019407,0.0
21.24,8189.0,-25.99368300660535,0.0
21.248,8194.0,-17.000208097558925,0.0
21.256,8200.0,-6.85674058662471,0.0
21.264,8220.0,5.49347361490004,0.0
21.272,8240.0,20.136527463042285,0.0
21.28,8265.0,34.93700721746541,0.0
21.288,8279.0,46.36085601971149,0.0
21.296,8269.0,46.905251673547355,1.0
21.304,8237.0,31.535181946592957,0.0
21.312,8208.0,5.201891959122804,0.0
21.32,8192.0,-20.3537776412918,0.0
21.328,8191.0,-35.854599589328245,0.0
21.336,8187.0,-40.60728374973337,0.0
21.344,8200.0,-35.422762384823955,0.0
21.352,8200.0,-24.330225391797285,0.0
21.36,8203.0,-13.468465477854352,0.0
21.368,8202.0,-4.594258581754502,0.0
21.376,8203.0,1.3504765757727455,0.0
21.384,8210.0,6.295841552643651,0.0
21.392,8212.0,10.104705773566593,0.0
21.4,8213.0,11.43817160154208,0.0
21.408,8220.0,12.127025863325343,0.0
21.416,8227.0,13.556024416413038,0.0
21.424,8230.0,14.388886738182237,0.0
21.432,8243.0,15.968728262694412,0.0
21.44,8224.0,13.256191298901513,0.0
21.448,8220.0,4.943287381503069,0.0
21.456,8218.0,-1.9482159513795523,0.0
21.464,8219.0,-5.932767951469259,0.0
21.472,8251.0,-0.6478205847763547,0.0
21.48,8464.0,52.629607775867726,0.0
21.488,8178.0,61.24456115031762,0.0
21.496,8198.0,2.7100127406347383,0.0
21.504,8211.0,-25.576165405895154,0.0
21.512,8212.0,-35.566704425857324,0.0
21.52,8228.0,-32.60964651719382,0.0
21.528,8228.0,-22.648026837159705,0.0
21.536,8235.0,-11.892927417155079,0.0
21.544,8246.0,-0.05185633934661382,0.0
21.552,8260.0,12.066316215509687,0.0
21.56,8276.0,23.53261225273809,1.0
21.568,8292.0,33.28356541937865,0.0
21.576,8298.0,38.498699802101555,0.0
21.584,8287.0,34.72456024854864,0.0
21.592,8246.0,16.604244270960407,0.0
21.6,8218.0,-10.726237020949611,0.0
21.608,8196.0,-35.478255675738865,0.0
21.616,8196.0,-49.232254509559425,0.0
21.624,8199.0,-49.28925337694773,0.0
21.632,8205.0,-40.01142239818705,0.0
21.64,8205.0,-27.232519597717328,0.0
21.648,8207.0,-15.137724490930395,0.0
21.656,8208.0,-5.076922420830442,0.0
21.664,8206.0,1.4384398771919678,0.0
21.672,8209.0,5.2778307593459886,0.0
21.68,8205.0,6.54395793328581,0.0
21.688,8207.0,5.892000543905397,0.0
21.696,8210.0,5.634641311625273,0.0
21.704,8213.0,5.853966300566071,0.0
21.712,8218.0,6.730550943555954,0.0
21.72,8226.0,8.88444140527372,0.0
21.728,8212.0,7.58545754333295,0.0
21.736,8203.0,0.968276771676301,0.0
21.744,8204.0,-4.726321809609772,0.0
21.752,8208.0,-6.356027727619448,0.0
21.76,8244.0,1.8158486779159375,0.0
21.768,8466.0,59.08299148856713,0.0
21.776,8176.0,70.10055038962878,0.0
21.784,8195.0,10.622722305845627,0.0
21.792,8202.0,-20.851075822488838,0.0
21.8,8207.0,-33.85174904648511,0.0
21.808,8213.0,-34.16069196732042,0.0
21.816,8220.0,-26.508325468461408,0.0
21.824,8228.0,-14.899241140933555,0.0
21.832,8240.0,-1.688730502630733,0.0
21.84,8258.0,12.508999916096627,0.0
21.848,8274.0,25.955230268645437,0.0
21.856,8293.0,37.12271831163116,0.0
21.864,8306.0,44.636536434128175,0.0
21.872,8292.0,42.10846947066989,1.0
21.88,8249.0,22.584086853247754,0.0
21.888,8214.0,-8.322079271796156,0.0
21.896,8197.0,-35.961852382806,0.0
21.904,8194.0,-50.94174382376991,0.0
21.912,8199.0,-51.66885562437233,0.0
21.92,8198.0,-43.44805666278921,0.0
21.928,8201.0,-31.590449833126286,0.0
21.936,8204.0,-18.56259068502959,0.0
21.944,8202.0,-7.839327587412072,0.0
21.952,8201.0,-0.9219753492243399,0.0
21.96,8201.0,3.1044168816417823,0.0
21.968,8200.0,4.810651542609094,0.0
21.976,8198.0,4.477461879054999,0.0
21.984,8197.0,2.988675517964566,0.0
21.992,8199.0,1.8593920574587628,0.0
22.0,8204.0,2.3397356675620813,0.0
22.008,8203.0,3.086281839676758,0.0
22.016,8222.0,6.73728609677778,0.0
22.024,8209.0,9.100836845542744,0.0
22.032,8198.0,4.215622791348778,0.0
22.04,8194.0,-2.3771352851927077,0.0
22.048,8193.0,-6.937183896651504,0.0
22.056,8191.0,-9.195132639082885,0.0
22.064,8485.0,50.51945153535098,0.0
22.072,8202.0,80.42252208023206,0.0
22.08,8182.0,24.010995326932516,0.0
22.088,8187.0,-16.055551264071937,0.0
22.096,8190.0,-35.68222318697826,0.0
22.104,8198.0,-39.632249329075194,0.0
22.112,8202.0,-33.50796158946332,0.0
22.12,8209.0,-22.558556362211675,0.0
22.128,8219.0,-9.18983873510797,0.0
22.136,8232.0,4.808605813038184,0.0
22.144,8250.0,18.691546994776672,0.0
22.152,8277.0,33.26157346618629,0.0
22.16,8288.0,44.59884728511224,0.0
22.168,8284.0,45.97208643142676,0.0
22.176,8249.0,31.846574717688554,0.0
22.184,8209.0,3.3418919276380166,1.0
22.192,8187.0,-26.689051850336682,0.0
22.2,8176.0,-47.14485440952467,0.0
22.208,8177.0,-54.13767416113524,0.0
22.216,8178.0,-49.656704169926115,0.0
22.224,8183.0,-38.252318484979014,0.0
22.232,8184.0,-24.48247565388624,0.0
22.24,8187.0,-11.809977720004099,0.0
22.248,8186.0,-2.1163496640995163,0.0
22.256,8185.0,3.528707927992855,0.0
22.264,8185.0,6.127891084322528,0.0
22.272,8186.0,6.940283923487641,0.0
22.28,8185.0,6.368502747011689,0.0
22.288,8184.0,4.6562104663917125,0.0
22.296,8191.0,4.1634321141661985,0.0
22.304,8197.0,5.8966890734966455,0.0
22.312,8199.0,7.662133311252319,0.0
22.32,8212.0,10.609056637691538,0.0
22.328,8195.0,9.926200727471041,0.0
22.336,8187.0,2.9099110665006265,0.0
22.344,8185.0,-3.723696179675926,0.0
22.352,8191.0,-6.265040978313209,0.0
22.36,8232.0,2.7840048010950795,0.0
22.368,8458.0,62.261827656177275,0.0
22.376,8168.0,74.92203330387474,0.0
22.384,8176.0,13.437361010643144,0.0
22.392,8180.0,-22.51022546503441,0.0
22.4,8183.0,-38.926647194124826,0.0
22.408,8187.0,-41.30344698626914,0.0
22.416,8196.0,-33.79108166185142,0.0
22.424,8204.0,-20.7520403487556,0.0
22.432,8214.0,-6.217103711959453,0.0
22.44,8229.0,8.428940766386631,0.0
22.448,8249.0,22.963189264963376,0.0
22.456,8271.0,36.657863948534896,0.0
22.464,8277.0,44.919530195092875,0.0
22.472,8263.0,41.360728414728555,0.0
22.48,8214.0,20.114332350077802,0.0
22.488,8181.0,-12.252989051587292,1.0
22.496,8163.0,-39.956613839029615,0.0
22.504,8161.0,-54.36861406735147,0.0
22.512,8162.0,-54.85322443603013,0.0
22.52,8162.0,-46.619125101841064,0.0
22.528,8166.0,-33.86427940016824,0.0
22.536,8166.0,-20.369656909507057,0.0
22.544,8168.0,-8.892077347016766,0.0
22.552,8167.0,-0.5518110082105068,0.0
22.56,8168.0,4.464269816922524,0.0
22.568,8169.0,7.162537397864298,0.0
22.576,8169.0,7.876664008843136,0.0
22.584,8172.0,7.717704546444111,0.0
22.592,8175.0,7.679406023293495,0.0
22.6,8176.0,7.309671040257626,0.0
22.608,8181.0,7.2085829174372975,0.0
22.616,8186.0,8.098901554668146,0.0
22.624,8189.0,9.031952052504039,0.0
22.632,8205.0,12.096121700849608,0.0
22.64,8186.0,11.461449280307079,0.0
22.648,8180.0,4.2408934538236736,0.0
22.656,8182.0,-1.4895041602139827,0.0
22.664,8183.0,-4.0397229771097045,0.0
22.672,8228.0,4.462389422768865,0.0
22.68,8460.0,65.40530210246311,0.0
22.688,8173.0,80.29407904582172,0.0
22.696,8177.0,19.10861377524975,0.0
22.704,8176.0,-19.360558438789212,0.0
22.712,8183.0,-37.95006933894433,0.0
22.72,8190.0,-40.329985444053364,0.0
22.728,8197.0,-32.7627505377111,0.0
22.736,8205.0,-20.25576822922062,0.0
22.744,8217.0,-5.702129473050263,0.0
22.752,8235.0,9.898403356259678,0.0
22.76,8257.0,25.7958509401426,0.0
22.768,8277.0,39.86725437019368,0.0
22.776,8284.0,47.660835082170934,0.0
22.784,8272.0,44.02249658344613,0.0
22.792,8232.0,24.57281622950063,0.0
22.8,8195.0,-6.386385123128548,1.0
22.808,8177.0,-34.96389973404871,0.0
22.816,8173.0,-51.05827300155647,0.0
22.824,8172.0,-53.85692608834188,0.0
22.832,8176.0,-46.733796743397534,0.0
22.84,8178.0,-34.20998963883403,0.0
22.848,8179.0,-21.003890065150244,0.0
22.856,8181.0,-9.396484423252332,0.0
22.864,8178.0,-1.3115667372039752,0.0
22.872,8177.0,2.8514859547256037,0.0
22.88,8179.0,5.085490349651309,0.0
22.888,8176.0,5.431355678079626,0.0
22.896,8177.0,4.403840584866657,0.0
22.904,8177.0,3.332796463728073,0.0
22.912,8178.0,2.3983922780405464,0.0
22.92,8186.0,3.3208700230795785,0.0
22.928,8186.0,4.997345341805385,0.0
22.936,8187.0,5.435454365919213,0.0
22.944,8203.0,8.343586294511624,0.0
22.952,8181.0,7.572659611397285,0.0
22.96,8174.0,0.04390635648292118,0.0
22.968,8174.0,-5.845348398559054,0.0
22.976,8173.0,-8.646320963335484,0.0
22.984,8235.0,3.470423076504858,0.0
22.992,8426.0,61.79819697252333,0.0
23.0,8157.0,70.98834590569209,0.0
23.008,8162.0,11.725296070363811,0.0
23.016,8163.0,-23.874662238822566,0.0
23.024,8168.0,-40.082933347653125,0.0
23.032,8175.0,-41.139822455565536,0.0
23.04,8182.0,-32.667370714390245,0.0
23.048,8191.0,-19.43520454484883,0.0
23.056,8201.0,-4.781401213143226,0.0
23.064,8217.0,9.921572211813782,0.0
23.072,8238.0,24.67178949880349,0.0
23.08,8258.0,38.03084298063118,0.0
23.088,8264.0,45.477261925997254,0.0
23.096,8246.0,40.534562224948104,0.0
23.104,8205.0,19.412191054700315,0.0
23.112,8167.0,-12.162426847897223,1.0
23.12,8151.0,-40.023880864770945,0.0
23.128,8146.0,-54.723323388394874,0.0
23.136,8147.0,-55.9370510096669,0.0
23.144,8148.0,-47.76552869085822,0.0
23.152,8151.0,-34.87388261727892,0.0
23.16,8150.0,-21.55389049626433,0.0
23.168,8150.0,-10.612945729567855,0.0
23.176,8146.0,-3.350644486782585,0.0
23.184,8146.0,0.635062451800195,0.0
23.192,8146.0,2.8959200008048356,0.0
23.2,8147.0,3.998232598303275,0.0
23.208,8146.0,4.0439591962615395,0.0
23.216,8144.0,2.8449874110963265,0.0
23.224,8145.0,1.5002829774239217,0.0
23.232,8153.0,2.316273803007334,0.0
23.24,8157.0,4.899284875009016,0.0
23.248,8158.0,6.705588070516114,0.0
23.256,8171.0,9.617398041959632,0.0
23.264,8150.0,8.246920002408842,0.0
23.272,8145.0,0.8742697027284976,0.0
23.28,8146.0,-4.435656433499844,0.0
23.288,8147.0,-6.494838476452969,0.0
23.296,8226.0,9.616124776808192,0.0
23.304,8372.0,63.65388933198096,0.0
23.312,8128.0,65.9395724621736,0.0
23.32,8140.0,9.896312958372391,0.0
23.328,8141.0,-22.092065458666184,0.0
23.336,8143.0,-37.04761935893657,0.0
23.344,8150.0,-38.43674547577052,0.0
23.352,8160.0,-29.95769405687497,0.0
23.36,8170.0,-16.3152405164808,0.0
23.368,8181.0,-1.4832156345605654,0.0
23.376,8199.0,13.438016330524306,0.0
23.384,8220.0,28.19277857227894,0.0
23.392,8239.0,40.81639560512667,0.0
23.4,8247.0,47.609856814241766,0.0
23.408,8229.0,42.366274075959154,0.0
23.416,8186.0,20.379650387754054,0.0
23.424,8153.0,-11.239860810525897,1.0
23.432,8137.0,-38.24623242770167,0.0
23.44,8136.0,-51.89228981811516,0.0
23.448,8139.0,-51.686460367695645,0.0
23.456,8141.0,-42.70695157712066,0.0
23.464,8143.0,-30.104403635401468,0.0
23.472,8143.0,-17.678492983025535,0.0
23.48,8146.0,-7.036659231850535,0.0
23.488,8144.0,0.5280451253199772,0.0
23.496,8144.0,4.5131392886103185,0.0
23.504,8146.0,6.594273868686287,0.0
23.512,8148.0,7.642486971765493,0.0
23.52,8152.0,8.329512185843441,0.0
23.528,8149.0,7.677266224582354,0.0
23.536,8152.0,6.127564860342773,0.0
23.544,8160.0,6.529371936305097,0.0
23.552,8162.0,7.820078366810549,0.0
23.56,8177.0,10.870897850572646,0.0
23.568,8177.0,14.091503399706426,0.0
23.576,8158.0,9.978010306206897,0.0
23.584,8158.0,2.150797472927934,0.0
23.592,8157.0,-3.0085904007999034,0.0
23.6,8151.0,-7.033811837081203,0.0
23.608,8329.0,26.791829519031808,0.0
23.616,8239.0,60.71277299879739,0.0
23.624,8131.0,31.117226831064045,0.0
23.632,8153.0,-8.673140150025574,0.0
23.64,8159.0,-25.16972408390461,0.0
23.648,8163.0,-29.066741121869654,0.0
23.656,8172.0,-24.308658815056333,0.0
23.664,8181.0,-14.131842342644859,0.0
23.672,8193.0,-1.6804184441109555,0.0
23.68,8208.0,11.454226649064367,0.0
23.688,8223.0,23.61446287275271,0.0
23.696,8241.0,33.967702425820335,0.0
23.704,8266.0,43.72562204948372,0.0
23.712,8273.0,49.40474558876144,0.0
23.72,8247.0,41.391311646795884,0.0
23.728,8208.0,17.097215038112836,0.0
23.736,8178.0,-13.959170127995549,0.0
23.744,8170.0,-37.972921480992454,0.0
23.752,8165.0,-49.07338204914436,0.0
23.76,8172.0,-47.78947052538638,0.0
23.768,8176.0,-37.5374104862683,0.0
23.776,8178.0,-24.557439633395006,0.0
23.784,8180.0,-12.340705261119638,0.0
23.792,8176.0,-3.653353761717426,0.0
23.8,8178.0,1.6296214969911489,0.0
23.808,8180.0,5.324097798541288,0.0
23.816,8176.0,6.293207274864244,0.0
23.824,8177.0,5.299310044021695,0.0
23.832,8183.0,5.338188677411836,0.0
23.84,8193.0,7.820662213251808,0.0
23.848,8196.0,10.758998983148103,0.0
23.856,8208.0,13.930047629837645,0.0
23.864,8199.0,14.30634340098868,0.0
23.872,8189.0,8.478157913868472,0.0
23.88,8183.0,0.4771766248898075,0.0
23.888,8184.0,-5.34844024916606,0.0
23.896,8170.0,-10.638724508333326,0.0
23.904,8441.0,40.350878156878025,0.0
23.912,8163.0,62.95826993245646,0.0
23.92,8151.0,7.535788262967117,0.0
23.928,8174.0,-24.136181408664243,1.0
23.936,8176.0,-34.10008145824145,0.0
23.944,8179.0,-33.80123655114585,0.0
23.952,8191.0,-25.435321368161112,0.0
23.96,8203.0,-11.728218193275097,0.0
23.968,8206.0,1.220788703113385,0.0
23.976,8217.0,11.553935597164354,0.0
23.984,8233.0,21.42935087809724,0.0
23.992,8259.0,32.60134728137655,0.0
24.0,8273.0,42.43773145118348,0.0
24.008,8267.0,43.45529842677047,0.0
24.016,8236.0,29.90961919456845,0.0
24.024,8197.0,3.063017819792549,0.0
24.032,8176.0,-25.536457087669987,0.0
24.04,8159.0,-46.34194240889906,0.0
24.048,8162.0,-54.480498203138495,0.0
24.056,8161.0,-50.625138447397376,0.0
24.064,8163.0,-40.46541567847453,0.0
24.072,8165.0,-27.504734435802447,0.0
24.08,8163.0,-15.669766524044007,0.0
24.088,8165.0,-6.294864449470197,0.0
24.096,8161.0,-0.20478871484101546,0.0
24.104,8165.0,3.4279204209044565,0.0
24.112,8162.0,5.260886242027027,0.0
24.12,8166.0,5.751587580096157,0.0
24.128,8170.0,6.80418557101666,0.0
24.136,8175.0,8.233802860656397,0.0
24.144,8186.0,11.099747656549425,0.0
24.152,8171.0,10.294606626549012,0.0
24.16,8161.0,3.1501430645710116,0.0
24.168,8162.0,-3.391387197532822,0.0
24.176,8163.0,-6.337261432280684,0.0
24.184,8191.0,-1.193919058611982,0.0
24.192,8428.0,56.16857580310443,0.0
24.2,8131.0,69.31879216251059,0.0
24.208,8151.0,9.99493301258326,0.0
24.216,8160.0,-20.679725402249233,0.0
24.224,8164.0,-33.02946663908074,0.0
24.232,8172.0,-32.87381635028328,0.0
24.24,8182.0,-24.120291604817567,0.0
24.248,8189.0,-11.813436577835091,0.0
24.256,8202.0,1.3418901068064315,0.0
24.264,8213.0,13.821702024276874,0.0
24.272,8238.0,26.46153872190189,0.0
24.28,8259.0,39.32267361637855,0.0
24.288,8265.0,46.48306838188864,0.0
24.296,8255.0,42.853128916093056,1.0
24.304,8213.0,23.585705677344322,0.0
24.312,8175.0,-7.7289539796888675,0.0
24.32,8156.0,-36.72173840879668,0.0
24.328,8154.0,-52.59089164617512,0.0
24.336,8156.0,-54.00248278019353,0.0
24.344,8155.0,-46.44558081913556,0.0
24.352,8161.0,-33.91323906488719,0.0
24.36,8163.0,-19.725578881645788,0.0
24.368,8163.0,-7.9357878016865016,0.0
24.376,8160.0,-0.37306816597083525,0.0
24.384,8161.0,3.747471647548082,0.0
24.392,8160.0,5.61619116519455,0.0
24.4,8165.0,6.687071233161532,0.0
24.408,8168.0,7.940955604701003,0.0
24.416,8173.0,9.112964748757804,0.0
24.424,8183.0,11.48896836834706,0.0
24.432,8187.0,14.01248131773832,0.0
24.44,8170.0,10.724514436141362,0.0
24.448,8166.0,2.863735957579138,0.0
24.456,8164.0,-3.4450965943567553,0.0
24.464,8160.0,-7.879617402822987,0.0
24.472,8317.0,21.950483424854838,0.0
24.48,8259.0,56.48978510302686,0.0
24.488,8136.0,31.373303778427953,0.0
24.496,8161.0,-8.258585818041183,0.0
24.504,8166.0,-24.31569616923025,0.0
24.512,8171.0,-28.082289967268025,0.0
24.52,8180.0,-23.192029162056087,0.0
24.528,8187.0,-13.514938427703555,0.0
24.536,8197.0,-2.2697847191238907,0.0
24.544,8210.0,9.423625759029164,0.0
24.552,8226.0,20.83508044618293,0.0
24.56,8253.0,33.20988725821849,0.0
24.568,8267.0,43.869650501736714,0.0
24.576,8270.0,46.99577409311564,0.0
24.584,8245.0,37.22482623090605,0.0
24.592,8205.0,12.52302715527162,0.0
24.6,8173.0,-18.693874176217378,0.0
24.608,8164.0,-42.69761997803744,0.0
24.616,8160.0,-53.07584321972013,0.0
24.624,8164.0,-51.16658302397241,0.0
24.632,8166.0,-41.05418681625292,0.0
24.64,8170.0,-27.62362812122251,0.0
24.648,8173.0,-14.062644002609886,0.0
24.656,8171.0,-3.706336708388335,0.0
24.664,8173.0,2.980290744633521,0.0
24.672,8171.0,6.482903942108578,0.0
24.68,8175.0,7.980060502887454,0.0
24.688,8176.0,8.6771091815624,0.0
24.696,8179.0,8.5909937462377,0.0
24.704,8182.0,8.463374110075392,0.0
24.712,8190.0,9.352061722659528,0.0
24.72,8198.0,11.72856035650193,0.0
24.728,8181.0,9.517122124178513,0.0
24.736,8174.0,1.8631533670450153,0.0
24.744,8173.0,-4.580273774111447,0.0
24.752,8177.0,-7.08357992256515,0.0
24.76,8251.0,8.4453875707095,0.0
24.768,8392.0,60.273450129110415,0.0
24.776,8155.0,62.17343527400271,0.0
24.784,8175.0,9.53757783328183,0.0
24.792,8182.0,-17.521068601608476,0.0
24.8,8191.0,-27.59829349605434,0.0
24.808,8197.0,-26.309208271123453,0.0
24.816,8202.0,-19.310749813080065,0.0
24.824,8213.0,-8.975322224295269,0.0
24.832,8224.0,2.9924155364935814,0.0
24.84,8241.0,15.336853482387596,0.0
24.848,8264.0,28.484118688503486,1.0
24.856,8284.0,40.72579649705108,0.0
24.864,8290.0,47.10281454844835,0.0
24.872,8271.0,41.07691913269241,0.0
24.88,8228.0,18.618817620714708,0.0
24.888,8194.0,-13.216862578142354,0.0
24.896,8177.0,-40.459941031028166,0.0
24.904,8175.0,-54.31896374873486,0.0
24.912,8179.0,-53.871169230722444,0.0
24.92,8181.0,-44.21303422299184,0.0
24.928,8184.0,-30.776507124811815,0.0
24.936,8184.0,-17.5511829277541,0.0
24.944,8181.0,-7.681683977049033,0.0
24.952,8183.0,-0.8845454313016035,0.0
24.96,8184.0,3.8822810998804016,0.0
24.968,8184.0,6.317075636991149,0.0
24.976,8183.0,6.594965057941863,0.0
24.984,8183.0,5.555133032794629,0.0
24.992,8192.0,5.936661768464091,0.0
25.0,8194.0,7.509538303733734,0.0
25.008,8211.0,11.182915909881785,0.0
25.016,8200.0,12.88568826685514,0.0
25.024,8181.0,5.810057865454837,0.0
25.032,8180.0,-3.341348126308276,0.0
25.04,8182.0,-8.042585903066765,0.0
25.048,8173.0,-11.03364499053896,0.0
25.056,8432.0,39.94548448714227,0.0
25.064,8237.0,77.1135034275851,0.0
25.072,8173.0,34.48937773328453,0.0
25.08,8175.0,-8.614107797552606,0.0
25.088,8180.0,-31.36933189147021,0.0
25.096,8184.0,-38.2320655058611,0.0
25.104,8191.0,-34.2469333824024,0.0
25.112,8203.0,-22.816177819286168,0.0
25.12,8213.0,-8.102227821885208,0.0
25.128,8225.0,6.322589455974139,0.0
25.136,8245.0,20.432449800914583,0.0
25.144,8269.0,34.66843365293471,0.0
25.152,8284.0,45.79915943161109,0.0
25.16,8285.0,48.70697233687952,1.0
25.168,8251.0,36.30016897567384,0.0
25.176,8205.0,7.11520589296083,0.0
25.184,8180.0,-25.728840882634586,0.0
25.192,8172.0,-47.99388723345919,0.0
25.2,8172.0,-55.51936573447915,0.0
25.208,8177.0,-50.53102602535182,0.0
25.216,8180.0,-38.28542356376124,0.0
25.224,8181.0,-24.42166904569399,0.0
25.232,8181.0,-12.315753367390016,0.0
25.24,8183.0,-2.8805195653142164,0.0
25.248,8182.0,3.34048374083568,0.0
25.256,8182.0,6.30881725142649,0.0
25.264,8180.0,6.699191986129563,0.0
25.272,8182.0,5.914382381839232,0.0
25.28,8183.0,5.166459569266863,0.0
25.288,8183.0,4.14514382237644,0.0
25.296,8190.0,4.342792412948029,0.0
25.304,8190.0,5.231368643839232,0.0
25.312,8210.0,9.04975041316743,0.0
25.32,8201.0,12.183195182753707,0.0
25.328,8183.0,6.673070803873543,0.0
25.336,8179.0,-2.0919421036790027,0.0
25.344,8179.0,-7.775596469304219,0.0
25.352,8168.0,-12.20533715458123,0.0
25.36,8418.0,35.85329169277111,0.0
25.368,8253.0,76.20487341519106,0.0
25.376,8171.0,38.05287042819941,0.0
25.384,8171.0,-7.032093146419129,0.0
25.392,8174.0,-32.016215480342,0.0
25.4,8182.0,-39.69043900316365,0.0
25.408,8187.0,-35.55551238906628,0.0
25.416,8198.0,-24.450675060852518,0.0
25.424,8206.0,-10.294565968601091,0.0
25.432,8218.0,3.7241278092531047,0.0
25.44,8239.0,18.1920656666382,0.0
25.448,8262.0,32.979484648258676,0.0
25.456,8279.0,44.896693682356045,0.0
25.464,8278.0,48.4064559481003,1.0
25.472,8247.0,36.60550710228176,0.0
25.48,8206.0,9.366959111514916,0.0
25.488,8179.0,-22.05447088110259,0.0
25.496,8165.0,-45.669668468758346,0.0
25.504,8165.0,-55.571808129761166,0.0
25.512,8166.0,-52.798274323556825,0.0
25.52,8169.0,-42.33596611541634,0.0
25.528,8170.0,-28.91273881760344,0.0
25.536,8171.0,-16.182150199166472,0.0
25.544,8170.0,-6.199896102128832,0.0
25.552,8170.0,0.43926911919174927,0.0
25.56,8170.0,4.2990621023793665,0.0
25.568,8171.0,6.134249575100739,0.0
25.576,8170.0,6.289551779949079,0.0
25.584,8170.0,5.2235261351765985,0.0
25.592,8172.0,4.209733757072399,0.0
25.6,8174.0,3.7891365861551094,0.0
25.608,8184.0,5.417528172846005,0.0
25.616,8181.0,6.989300826104454,0.0
25.624,8201.0,10.332298091867415,0.0
25.632,8181.0,10.742842815855056,0.0
25.64,8173.0,3.636473434662321,0.0
25.648,8172.0,-2.9562614162198315,0.0
25.656,8174.0,-6.202688989097396,0.0
25.664,8179.0,-5.752114269520689,0.0
25.672,8501.0,62.19281284118415,0.0
25.68,8182.0,93.55906867546969,0.0
25.688,8165.0,29.27928456751033,0.0
25.696,8163.0,-17.056474581603652,0.0
25.704,8168.0,-41.26050080814207,0.0
25.712,8174.0,-47.07183400876647,0.0
25.72,8181.0,-40.71609052034546,0.0
25.728,8190.0,-27.51546119645559,0.0
25.736,8199.0,-11.859547244110672,0.0
25.744,8212.0,3.6919999376041233,0.0
25.752,8234.0,19.479937384132427,0.0
25.76,8254.0,34.44414374428993,0.0
25.768,8266.0,44.60943834117916,0.0
25.776,8258.0,44.67506270569493,1.0
25.784,8219.0,28.338467277537347,0.0
25.792,8179.0,-1.7591795774535512,0.0
25.8,8155.0,-32.367418675346926,0.0
25.808,8147.0,-52.09942447559024,0.0
25.816,8149.0,-57.09581741686725,0.0
25.824,8149.0,-50.98567446740731,0.0
25.832,8154.0,-38.62061182154457,0.0
25.84,8153.0,-24.635390251175977,0.0
25.848,8151.0,-13.242439798189025,0.0
25.856,8150.0,-5.1098599754457155,0.0
25.864,8151.0,0.4744494107155788,0.0
25.872,8149.0,3.5007678202809984,0.0
25.88,8150.0,4.555468991438374,0.0
25.888,8149.0,4.488554655827556,0.0
25.896,8147.0,3.1555612888091673,0.0
25.904,8148.0,1.6845100468651708,0.0
25.912,8156.0,2.39784858008602,0.0
25.92,8156.0,4.090580259345188,0.0
25.928,8179.0,9.170397692360893,0.0
25.936,8161.0,11.805756936464377,0.0
25.944,8146.0,4.832484746375258,0.0
25.952,8142.0,-3.9058743200566823,0.0
25.96,8151.0,-7.460044694581256,0.0
25.968,8138.0,-9.24814766174245,0.0
25.976,8432.0,48.50503116549157,0.0
25.984,8145.0,76.73633642963682,0.0
25.992,8124.0,18.87349557830089,0.0
26.0,8140.0,-19.22944193241574,0.0
26.008,8148.0,-33.94482620539202,0.0
26.016,8148.0,-35.86663729069778,0.0
26.024,8159.0,-29.31807856683008,0.0
26.032,8167.0,-17.118589305938485,0.0
26.04,8178.0,-3.4267356098582695,0.0
26.048,8192.0,10.297658266945064,0.0
26.056,8211.0,23.594922840163463,0.0
26.064,8231.0,35.84936653001978,0.0
26.072,8248.0,45.22056771168582,0.0
26.08,8245.0,46.76692035656674,1.0
26.088,8215.0,33.84908642143614,0.0
26.096,8170.0,5.755017867797051,0.0
26.104,8143.0,-26.4419559464975,0.0
26.112,8131.0,-49.44201269965993,0.0
26.12,8131.0,-57.999825524500466,0.0
26.128,8135.0,-53.4502404746695,0.0
26.136,8140.0,-40.81722860357286,0.0
26.144,8139.0,-26.340509271282144,0.0
26.152,8140.0,-13.785469209504754,0.0
26.16,8141.0,-3.861797718055186,0.0
26.168,8138.0,2.1839377098956447,0.0
26.176,8137.0,4.611061642914365,0.0
26.184,8137.0,5.143066539640813,0.0
26.192,8131.0,3.4521388192488303,0.0
26.2,8131.0,0.7029370150503382,0.0
26.208,8139.0,0.6048966462058161,0.0
26.216,8142.0,2.702515329558082,0.0
26.224,8152.0,6.189221053635947,0.0
26.232,8137.0,6.291389983141244,0.0
26.24,8126.0,0.0861421061188139,0.0
26.248,8126.0,-5.844000485743891,0.0
26.256,8125.0,-8.669358409300912,0.0
26.264,8132.0,-7.800088418225869,0.0
26.272,8429.0,56.00403248102498,0.0
26.28,8094.0,77.48338070377622,0.0
26.288,8105.0,12.245369670960145,0.0
26.296,8116.0,-23.698206947816516,0.0
26.304,8118.0,-38.706340293248786,0.0
26.312,8122.0,-40.48798260786202,0.0
26.32,8129.0,-33.15587780608735,0.0
26.328,8141.0,-19.91114502244932,0.0
26.336,8149.0,-4.9734507974296776,0.0
26.344,8163.0,9.109328920439339,0.0
26.352,8184.0,23.2073086931714,0.0
26.36,8212.0,38.037069154839855,0.0
26.368,8226.0,49.621131010779436,0.0
26.376,8224.0,51.40038682363411,0.0
26.384,8190.0,37.30490075777948,0.0
26.392,8153.0,8.807631728712295,1.0
26.4,8131.0,-21.4346957588873,0.0
26.408,8126.0,-41.58632775276692,0.0
26.416,8129.0,-47.6075931901853,0.0
26.424,8133.0,-42.52058081058976,0.0
26.432,8136.0,-31.63540236427957,0.0
26.44,8140.0,-18.971519600332385,0.0
26.448,8139.0,-7.9929114373080665,0.0
26.456,8134.0,-1.514165896834811,0.0
26.464,8128.0,0.2996098900096058,0.0
26.472,8127.0,-0.10325626570647728,0.0
26.48,8127.0,-0.5301566016682955,0.0
26.488,8124.0,-1.3151492309675632,0.0
26.496,8122.0,-2.6015045525552978,0.0
26.504,8126.0,-2.5592325235024873,0.0
26.512,8133.0,0.10108601048455057,0.0
