Time_Seconds,ECG_Raw,ECG_Filtered,R_Peak_Marker
0.0,8170.0,72.85888602949535,0.0
0.008,8175.0,178.78163415325162,0.0
0.016,8180.0,216.36177503071417,0.0
0.024,8180.0,206.8051135977148,0.0
0.032,8203.0,174.49814250049758,0.0
0.04,8184.0,129.75307826509356,0.0
0.048,8175.0,77.89839976080088,0.0
0.056,8171.0,32.76540078979792,0.0
0.064,8174.0,0.901897275111196,0.0
0.072,8183.0,-15.627254554108731,0.0
0.08,8507.0,44.998883042310354,0.0
0.088,8177.0,72.80491411048183,0.0
0.096,8161.0,7.523185505361198,0.0
0.104,8165.0,-34.67653478213947,0.0
0.112,8169.0,-52.74160121880709,0.0
0.12,8175.0,-53.385994205591714,0.0
0.128,8183.0,-42.81292875377471,0.0
0.136,8193.0,-26.39167509865206,0.0
0.144,8203.0,-8.592866814743275,0.0
0.152,8220.0,8.75222135212016,0.0
0.16,8242.0,25.65086998301149,0.0
0.168,8263.0,40.54066371036288,0.0
0.176,8275.0,49.94194723622877,0.0
0.184,8270.0,49.36016789518271,0.0
0.192,8234.0,33.15618668143361,0.0
0.2,8195.0,3.2237478239708253,0.0
0.208,8169.0,-28.246558970746037,0.0
0.216,8159.0,-49.930364454555956,0.0
0.224,8159.0,-57.227106909785334,0.0
0.232,8163.0,-52.04888018512065,0.0
0.24,8167.0,-39.46085424901912,0.0
0.248,8168.0,-25.012081062297284,0.0
0.256,8169.0,-12.26637205288398,0.0
0.264,8167.0,-3.073154792604555,0.0
0.272,8167.0,2.4210236310364053,0.0
0.28,8167.0,5.303215934122591,0.0
0.288,8165.0,5.79510793001009,0.0
0.296,8167.0,5.207405280861167,0.0
0.304,8174.0,5.909042215703266,0.0
0.312,8177.0,7.471116838137959,0.0
0.32,8179.0,8.28371981833061,0.0
0.328,8194.0,10.981496193150178,0.0
0.336,8172.0,9.481926480897755,0.0
0.344,8166.0,1.4370883706983477,0.0
0.352,8168.0,-4.355698481780564,0.0
0.36,8171.0,-6.0996636526408565,0.0
0.368,8227.0,5.8474878610791166,0.0
0.376,8448.0,68.61779372098772,0.0
0.384,8156.0,80.83142314175643,0.0
0.392,8161.0,17.165209031903714,0.0
0.4,8163.0,-21.65922756070654,0.0
0.408,8168.0,-39.906035033200396,0.0
0.416,8174.0,-42.39963188263664,0.0
0.424,8183.0,-34.381543927672055,0.0
0.432,8193.0,-20.545296387001827,0.0
0.44,8204.0,-4.957335653490645,0.0
0.448,8221.0,10.733372305236344,0.0
0.456,8241.0,25.944655690895615,0.0
0.464,8263.0,39.58770218870109,0.0
0.472,8272.0,47.987540024739474,0.0
0.48,8261.0,45.271111137063144,1.0
0.488,8220.0,26.17734190291594,0.0
0.496,8181.0,-5.4275417041837954,0.0
0.504,8166.0,-34.32798289161883,0.0
0.512,8159.0,-50.70974690343951,0.0
0.52,8159.0,-54.13980472151229,0.0
0.528,8163.0,-47.142898529678405,0.0
0.536,8167.0,-34.223113281550695,0.0
0.544,8168.0,-20.37224153883176,0.0
0.552,8167.0,-9.092186544274455,0.0
0.56,8166.0,-1.4512994659178275,0.0
0.568,8163.0,2.4703393876561677,0.0
0.576,8164.0,4.006455882093178,0.0
0.584,8162.0,4.103185818345764,0.0
0.592,8166.0,3.946901989877233,0.0
0.6,8167.0,4.277583184059495,0.0
0.608,8172.0,5.050420341902964,0.0
0.616,8174.0,6.171877396726586,0.0
0.624,8194.0,10.393993921795072,0.0
0.632,8188.0,14.175306050581185,0.0
0.64,8169.0,9.15490348707067,0.0
0.648,8168.0,0.7118377733575016,0.0
0.656,8168.0,-4.593601203388289,0.0
0.664,8155.0,-9.690695620713313,0.0
0.672,8431.0,42.49523177487663,0.0
0.68,8252.0,86.73230443166062,0.0
0.688,8157.0,43.76596931918925,0.0
0.696,8160.0,-7.075363806806763,0.0
0.704,8163.0,-34.84433078770053,0.0
0.712,8170.0,-43.94103200576956,0.0
0.72,8177.0,-39.798615460293604,0.0
0.728,8186.0,-28.04604409006447,0.0
0.736,8196.0,-12.961765770553484,0.0
0.744,8206.0,2.0102247303154854,0.0
0.752,8228.0,17.097487810559414,0.0
0.76,8251.0,32.62142645505969,0.0
0.768,8268.0,45.028497851976226,0.0
0.776,8266.0,48.60368001934239,0.0
0.784,8243.0,38.24162466846451,0.0
0.792,8201.0,13.036086953645963,0.0
0.8,8170.0,-18.760811324213364,0.0
0.808,8156.0,-43.91462119940752,0.0
0.816,8155.0,-55.197080336688714,0.0
0.824,8155.0,-53.705279998279366,0.0
0.832,8160.0,-43.65917325952205,0.0
0.84,8163.0,-29.4642697058664,1.0
0.848,8162.0,-16.193694429269954,0.0
0.856,8164.0,-5.686042046973398,0.0
0.864,8162.0,1.3902373383543818,0.0
0.872,8160.0,4.547157613556465,0.0
0.88,8164.0,6.133353941948371,0.0
0.888,8163.0,6.7544414559856705,0.0
0.896,8164.0,6.0976985372747095,0.0
0.904,8167.0,5.6020220827927005,0.0
0.912,8174.0,6.502555416725727,0.0
0.92,8172.0,7.070769313389519,0.0
0.928,8195.0,10.625115297887305,0.0
0.936,8174.0,11.524858409613444,0.0
0.944,8162.0,3.5677332324228246,0.0
0.952,8160.0,-4.539219489124889,0.0
0.96,8165.0,-8.032556237519657,0.0
0.968,8187.0,-3.364557237636518,0.0
0.976,8487.0,65.6910616905966,0.0
0.984,8162.0,91.4633799372209,0.0
0.992,8155.0,25.01028480840955,0.0
1.0,8156.0,-19.307625427112725,0.0
1.008,8160.0,-41.568396444604105,0.0
1.016,8168.0,-45.97951028122452,0.0
1.024,8173.0,-38.96128853964183,0.0
1.032,8187.0,-25.022016889123734,0.0
1.04,8194.0,-8.69440419792727,0.0
1.048,8209.0,6.774511465102705,0.0
1.056,8228.0,21.84193481149964,0.0
1.064,8252.0,36.22622445522029,0.0
1.072,8263.0,46.39127526444395,0.0
1.08,8255.0,45.98230711960673,0.0
1.088,8217.0,29.371145604959565,0.0
1.096,8175.0,-1.249746228858612,0.0
1.104,8157.0,-31.427464356136625,0.0
1.112,8151.0,-49.41296233922981,0.0
1.12,8150.0,-53.988073630491044,0.0
1.128,8154.0,-47.89565522361795,0.0
1.136,8155.0,-36.009558233334246,0.0
1.144,8155.0,-23.31636517842321,0.0
1.152,8158.0,-11.661693083742193,0.0
1.16,8155.0,-3.0010889008842696,0.0
1.168,8156.0,2.1671769870233675,0.0
1.176,8158.0,5.508013774181563,0.0
1.184,8157.0,6.853000064849994,0.0
1.192,8158.0,6.609427040780929,0.0
1.2,8160.0,6.076213675233021,0.0
1.208,8165.0,6.269752226422725,0.0
1.216,8172.0,7.885252055761612,0.0
1.224,8188.0,12.344077665419945,0.0
1.232,8179.0,14.5396176731997,0.0
1.24,8163.0,8.526158149499679,0.0
1.248,8161.0,-0.000272950161161134,0.0
1.256,8162.0,-5.247049687655817,0.0
1.264,8156.0,-8.575974255820256,0.0
1.272,8443.0,48.164055794462,0.0
1.28,8170.0,77.27798820323869,0.0
1.288,8137.0,20.26361243648921,0.0
1.296,8158.0,-18.978408115991442,0.0
1.304,8163.0,-33.996902263014135,0.0
1.312,8169.0,-35.477174210209114,0.0
1.32,8178.0,-27.909333870801674,0.0
1.328,8186.0,-15.729227115465164,0.0
1.336,8196.0,-2.463780732889745,0.0
1.344,8213.0,11.271042884723329,0.0
1.352,8232.0,25.039801464989523,0.0
1.36,8256.0,38.17122857640197,1.0
1.368,8267.0,47.30045296691583,0.0
1.376,8270.0,48.38836578187238,0.0
1.384,8241.0,36.38368679204859,0.0
1.392,8202.0,9.875487004468823,0.0
1.4,8171.0,-21.59971674440294,0.0
1.408,8159.0,-45.72426378625801,0.0
1.416,8155.0,-56.32795622881417,0.0
1.424,8163.0,-53.24177613115012,0.0
1.432,8165.0,-41.301524366974945,0.0
1.44,8166.0,-27.365378090029935,0.0
1.448,8169.0,-14.157446534861265,0.0
1.456,8166.0,-4.199861586030011,0.0
1.464,8165.0,1.5085830288182933,0.0
1.472,8165.0,4.45152794510841,0.0
1.48,8164.0,5.312775712598068,0.0
1.488,8167.0,5.4252383638095125,0.0
1.496,8166.0,5.077820066328286,0.0
1.504,8176.0,5.941207418692329,0.0
1.512,8178.0,8.002665995554025,0.0
1.52,8198.0,12.50312870982475,0.0
1.528,8188.0,15.312081289843718,0.0
1.536,8170.0,8.931375875156846,0.0
1.544,8170.0,0.12632037082266834,0.0
1.552,8172.0,-4.691524949056657,0.0
1.56,8162.0,-8.46390676437295,0.0
1.568,8451.0,47.588270997938025,0.0
1.576,8197.0,80.67302177932015,0.0
1.584,8148.0,26.10515676141972,0.0
1.592,8165.0,-16.661664923679837,0.0
1.6,8169.0,-35.13747038461315,0.0
1.608,8174.0,-38.89806860183171,0.0
1.616,8181.0,-32.77306396386939,0.0
1.624,8189.0,-21.11745062129762,0.0
1.632,8201.0,-6.93666884652157,0.0
1.64,8212.0,7.200421949451311,0.0
1.648,8232.0,20.802730735567366,0.0
1.656,8253.0,34.069507999253574,0.0
1.664,8268.0,44.104948325023315,0.0
1.672,8272.0,47.23477609336396,1.0
1.68,8243.0,36.816880878111306,0.0
1.688,8202.0,10.772823413598417,0.0
1.696,8172.0,-20.768234946206576,0.0
1.704,8157.0,-45.46639239997876,0.0
1.712,8157.0,-56.244112616125676,0.0
1.72,8163.0,-52.864962289589585,0.0
1.728,8162.0,-41.830081962644044,0.0
1.736,8165.0,-28.553536115062798,0.0
1.744,8166.0,-15.55555238541774,0.0
1.752,8163.0,-5.918762533633981,0.0
1.76,8163.0,0.06487088663971008,0.0
1.768,8167.0,4.410949931853111,0.0
1.776,8164.0,6.516762664351745,0.0
1.784,8167.0,6.77411870236665,0.0
1.792,8167.0,6.512184758473495,0.0
1.8,8172.0,6.391457501606283,0.0
1.808,8177.0,7.394047445295882,0.0
1.816,8178.0,8.091757562787052,0.0
1.824,8198.0,11.567893528980221,0.0
1.832,8180.0,12.278447056927916,0.0
1.84,8170.0,5.116686659394418,0.0
1.848,8166.0,-2.7547282652603826,0.0
1.856,8169.0,-7.196521578811371,0.0
1.864,8179.0,-6.076402490510873,0.0
1.872,8505.0,64.15236539677767,0.0
1.88,8176.0,95.34638465844068,0.0
1.888,8160.0,28.85505450712685,0.0
1.896,8163.0,-17.498486095727685,0.0
1.904,8167.0,-40.82881078468108,0.0
1.912,8177.0,-45.57598516645976,0.0
1.92,8183.0,-38.2047857747491,0.0
1.928,8191.0,-25.19296259388284,0.0
1.936,8202.0,-9.796525660652833,0.0
1.944,8214.0,5.493089641161987,0.0
1.952,8238.0,21.057355371867743,0.0
1.96,8258.0,36.058729110684226,0.0
1.968,8270.0,46.00121423477981,0.0
1.976,8268.0,46.94986473695326,1.0
1.984,8233.0,32.833610915350846,0.0
1.992,8194.0,4.389057713727652,0.0
2.0,8168.0,-26.377990691044488,0.0
2.008,8157.0,-48.1334881535297,0.0
2.016,8160.0,-55.33645513476995,0.0
2.024,8161.0,-50.3894148747338,0.0
2.032,8165.0,-38.802609234087186,0.0
2.04,8166.0,-25.045753793325275,0.0
2.048,8168.0,-12.49983779039735,0.0
2.056,8167.0,-2.9807799746606634,0.0
2.064,8167.0,2.89639572785336,0.0
2.072,8166.0,5.728719145036621,0.0
2.08,8168.0,6.739509927725976,0.0
2.088,8168.0,6.724102324159276,0.0
2.096,8168.0,5.6955370127154765,0.0
2.104,8171.0,4.836637017883049,0.0
2.112,8179.0,5.842702783204686,0.0
2.12,8182.0,7.799174779406258,0.0
2.128,8203.0,12.677001921827014,0.0
2.136,8184.0,14.048359376881308,0.0
2.144,8171.0,6.191854436420726,0.0
2.152,8171.0,-2.0491385669740794,0.0
2.16,8173.0,-6.203573000773304,0.0
2.168,8172.0,-7.515662961002363,0.0
2.176,8502.0,60.06280361022209,0.0
2.184,8201.0,96.84709125833092,0.0
2.192,8162.0,34.455815902051654,0.0
2.2,8165.0,-15.02101954917839,0.0
2.208,8169.0,-40.57406883355907,0.0
2.216,8174.0,-47.69588488481918,0.0
2.224,8181.0,-42.22484613932511,0.0
2.232,8190.0,-29.31868458148574,0.0
2.24,8201.0,-13.154926782455732,0.0
2.248,8215.0,3.5062557138467128,0.0
2.256,8233.0,19.36568819992408,0.0
2.264,8257.0,34.389498133467214,0.0
2.272,8271.0,45.824132050804565,0.0
2.28,8270.0,48.29498711151996,1.0
2.288,8237.0,35.48792860013441,0.0
2.296,8193.0,6.80230298255492,0.0
2.304,8165.0,-25.903297489110628,0.0
2.312,8157.0,-48.6729197161992,0.0
2.32,8158.0,-56.189553394973245,0.0
2.328,8160.0,-51.50297616127932,0.0
2.336,8164.0,-39.69707806578231,0.0
2.344,8167.0,-25.266438027094637,0.0
2.352,8165.0,-12.69719023767584,0.0
2.36,8165.0,-3.7473155543227676,0.0
2.368,8164.0,1.909462023713104,0.0
2.376,8166.0,5.169674800820985,0.0
2.384,8166.0,6.722577191098708,0.0
2.392,8168.0,7.030340701272053,0.0
2.4,8171.0,7.167973022568958,0.0
2.408,8175.0,7.592725003395344,0.0
2.416,8179.0,8.327182487980508,0.0
2.424,8181.0,8.724845224496448,0.0
2.432,8201.0,12.131850926391508,0.0
2.44,8182.0,12.511717507598405,0.0
2.448,8171.0,4.710421192609829,0.0
2.456,8170.0,-3.0690179305802303,0.0
2.464,8173.0,-6.795864410904187,0.0
2.472,8199.0,-2.0448581110911164,0.0
2.48,8490.0,65.83826511135749,0.0
2.488,8168.0,89.66904860865725,0.0
2.496,8160.0,22.748376487261112,0.0
2.504,8162.0,-21.50312601097039,0.0
2.512,8168.0,-42.778857326164825,0.0
2.52,8174.0,-46.423900149498195,0.0
2.528,8180.0,-39.089551348529085,0.0
2.536,8187.0,-26.169681466285056,0.0
2.544,8197.0,-11.08814510113666,0.0
2.552,8213.0,4.823965749531681,0.0
2.56,8234.0,21.062122225839175,0.0
2.568,8251.0,35.23550618349873,0.0
2.576,8265.0,44.60882900439219,0.0
2.584,8256.0,44.410475773178405,1.0
2.592,8221.0,28.570781405014714,0.0
2.6,8178.0,-1.0639197218256413,0.0
2.608,8159.0,-31.09518143129617,0.0
2.616,8147.0,-50.47454911394584,0.0
2.624,8154.0,-55.30444191353308,0.0
2.632,8155.0,-48.14161977972435,0.0
2.64,8157.0,-35.99379830865814,0.0
2.648,8158.0,-22.739609569293407,0.0
2.656,8157.0,-11.453510982647913,0.0
2.664,8156.0,-3.4510450772097556,0.0
2.672,8156.0,1.6005184101154555,0.0
2.68,8156.0,4.345347245861831,0.0
2.688,8158.0,5.718430210139559,0.0
2.696,8156.0,5.663487694360583,0.0
2.704,8158.0,4.772343197824284,0.0
2.712,8165.0,5.360485671407105,0.0
2.72,8166.0,6.530005854946694,0.0
2.728,8169.0,7.04883549627084,0.0
2.736,8186.0,10.373000314845967,0.0
2.744,8166.0,10.153334150281808,0.0
2.752,8161.0,3.3765380334166366,0.0
2.76,8160.0,-2.368975984407143,0.0
2.768,8159.0,-5.816300429713465,0.0
2.776,8224.0,6.102030129493414,0.0
2.784,8377.0,56.76295107832743,0.0
2.792,8124.0,57.68772039444684,0.0
2.8,8147.0,2.499298527178098,0.0
2.808,8152.0,-24.797543258175665,0.0
2.816,8158.0,-34.93394116609829,0.0
2.824,8162.0,-33.58918411239597,0.0
2.832,8172.0,-24.84116868716933,0.0
2.84,8184.0,-11.406774267055653,0.0
2.848,8192.0,2.353722549480608,0.0
2.856,8208.0,15.038025343824756,0.0
2.864,8228.0,27.61438863682747,0.0
2.872,8246.0,38.628793215316364,0.0
2.88,8256.0,45.00653599977113,0.0
2.888,8248.0,42.363402125798984,1.0
2.896,8205.0,23.95812327339172,0.0
2.904,8170.0,-6.4945268696715175,0.0
2.912,8149.0,-34.96037318943104,0.0
2.92,8143.0,-52.01074480093371,0.0
2.928,8142.0,-55.63896941363919,0.0
2.936,8151.0,-47.71476437757724,0.0
2.944,8150.0,-34.15987450917464,0.0
2.952,8153.0,-20.55589315828911,0.0
2.96,8153.0,-8.781102508301274,0.0
2.968,8151.0,-0.8947935906694511,0.0
2.976,8150.0,3.291915298960703,0.0
2.984,8150.0,5.064533994424892,0.0
2.992,8150.0,5.345014635942562,0.0
3.0,8152.0,5.109124764997205,0.0
3.008,8153.0,4.807918737324826,0.0
3.016,8158.0,5.126653704217233,0.0
3.024,8161.0,6.1722984187006205,0.0
3.032,8182.0,10.758117467375996,0.0
3.04,8165.0,12.656308998588202,0.0
3.048,8151.0,5.526724954905603,0.0
3.056,8149.0,-2.7964292212029704,0.0
3.064,8150.0,-7.499058026189232,0.0
3.072,8153.0,-8.326035939809799,0.0
3.08,8466.0,57.00627648892146,0.0
3.088,8135.0,83.3234591272792,0.0
3.096,8132.0,18.018102326989037,0.0
3.104,8142.0,-21.905029241091142,0.0
3.112,8149.0,-38.721328431706524,0.0
3.12,8155.0,-40.13993889741391,0.0
3.128,8159.0,-32.85020601761903,0.0
3.136,8168.0,-20.90268031570713,0.0
3.144,8182.0,-5.968921293326048,0.0
3.152,8196.0,9.48826117517774,0.0
3.16,8213.0,23.52440656905833,0.0
3.168,8234.0,36.02221343287101,0.0
3.176,8245.0,44.489629442239675,0.0
3.184,8247.0,45.40800307116206,0.0
3.192,8217.0,33.3463154031906,0.0
3.2,8176.0,6.651999658516843,1.0
3.208,8149.0,-24.035952381960215,0.0
3.216,8139.0,-46.099753036840184,0.0
3.224,8138.0,-54.40629073952027,0.0
3.232,8143.0,-50.252924286285406,0.0
3.24,8146.0,-38.54328713790096,0.0
3.248,8145.0,-25.366008109546783,0.0
3.256,8146.0,-13.727200779875602,0.0
3.264,8146.0,-4.558522821693714,0.0
3.272,8145.0,1.3506432491524265,0.0
3.28,8145.0,4.4362400384452485,0.0
3.288,8147.0,5.997072188454013,0.0
3.296,8149.0,6.8281221159386405,0.0
3.304,8146.0,6.080078940359272,0.0
3.312,8150.0,4.920176530446497,0.0
3.32,8155.0,5.326962738960901,0.0
3.328,8162.0,7.211514895770051,0.0
3.336,8163.0,8.867091749723386,0.0
3.344,8177.0,11.56635376454392,0.0
3.352,8157.0,10.18329217046562,0.0
3.36,8156.0,3.5311272222927528,0.0
3.368,8157.0,-0.9383127277546919,0.0
3.376,8153.0,-4.052175333917148,0.0
3.384,8243.0,12.290519954496403,0.0
3.392,8346.0,59.52223419953043,0.0
3.4,8124.0,54.118920772414185,0.0
3.408,8148.0,2.2667797278111266,0.0
3.416,8151.0,-23.226039308999816,0.0
3.424,8157.0,-32.94240133404537,0.0
3.432,8166.0,-30.629672575803625,0.0
3.44,8175.0,-20.94069386456863,0.0
3.448,8181.0,-8.971279100735046,0.0
3.456,8195.0,3.553581347730187,0.0
3.464,8209.0,16.142421371954924,0.0
3.472,8233.0,28.903490315117324,0.0
3.48,8250.0,40.44458895320122,0.0
3.488,8259.0,46.449920021034586,0.0
3.496,8248.0,42.550505120043226,1.0
3.504,8211.0,23.986799189871135,0.0
3.512,8175.0,-5.542387951711817,0.0
3.52,8155.0,-33.60645527332554,0.0
3.528,8152.0,-49.80728208751043,0.0
3.536,8152.0,-52.44995496630645,0.0
3.544,8155.0,-45.447892612751275,0.0
3.552,8158.0,-33.19064257164359,0.0
3.56,8161.0,-19.68382698016103,0.0
3.568,8159.0,-8.507317174710124,0.0
3.576,8157.0,-1.4249412990020573,0.0
3.584,8159.0,2.979602038066332,0.0
3.592,8158.0,5.336999691956635,0.0
3.6,8159.0,5.922008629633865,0.0
3.608,8159.0,5.57443636671519,0.0
3.616,8161.0,4.932334001136269,0.0
3.624,8164.0,4.826299788966253,0.0
3.632,8170.0,5.8705747342980885,0.0
3.64,8176.0,8.049718684094842,0.0
3.648,8176.0,9.343833402131168,0.0
3.656,8190.0,11.552746819665117,0.0
3.664,8172.0,10.290358495593864,0.0
3.672,8168.0,3.48902617741669,0.0
3.68,8169.0,-1.675150566892853,0.0
3.688,8167.0,-4.67956440557964,0.0
3.696,8261.0,13.048783237916496,0.0
3.704,8367.0,62.415114107555155,0.0
3.712,8144.0,58.244216341617175,0.0
3.72,8162.0,5.065374616070358,0.0
3.728,8165.0,-22.862157980249094,0.0
3.736,8169.0,-34.48217594361995,0.0
3.744,8178.0,-33.47041981203802,0.0
3.752,8187.0,-24.120143355732125,0.0
3.76,8195.0,-11.460392827075566,0.0
3.768,8208.0,2.054410900015455,0.0
3.776,8222.0,15.25169285818788,0.0
3.784,8246.0,28.507638314385304,0.0
3.792,8267.0,41.218625239364655,0.0
3.8,8274.0,48.20707492269207,0.0
3.808,8262.0,44.00976685361343,1.0
3.816,8223.0,24.43574361887613,0.0
3.824,8187.0,-6.1676104341574955,0.0
3.832,8168.0,-34.56784636389557,0.0
3.84,8165.0,-50.617423677334045,0.0
3.848,8163.0,-53.45642247183855,0.0
3.856,8167.0,-46.62217541182076,0.0
3.864,8170.0,-34.08183510139747,0.0
3.872,8173.0,-20.272485084668006,0.0
3.88,8175.0,-8.010606104830686,0.0
3.888,8170.0,-0.15735112553920771,0.0
3.896,8172.0,3.8980047373540856,0.0
3.904,8171.0,5.909652805135238,0.0
3.912,8170.0,5.7947633877367934,0.0
3.92,8174.0,5.461165920686881,0.0
3.928,8175.0,5.457403835848936,0.0
3.936,8176.0,5.036373755850718,0.0
3.944,8176.0,4.22810437686735,0.0
3.952,8185.0,4.9477720875079285,0.0
3.96,8188.0,7.074851627384305,0.0
3.968,8207.0,11.754790080644625,0.0
3.976,8191.0,13.353235515894312,0.0
3.984,8177.0,6.145020663344894,0.0
3.992,8179.0,-1.5011732737311831,0.0
4.0,8180.0,-5.1826217023435674,0.0
4.008,8180.0,-6.36977678648168,0.0
4.016,8506.0,60.49594372210163,0.0
4.024,8201.0,95.15863877587753,0.0
4.032,8167.0,31.972947207209927,0.0
4.04,8170.0,-16.575768360241227,0.0
4.048,8176.0,-40.935609155662405,0.0
4.056,8179.0,-47.296949893414194,0.0
4.064,8188.0,-41.436650554746166,0.0
4.072,8195.0,-28.419780677905464,0.0
4.08,8207.0,-12.5311354278017,0.0
4.088,8220.0,3.8727718283473678,0.0
4.096,8238.0,19.320183168121048,0.0
4.104,8261.0,33.90292275063666,0.0
4.112,8276.0,45.150478960841156,0.0
4.12,8273.0,47.408529509557866,1.0
4.128,8244.0,35.01861784494122,0.0
4.136,8202.0,7.876650180617617,0.0
4.144,8173.0,-23.874616414320826,0.0
4.152,8160.0,-47.61322410224807,0.0
4.16,8164.0,-56.272178196855066,0.0
4.168,8164.0,-52.04433965433009,0.0
4.176,8164.0,-41.653466714799606,0.0
4.184,8169.0,-28.1716602577701,0.0
4.192,8169.0,-14.90588180521604,0.0
4.2,8166.0,-5.413517148417895,0.0
4.208,8168.0,0.8167039341926738,0.0
4.216,8163.0,3.764521982036513,0.0
4.224,8165.0,4.324208275950014,0.0
4.232,8162.0,3.795303987866191,0.0
4.24,8163.0,2.49849633292024,0.0
4.248,8165.0,1.9656673616016178,0.0
4.256,8166.0,1.965437285568214,0.0
4.264,8171.0,2.8931226733070616,0.0
4.272,8176.0,5.046130979070313,0.0
4.28,8178.0,6.9844692934575505,0.0
4.288,8190.0,9.932082931368996,0.0
4.296,8166.0,7.717865880331601,0.0
4.304,8161.0,-0.6864619030716312,0.0
4.312,8161.0,-6.574195893158958,0.0
4.32,8163.0,-8.650864724035273,0.0
4.328,8228.0,5.120725183502145,0.0
4.336,8387.0,58.25224301407388,0.0
4.344,8137.0,62.25103243545345,0.0
4.352,8152.0,7.167224900760857,0.0
4.36,8157.0,-22.409867471150164,0.0
4.368,8157.0,-35.48260659471907,0.0
4.376,8167.0,-35.79121273996043,0.0
4.384,8175.0,-26.869936756130755,0.0
4.392,8184.0,-14.046995263036479,0.0
4.4,8193.0,-0.6564236813335356,0.0
4.408,8210.0,12.674081286357705,0.0
4.416,8229.0,25.991009301208123,0.0
4.424,8251.0,38.302408576995504,0.0
4.432,8255.0,45.08807400224691,0.0
4.44,8250.0,42.06092030903278,1.0
4.448,8213.0,25.313100001080784,0.0
4.456,8174.0,-3.956160708025436,0.0
4.464,8151.0,-33.33280368491978,0.0
4.472,8151.0,-50.35137438856577,0.0
4.48,8151.0,-52.782266367537204,0.0
4.488,8154.0,-45.60457480811283,0.0
4.496,8156.0,-33.42400389828617,0.0
4.504,8158.0,-20.33575753563764,0.0
4.512,8156.0,-9.512249339111577,0.0
4.52,8159.0,-1.464774333649757,0.0
4.528,8157.0,3.7208670202130634,0.0
4.536,8157.0,5.814917759822265,0.0
4.544,8156.0,5.967424922066357,0.0
4.552,8161.0,5.970088649077525,0.0
4.56,8163.0,6.496633835968396,0.0
4.568,8165.0,6.6402687162662914,0.0
4.576,8169.0,6.944275977868301,0.0
4.584,8172.0,7.50133693648354,0.0
4.592,8193.0,11.596710430852909,0.0
4.6,8175.0,12.873411853925518,0.0
4.608,8166.0,6.160567526642581,0.0
4.616,8161.0,-1.603623835042299,0.0
4.624,8166.0,-5.952225504571288,0.0
4.632,8175.0,-4.761342179200483,0.0
4.64,8477.0,60.20237628825089,0.0
4.648,8136.0,81.52668930061418,0.0
4.656,8151.0,15.175375743005134,0.0
4.664,8163.0,-20.849325536808237,0.0
4.672,8167.0,-35.72445744873539,0.0
4.68,8176.0,-36.4494258005368,0.0
4.688,8181.0,-28.491796167270195,0.0
4.696,8190.0,-16.60576297983107,0.0
4.704,8202.0,-2.768435564395304,0.0
4.712,8214.0,10.737884348788384,0.0
4.72,8232.0,23.2265343963345,0.0
4.728,8257.0,35.87582012233861,0.0
4.736,8270.0,45.680820380706564,0.0
4.744,8267.0,46.59673804998397,1.0
4.752,8238.0,33.53616838033736,0.0
4.76,8196.0,6.222331514370808,0.0
4.768,8174.0,-23.949658236466803,0.0
4.776,8163.0,-44.90419955769585,0.0
4.784,8166.0,-52.12308066539981,0.0
4.792,8168.0,-47.46833666775001,0.0
4.8,8170.0,-36.70156531414227,0.0
4.808,8173.0,-23.748219856702917,0.0
4.816,8172.0,-12.078520617742697,0.0
4.824,8173.0,-3.3458334323652252,0.0
4.832,8170.0,1.9173295645512098,0.0
4.84,8169.0,3.922062393741953,0.0
4.848,8170.0,4.513027131077024,0.0
4.856,8169.0,4.178294520011832,0.0
4.864,8171.0,3.5511562623528334,0.0
4.872,8174.0,3.6633746468291974,0.0
4.88,8180.0,5.013036996108667,0.0
4.888,8181.0,6.48129527466881,0.0
4.896,8199.0,10.24869559631611,0.0
4.904,8183.0,11.331508361608485,0.0
4.912,8172.0,4.737769371008881,0.0
4.92,8172.0,-2.127367823665736,0.0
4.928,8169.0,-6.47776704323428,0.0
4.936,8160.0,-10.520089917323958,0.0
4.944,8451.0,46.29708925684167,0.0
4.952,8178.0,76.55690499128605,0.0
4.96,8150.0,21.351031581951474,0.0
4.968,8164.0,-17.39491088422642,0.0
4.976,8168.0,-33.994508734347164,0.0
4.984,8175.0,-36.41020569214356,0.0
4.992,8184.0,-29.049814751891518,0.0
5.0,8193.0,-16.615182041706703,0.0
5.008,8199.0,-3.67779067778406,0.0
5.016,8213.0,8.616974209705859,0.0
5.024,8229.0,20.71066762361511,0.0
5.032,8252.0,32.69060844911837,0.0
5.04,8269.0,42.99127657162944,0.0
5.048,8270.0,46.2425045804157,1.0
5.056,8243.0,35.84254451653328,0.0
5.064,8205.0,10.978318885441695,0.0
5.072,8175.0,-19.283241939340087,0.0
5.08,8165.0,-42.42834500669278,0.0
5.088,8160.0,-52.74819526340639,0.0
5.096,8164.0,-51.05838950244265,0.0
5.104,8168.0,-40.68358005198456,0.0
5.112,8170.0,-27.154018957722883,0.0
5.12,8171.0,-14.4228865728262,0.0
5.128,8169.0,-4.911336848672818,0.0
5.136,8167.0,0.6411913173299126,0.0
5.144,8166.0,3.214832675911339,0.0
5.152,8167.0,4.2494733526145865,0.0
5.16,8168.0,4.625689472912427,0.0
5.168,8168.0,4.351174767237353,0.0
5.176,8172.0,4.346341066384866,0.0
5.184,8171.0,4.297428288991796,0.0
5.192,8181.0,5.4556679185964185,0.0
5.2,8183.0,7.765115165390853,0.0
5.208,8197.0,11.222448534201249,0.0
5.216,8190.0,12.995759897214839,0.0
5.224,8172.0,6.966662110807647,0.0
5.232,8173.0,-1.1282786004035188,0.0
5.24,8174.0,-5.335951189663547,0.0
5.248,8164.0,-8.854076057780048,0.0
5.256,8437.0,44.13880992536542,0.0
5.264,8209.0,77.98028784932103,0.0
5.272,8157.0,28.96711922230088,0.0
5.28,8168.0,-12.787278883573208,0.0
5.288,8168.0,-33.29474960672451,0.0
5.296,8178.0,-38.331948706744924,0.0
5.304,8182.0,-32.63915253594132,0.0
5.312,8192.0,-21.463749945702148,0.0
5.32,8200.0,-7.9230626016665155,0.0
5.328,8211.0,5.167823042176451,0.0
5.336,8228.0,17.846671339263366,0.0
5.344,8249.0,30.40258661549842,0.0
5.352,8267.0,41.186475370898734,0.0
5.36,8268.0,45.20140925458895,1.0
5.368,8247.0,36.636750871815366,0.0
5.376,8205.0,13.146110219999628,0.0
5.384,8177.0,-17.040379114914913,0.0
5.392,8166.0,-40.27682868037414,0.0
5.4,8163.0,-50.77259555160617,0.0
5.408,8165.0,-49.48635082169676,0.0
5.416,8166.0,-40.610050440709756,0.0
5.424,8168.0,-28.59075556956509,0.0
5.432,8169.0,-16.53496591035855,0.0
5.44,8169.0,-6.693994954768414,0.0
5.448,8170.0,0.3451285163621378,0.0
5.456,8169.0,4.455728975690818,0.0
5.464,8169.0,6.006889380512803,0.0
5.472,8171.0,6.422129403045346,0.0
5.48,8170.0,5.898331871180517,0.0
5.488,8171.0,4.694302141903108,0.0
5.496,8173.0,3.8834318040971993,0.0
5.504,8178.0,4.245216093742556,0.0
5.512,8183.0,5.858558101103654,0.0
5.52,8185.0,7.354565115148944,0.0
5.528,8201.0,10.801677153482842,0.0
5.536,8184.0,10.998330951981643,0.0
5.544,8173.0,3.7267318129918294,0.0
5.552,8174.0,-3.181704704070853,0.0
5.56,8177.0,-5.967755385509236,0.0
5.568,8211.0,0.8484914903588106,0.0
5.576,8466.0,63.7939055531715,0.0
5.584,8162.0,81.33707019592953,0.0
5.592,8165.0,17.885860828079558,0.0
5.6,8169.0,-20.920681633060667,0.0
5.608,8174.0,-38.860277177140006,0.0
5.616,8179.0,-41.53503945743455,0.0
5.624,8188.0,-33.95947568076349,0.0
5.632,8195.0,-21.06182921059326,0.0
5.64,8203.0,-7.176448075661938,0.0
5.648,8220.0,7.2308982788702,0.0
5.656,8238.0,21.805618482709406,0.0
5.664,8259.0,35.08682698709458,1.0
5.672,8270.0,44.15936106116851,0.0
5.68,8263.0,43.646965682140944,0.0
5.688,8232.0,28.963109393162995,0.0
5.696,8193.0,1.5868940414043209,0.0
5.704,8171.0,-27.306296735034948,0.0
5.712,8166.0,-45.769847488860705,0.0
5.72,8167.0,-50.567115140434,0.0
5.728,8168.0,-45.32903814938254,0.0
5.736,8169.0,-34.95022918029531,0.0
5.744,8169.0,-23.309050564405425,0.0
5.752,8172.0,-12.277647056433125,0.0
5.76,8171.0,-3.483655346977912,0.0
5.768,8171.0,2.040959297744166,0.0
5.776,8171.0,4.998773770806338,0.0
5.784,8171.0,5.990147267380735,0.0
5.792,8173.0,6.076868537206337,0.0
5.8,8176.0,6.228334476326154,0.0
5.808,8174.0,5.57792298473305,0.0
5.816,8175.0,4.14329091323043,0.0
5.824,8184.0,4.709688306617863,0.0
5.832,8184.0,6.1693178720495325,0.0
5.84,8201.0,9.570312995031372,0.0
5.848,8196.0,12.582293382516355,0.0
5.856,8175.0,7.14412799477941,0.0
5.864,8173.0,-1.8540471385947512,0.0
5.872,8176.0,-6.690156823371353,0.0
5.88,8165.0,-10.170323971035941,0.0
5.888,8388.0,32.625226826039125,0.0
5.896,8261.0,72.60095466971075,0.0
5.904,8158.0,38.246182952133495,0.0
5.912,8166.0,-7.278323486161753,0.0
5.92,8171.0,-30.442051076151756,0.0
5.928,8176.0,-37.4826588770959,0.0
5.936,8180.0,-34.124941793442986,0.0
5.944,8191.0,-23.90093711252257,0.0
5.952,8200.0,-10.144796933222096,0.0
5.96,8209.0,3.2060474867430457,0.0
5.968,8224.0,15.518860008225829,0.0
5.976,8244.0,27.59832353135539,1.0
5.984,8262.0,38.32129806474404,0.0
5.992,8262.0,42.53030125231248,0.0
6.0,8244.0,34.89398828600383,0.0
6.008,8206.0,13.646698731774677,0.0
6.016,8174.0,-15.28897158948439,0.0
6.024,8162.0,-39.07272702741443,0.0
6.032,8158.0,-50.483327361106376,0.0
6.04,8162.0,-49.5776692804493,0.0
6.048,8162.0,-40.70830143587273,0.0
6.056,8164.0,-28.882511269063116,0.0
6.064,8163.0,-17.305528013815092,0.0
6.072,8161.0,-8.448099363174606,0.0
6.08,8162.0,-2.1332999054866377,0.0
6.088,8158.0,1.3117930563248592,0.0
6.096,8162.0,3.150332043306662,0.0
6.104,8157.0,3.555712622269766,0.0
6.112,8161.0,3.0520652007674016,0.0
6.12,8162.0,3.3129839581035867,0.0
6.128,8163.0,3.373605056880251,0.0
6.136,8166.0,3.7151812250820058,0.0
6.144,8172.0,5.192630900776749,0.0
6.152,8175.0,7.1178354863297955,0.0
6.16,8189.0,10.650364442538148,0.0
6.168,8169.0,9.898970336942966,0.0
6.176,8161.0,2.2333732759361737,0.0
6.184,8161.0,-4.273060533028911,0.0
6.192,8167.0,-6.247303401581803,0.0
6.2,8221.0,5.790347014259851,0.0
6.208,8401.0,59.83790155761335,0.0
6.216,8132.0,64.54663067787715,0.0
6.224,8151.0,6.470128156612873,0.0
6.232,8162.0,-22.728142759020557,0.0
6.24,8168.0,-33.07698331587471,0.0
6.248,8173.0,-31.935100398861323,0.0
6.256,8183.0,-23.35354219421629,0.0
6.264,8189.0,-11.468936981223578,0.0
6.272,8202.0,1.18014083010803,0.0
6.28,8218.0,14.4065852195572,0.0
6.288,8236.0,26.990702285554335,0.0
6.296,8259.0,38.71715311802723,0.0
6.304,8266.0,45.91120412760392,0.0
6.312,8259.0,43.205073577197936,1.0
6.32,8224.0,26.47363868622915,0.0
6.328,8186.0,-2.348980604439703,0.0
6.336,8163.0,-31.500847232512115,0.0
6.344,8157.0,-49.89003674146443,0.0
6.352,8160.0,-53.81435712787834,0.0
6.36,8164.0,-46.546196227825476,0.0
6.368,8167.0,-33.760759328867834,0.0
6.376,8166.0,-20.672341767870876,0.0
6.384,8166.0,-10.002003006755103,0.0
6.392,8164.0,-2.583762188972287,0.0
6.4,8162.0,1.3778987489604333,0.0
6.408,8167.0,4.1248152550267605,0.0
6.416,8164.0,5.532568116943594,0.0
6.424,8163.0,4.709104911416944,0.0
6.432,8165.0,3.7124550651722075,0.0
6.44,8171.0,4.194592575843444,0.0
6.448,8175.0,5.886786402551252,0.0
6.456,8183.0,8.446650630373142,0.0
6.464,8195.0,12.76595466515073,0.0
6.472,8179.0,12.567711243485974,0.0
6.48,8170.0,5.437536436091932,0.0
6.488,8169.0,-1.6466401387135647,0.0
6.496,8173.0,-4.973657932076094,0.0
6.504,8212.0,2.5977499236985295,0.0
6.512,8420.0,57.143922098640815,0.0
6.52,8134.0,64.80328101579903,0.0
6.528,8157.0,5.776954155511021,0.0
6.536,8172.0,-22.24354135351109,0.0
6.544,8175.0,-31.765017945330328,0.0
6.552,8184.0,-30.128441955008384,0.0
6.56,8191.0,-21.32393300298986,0.0
6.568,8199.0,-9.819488619682716,0.0
6.576,8209.0,2.150386038578972,0.0
6.584,8228.0,14.828050177171235,0.0
6.592,8245.0,27.432322093807215,0.0
6.6,8266.0,38.490835223241675,0.0
6.608,8271.0,44.50697814338923,0.0
6.616,8265.0,41.11283110044337,1.0
6.624,8232.0,24.90461551815315,0.0
6.632,8195.0,-2.7577878308409254,0.0
6.64,8174.0,-30.548622189971866,0.0
6.648,8164.0,-48.68586966348198,0.0
6.656,8162.0,-54.48246530656388,0.0
6.664,8171.0,-48.220271820785456,0.0
6.672,8171.0,-35.367351123793924,0.0
6.68,8174.0,-21.791144652121375,0.0
6.688,8174.0,-9.845501313189061,0.0
6.696,8172.0,-1.6967749745610945,0.0
6.704,8167.0,1.9495136919863398,0.0
6.712,8173.0,4.0146543356738675,0.0
6.72,8172.0,5.6488102451119175,0.0
6.728,8174.0,5.963121871451676,0.0
6.736,8174.0,5.653527236441505,0.0
6.744,8180.0,5.839096965201406,0.0
6.752,8183.0,6.902273994020561,0.0
6.76,8202.0,10.979187062424671,0.0
6.768,8181.0,11.317090730087557,0.0
6.776,8174.0,4.080698786023959,0.0
6.784,8173.0,-2.4519801765525244,0.0
6.792,8174.0,-5.943646608597874,0.0
6.8,8185.0,-4.655875507013889,0.0
6.808,8491.0,61.57495718498558,0.0
6.816,8154.0,85.07494659001827,0.0
6.824,8158.0,18.042261007281923,0.0
6.832,8170.0,-21.06736527744829,0.0
6.84,8176.0,-37.325257704566866,0.0
6.848,8180.0,-39.238190604548436,0.0
6.856,8190.0,-31.56031158520136,0.0
6.864,8198.0,-18.55729599594224,0.0
6.872,8208.0,-4.376414062321146,0.0
6.88,8223.0,9.781172770847888,0.0
6.888,8243.0,23.821533890429464,0.0
6.896,8262.0,36.481086742717935,0.0
6.904,8272.0,44.36168598004451,0.0
6.912,8271.0,44.1352115792522,0.0
6.92,8239.0,30.567928765935676,0.0
6.928,8201.0,3.6087435675469806,1.0
6.936,8175.0,-25.957254989613602,0.0
6.944,8167.0,-46.453339577850784,0.0
6.952,8168.0,-52.961921392888826,0.0
6.96,8167.0,-48.781433530537015,0.0
6.968,8170.0,-38.5046571385858,0.0
6.976,8173.0,-25.363423066034557,0.0
6.984,8174.0,-12.929121289709201,0.0
6.992,8172.0,-3.8195891466468765,0.0
7.0,8173.0,1.9425671195251653,0.0
7.008,8170.0,4.647179082888442,0.0
7.016,8171.0,5.133513288782751,0.0
7.024,8172.0,5.051430977119026,0.0
7.032,8174.0,4.849933545667682,0.0
7.04,8175.0,4.6083635982192845,0.0
7.048,8184.0,5.8098254563728915,0.0
7.056,8183.0,7.273936497658724,0.0
7.064,8198.0,9.897206263194448,0.0
7.072,8194.0,12.195379454214844,0.0
7.08,8176.0,7.210933682931227,0.0
7.088,8174.0,-0.9161384752369486,0.0
7.096,8173.0,-6.1964806177225,0.0
7.104,8165.0,-10.218514072684457,0.0
7.112,8418.0,39.005811273705376,0.0
7.12,8221.0,73.64410090003457,0.0
7.128,8155.0,29.23269653685111,0.0
7.136,8171.0,-11.679197844183363,0.0
7.144,8173.0,-30.426305648089738,0.0
7.152,8181.0,-34.85731898153108,0.0
7.16,8190.0,-28.719917953867025,0.0
7.168,8194.0,-18.080079831774356,0.0
7.176,8201.0,-6.79923452969706,0.0
7.184,8217.0,5.602001952525825,0.0
7.192,8235.0,19.032971170560586,0.0
7.2,8257.0,32.26243411121641,0.0
7.208,8269.0,42.141178890434276,0.0
7.216,8272.0,44.65886449925233,1.0
7.224,8253.0,36.10819544110541,0.0
7.232,8213.0,13.523166592096686,0.0
7.24,8183.0,-16.184911612214137,0.0
7.248,8168.0,-40.493933540440594,0.0
7.256,8165.0,-52.408305576593875,0.0
7.264,8167.0,-51.71302865566031,0.0
7.272,8173.0,-41.82713089897243,0.0
7.28,8176.0,-27.80043309521193,0.0
7.288,8176.0,-14.677290866722842,0.0
7.296,8173.0,-5.303938122128784,0.0
7.304,8172.0,0.2263835651081081,0.0
7.312,8174.0,3.6669850973667053,0.0
7.32,8173.0,5.350093771750608,0.0
7.328,8172.0,5.125742452927852,0.0
7.336,8173.0,4.215938395420835,0.0
7.344,8175.0,3.6515982251589776,0.0
7.352,8179.0,3.990027932168232,0.0
7.36,8185.0,5.628247615261671,0.0
7.368,8186.0,7.173885033838815,0.0
7.376,8204.0,10.88204246887085,0.0
7.384,8185.0,11.220893754214785,0.0
7.392,8177.0,4.203947650986265,0.0
7.4,8176.0,-2.4219382100918665,0.0
7.408,8177.0,-5.973281764964895,0.0
7.416,8185.0,-5.3292130488353,0.0
7.424,8507.0,63.278931748579,0.0
7.432,8183.0,93.85124086156702,0.0
7.44,8166.0,28.036117097973147,0.0
7.448,8169.0,-17.99765640874557,0.0
7.456,8175.0,-40.654589604215516,0.0
7.464,8179.0,-45.84713865147614,0.0
7.472,8189.0,-39.10682468240566,0.0
7.48,8197.0,-25.514143057617957,0.0
7.488,8207.0,-9.929793473209884,0.0
7.496,8220.0,5.491158034125419,0.0
7.504,8240.0,20.520486161780354,0.0
7.512,8264.0,35.286894393220564,1.0
7.52,8273.0,45.41174138141514,0.0
7.528,8269.0,45.536107310270154,0.0
7.536,8238.0,31.55531691265537,0.0
7.544,8200.0,4.406185137270768,0.0
7.552,8175.0,-25.188748242628435,0.0
7.56,8166.0,-45.81845953122206,0.0
7.568,8164.0,-53.31952656261274,0.0
7.576,8167.0,-49.46747483198715,0.0
7.584,8169.0,-38.668020595008784,0.0
7.592,8173.0,-25.19290787834575,0.0
7.6,8173.0,-12.587002937450507,0.0
7.608,8171.0,-3.632154970453712,0.0
7.616,8170.0,1.601502446920449,0.0
7.624,8171.0,4.45387214110292,0.0
7.632,8171.0,5.669800112378653,0.0
7.64,8171.0,5.529289289648659,0.0
7.648,8171.0,4.607885899610892,0.0
7.656,8173.0,3.772961210936046,0.0
7.664,8174.0,3.320065145792114,0.0
7.672,8185.0,5.000471986716093,0.0
7.68,8185.0,7.483440313304982,0.0
7.688,8203.0,11.494700643557053,0.0
7.696,8192.0,13.554326865064468,0.0
7.704,8174.0,6.792666571395102,0.0
7.712,8176.0,-1.5048297970809017,0.0
7.72,8178.0,-5.3666022134857485,0.0
7.728,8165.0,-9.084116881227601,0.0
7.736,8451.0,45.86873545025105,0.0
7.744,8231.0,84.89737442301475,0.0
7.752,8167.0,37.085969021293295,0.0
7.76,8170.0,-9.274638240514832,0.0
7.768,8175.0,-33.65167372043038,0.0
7.776,8180.0,-40.92321312965305,0.0
7.784,8187.0,-36.567537510348075,0.0
7.792,8195.0,-25.38301545488548,0.0
7.8,8205.0,-11.242727962018307,0.0
7.808,8218.0,3.5232639707498947,0.0
7.816,8234.0,17.646402756561656,0.0
7.824,8257.0,31.291132952072758,1.0
7.832,8272.0,42.37993011885533,0.0
7.84,8271.0,45.37274038616374,0.0
7.848,8248.0,35.360420662685556,0.0
7.856,8209.0,11.411443029724524,0.0
7.864,8180.0,-18.374508370483,0.0
7.872,8167.0,-41.78471319208279,0.0
7.88,8164.0,-52.563227193696775,0.0
7.888,8169.0,-50.55981528504617,0.0
7.896,8167.0,-41.09663353362225,0.0
7.904,8172.0,-28.656486247278963,0.0
7.912,8174.0,-15.524636319749106,0.0
7.92,8173.0,-5.200462986799721,0.0
7.928,8171.0,1.0807852012858348,0.0
7.936,8170.0,4.018742758017197,0.0
7.944,8171.0,5.146957176317073,0.0
7.952,8173.0,5.646744336331267,0.0
7.96,8173.0,5.494806194838475,0.0
7.968,8174.0,4.776173575817211,0.0
7.976,8172.0,3.422750315841313,0.0
7.984,8178.0,2.920611980128342,0.0
7.992,8185.0,4.8367596625676015,0.0
8.0,8184.0,6.46246133339946,0.0
8.008,8208.0,11.143032162678537,0.0
8.016,8189.0,13.243202953894752,0.0
8.024,8175.0,5.735487411983968,0.0
8.032,8176.0,-2.2300414885030477,0.0
8.04,8179.0,-5.785538239185598,0.0
8.048,8182.0,-5.785292323645308,0.0
8.056,8510.0,62.715544556587474,0.0
8.064,8191.0,95.55711715979601,0.0
8.072,8166.0,30.21249862823447,0.0
8.08,8170.0,-17.303089758883516,0.0
8.088,8173.0,-41.35027198271837,0.0
8.096,8177.0,-47.87244082624102,0.0
8.104,8182.0,-42.63290621887745,0.0
8.112,8192.0,-30.006089926384902,0.0
8.12,8199.0,-14.516220165596678,0.0
8.128,8216.0,1.748513376433948,0.0
8.136,8230.0,17.435680266054987,0.0
8.144,8252.0,31.42441964761838,1.0
8.152,8264.0,41.879252146407,0.0
8.16,8259.0,43.14293967447816,0.0
8.168,8228.0,29.994473829326125,0.0
8.176,8189.0,3.36991883259725,0.0
8.184,8163.0,-26.166272150494024,0.0
8.192,8152.0,-47.22594159275059,0.0
8.2,8151.0,-54.972195097985605,0.0
8.208,8155.0,-50.605980537987534,0.0
8.216,8157.0,-39.125539523717634,0.0
8.224,8161.0,-25.178327079735027,0.0
8.232,8157.0,-13.112637056781068,0.0
8.24,8160.0,-4.19327814055805,0.0
8.248,8156.0,1.5130656550854837,0.0
8.256,8154.0,3.4325844098070775,0.0
8.264,8156.0,4.047364323889269,0.0
8.272,8156.0,4.205917595698793,0.0
8.28,8157.0,3.8663198116178137,0.0
8.288,8158.0,3.4879041711353693,0.0
8.296,8167.0,4.778310586489852,0.0
8.304,8169.0,7.064315594902155,0.0
8.312,8176.0,9.183928979232633,0.0
8.32,8184.0,12.109585169334423,0.0
8.328,8166.0,9.960849127099891,0.0
8.336,8161.0,2.4809889149526043,0.0
8.344,8166.0,-2.3187352869995266,0.0
8.352,8160.0,-5.010037452870392,0.0
8.36,8237.0,8.66327022212613,0.0
8.368,8356.0,55.47914937980772,0.0
8.376,8120.0,50.85149279728603,0.0
8.384,8149.0,-1.885252838850647,0.0
8.392,8157.0,-25.22872018422686,0.0
8.4,8162.0,-32.55312580590726,0.0
8.408,8171.0,-29.08911756326438,0.0
8.416,8175.0,-19.974344508254717,0.0
8.424,8187.0,-8.286723167271475,0.0
8.432,8198.0,4.580600828736124,0.0
8.44,8207.0,15.5818583602736,0.0
8.448,8228.0,25.854615009308645,0.0
8.456,8248.0,36.386375342553265,0.0
8.464,8256.0,42.81866013388549,0.0
8.472,8240.0,38.49648187565981,1.0
8.48,8196.0,17.845782276781847,0.0
8.488,8158.0,-13.82530624921219,0.0
8.496,8134.0,-43.12610728313348,0.0
8.504,8127.0,-60.249451360667535,0.0
8.512,8128.0,-62.46744578538437,0.0
8.52,8129.0,-53.899760269168155,0.0
8.528,8133.0,-39.639501196954825,0.0
8.536,8130.0,-24.99189040162082,0.0
8.544,8123.0,-14.583260192359603,0.0
8.552,8123.0,-7.6467248381136415,0.0
8.56,8121.0,-2.79373717042904,0.0
8.568,8114.0,-1.3388321522656952,0.0
8.576,8113.0,-1.9098275603316779,0.0
8.584,8112.0,-2.366562551176912,0.0
8.592,8112.0,-2.4821768796764445,0.0
8.6,8114.0,-1.765622041084498,0.0
8.608,8112.0,-1.0741635489553119,0.0
8.616,8124.0,1.540627979234614,0.0
8.624,8104.0,1.219027397446098,0.0
8.632,8094.0,-5.2850103276489335,0.0
8.64,8098.0,-9.556022514369033,0.0
8.648,8096.0,-10.224484624380011,0.0
8.656,8152.0,1.9625850514739795,0.0
8.664,8323.0,55.248734023203724,0.0
8.672,8062.0,59.99864028568936,0.0
8.68,8085.0,5.087628775586154,0.0
8.688,8092.0,-22.028972750220646,0.0
8.696,8101.0,-31.457020712040276,0.0
8.704,8109.0,-28.790383078465084,0.0
8.712,8122.0,-18.55805876670979,0.0
8.72,8132.0,-4.994139320288241,0.0
8.728,8142.0,7.870727233985008,0.0
8.736,8159.0,19.80181521068357,0.0
8.744,8180.0,31.619083377805737,0.0
8.752,8199.0,41.986003006859846,0.0
8.76,8209.0,47.67613245283337,0.0
8.768,8199.0,43.813001202691794,1.0
8.776,8157.0,24.262140758646865,0.0
8.784,8117.0,-7.731300385531995,0.0
8.792,8101.0,-36.920858499976475,0.0
8.8,8096.0,-52.876194414330485,0.0
8.808,8100.0,-54.49979939851596,0.0
8.816,8110.0,-44.33697229361678,0.0
8.824,8116.0,-28.335871579497734,0.0
8.832,8121.0,-12.329485336171729,0.0
8.84,8124.0,0.6403672020940121,0.0
8.848,8126.0,9.23513350622602,0.0
8.856,8125.0,13.12220970727094,0.0
8.864,8129.0,14.044440757977782,0.0
8.872,8133.0,14.094950283305707,0.0
8.88,8138.0,13.826568119718104,0.0
8.888,8145.0,14.023186313773067,0.0
8.896,8155.0,15.486499435242877,0.0
8.904,8166.0,18.294281604322805,0.0
8.912,8174.0,21.062885984656077,0.0
8.92,8159.0,18.076746150303734,0.0
8.928,8157.0,10.096985877363295,0.0
8.936,8159.0,3.846946568885869,0.0
8.944,8155.0,-0.8411605300989322,0.0
8.952,8339.0,33.28797889940256,0.0
8.96,8288.0,75.59705480975413,0.0
8.968,8152.0,50.95291259134933,0.0
8.976,8172.0,4.954448922778511,0.0
8.984,8176.0,-18.096899810908326,0.0
8.992,8187.0,-25.92121346745853,0.0
9.0,8197.0,-22.328220432487115,0.0
9.008,8204.0,-13.344994493822924,0.0
9.016,8217.0,-1.9230543149114965,0.0
9.024,8228.0,10.026639792744618,0.0
9.032,8249.0,22.11113862360753,0.0
9.04,8273.0,35.099118799637836,0.0
9.048,8288.0,45.42648030997316,0.0
9.056,8297.0,49.5500940595216,1.0
9.064,8279.0,42.63770589154319,0.0
9.072,8240.0,20.44020445353067,0.0
9.08,8205.0,-10.904598560851355,0.0
9.088,8190.0,-38.00363874956338,0.0
9.096,8188.0,-51.74128024546371,0.0
9.104,8192.0,-51.612508317695074,0.0
9.112,8196.0,-42.07688074974885,0.0
9.12,8197.0,-29.036670430062486,0.0
9.128,8195.0,-17.12671039867655,0.0
9.136,8195.0,-7.895169868397261,0.0
9.144,8195.0,-1.2386510754477058,0.0
9.152,8194.0,2.6814964638831498,0.0
9.16,8196.0,4.797619565293644,0.0
9.168,8194.0,5.321715524159799,0.0
9.176,8196.0,4.824830122026015,0.0
9.184,8203.0,5.638179136826011,0.0
9.192,8206.0,7.307386139061919,0.0
9.2,8208.0,8.208170538621061,0.0
9.208,8220.0,10.356648949125201,0.0
9.216,8199.0,8.218357895309964,0.0
9.224,8193.0,0.19165377307831477,0.0
9.232,8193.0,-5.810187731960923,0.0
9.24,8198.0,-7.457269741347545,0.0
9.248,8283.0,11.086332975167807,0.0
9.256,8422.0,66.13555475772546,0.0
9.264,8180.0,67.62165813239221,0.0
9.272,8189.0,10.646203613004445,0.0
9.28,8192.0,-22.211466498290974,0.0
9.288,8200.0,-36.028608872073846,0.0
9.296,8208.0,-35.46886853649721,0.0
9.304,8219.0,-25.87862423719389,0.0
9.312,8227.0,-12.401749015389669,0.0
9.32,8241.0,1.943322441836699,0.0
9.328,8256.0,16.057067336921136,0.0
9.336,8278.0,29.528602361635876,0.0
9.344,8295.0,40.986493455729715,0.0
9.352,8306.0,47.269058248885585,0.0
9.36,8290.0,42.7965054190845,1.0
9.368,8250.0,22.222143519295287,0.0
9.376,8214.0,-8.841502092128394,0.0
9.384,8200.0,-36.0870560326066,0.0
9.392,8197.0,-50.201922081979774,0.0
9.4,8197.0,-51.5511291220987,0.0
9.408,8203.0,-43.30748333830479,0.0
9.416,8205.0,-30.231872565095273,0.0
9.424,8208.0,-16.893965066849432,0.0
9.432,8210.0,-5.42311992819009,0.0
9.44,8208.0,2.182927968729018,0.0
9.448,8208.0,5.941572860843507,0.0
9.456,8209.0,7.467917500944168,0.0
9.464,8209.0,7.442671588569738,0.0
9.472,8213.0,7.116547632620723,0.0
9.48,8214.0,6.866229963146452,0.0
9.488,8221.0,7.311597592729868,0.0
9.496,8222.0,8.100869371739464,0.0
9.504,8240.0,11.221171647217034,0.0
9.512,8226.0,12.182454495501133,0.0
9.52,8213.0,5.3878294343201105,0.0
9.528,8211.0,-2.511871527080075,0.0
9.536,8212.0,-7.007213104190896,0.0
9.544,8216.0,-7.58187036433219,0.0
9.552,8543.0,60.85135216241474,0.0
9.56,8234.0,95.77427873804231,0.0
9.568,8202.0,32.240547728826186,0.0
9.576,8202.0,-16.758870011980207,0.0
9.584,8208.0,-41.970397430957746,0.0
9.592,8210.0,-48.882838941460705,0.0
9.6,8219.0,-43.312321016872374,0.0
9.608,8225.0,-30.386754433402757,0.0
9.616,8236.0,-14.662491010623626,0.0
9.624,8248.0,1.5587381189964162,0.0
9.632,8269.0,17.657550388473965,0.0
9.64,8294.0,33.899106282652156,0.0
9.648,8304.0,45.515359873541456,0.0
9.656,8299.0,46.50603142203181,1.0
9.664,8265.0,32.073317498661254,0.0
9.672,8228.0,4.169782243541476,0.0
9.68,8202.0,-25.83546264149868,0.0
9.688,8193.0,-46.81408276574916,0.0
9.696,8193.0,-53.96194402457013,0.0
9.704,8193.0,-50.007909736653346,0.0
9.712,8197.0,-39.270507697166295,0.0
9.72,8198.0,-25.945049215973768,0.0
9.728,8198.0,-13.926518511452514,0.0
9.736,8198.0,-4.707354678948377,0.0
9.744,8197.0,1.254233321033098,0.0
9.752,8196.0,4.181148411568074,0.0
9.76,8195.0,4.869608070934646,0.0
9.768,8198.0,4.947073565253731,0.0
9.776,8198.0,4.855754258648858,0.0
9.784,8202.0,4.882761808102487,0.0
9.792,8203.0,5.179953826175733,0.0
9.8,8209.0,6.000476324327565,0.0
9.808,8227.0,10.479208723005286,0.0
9.816,8203.0,10.3133470006876,0.0
9.824,8194.0,1.90970431103392,0.0
9.832,8199.0,-4.1669331332725505,0.0
9.84,8200.0,-5.90308530680386,0.0
9.848,8268.0,8.061891446122445,0.0
9.856,8401.0,56.16294345794654,0.0
9.864,8163.0,54.64327462084111,0.0
9.872,8187.0,1.7396031627702087,0.0
9.88,8197.0,-22.865057267136308,0.0
9.888,8196.0,-32.110892894665085,0.0
9.896,8205.0,-31.07606786484007,0.0
9.904,8216.0,-21.666558868405218,0.0
9.912,8225.0,-8.730868209360551,0.0
9.92,8236.0,4.328997081714078,0.0
9.928,8253.0,17.116675909978767,0.0
9.936,8271.0,29.234726833593186,1.0
9.944,8293.0,40.14102548475421,0.0
9.952,8298.0,46.02126151607263,0.0
9.96,8286.0,41.09135118422773,0.0
9.968,8245.0,21.11793279337462,0.0
9.976,8206.0,-10.240107735211268,0.0
9.984,8184.0,-39.69503028776899,0.0
9.992,8182.0,-55.999607578355835,0.0
10.0,8179.0,-58.173410331101195,0.0
10.008,8187.0,-49.6177139194308,0.0
10.016,8185.0,-35.80945312921426,0.0
10.024,8187.0,-22.214134691922936,0.0
10.032,8189.0,-9.988757460946317,0.0
10.04,8187.0,-1.2442759882123937,0.0
10.048,8185.0,3.2986395679943143,0.0
10.056,8187.0,5.4851996445743225,0.0
10.064,8183.0,5.538105009981564,0.0
10.072,8186.0,4.525450243183059,0.0
10.08,8192.0,5.079163629372488,0.0
10.088,8196.0,6.679575898137273,0.0
10.096,8208.0,9.882167715904188,0.0
10.104,8209.0,12.933832683420405,0.0
10.112,8189.0,8.895944953590742,0.0
10.12,8183.0,-0.15260688277430745,0.0
10.128,8184.0,-6.502272638135082,0.0
10.136,8176.0,-10.701738986561168,0.0
10.144,8366.0,25.61996350890854,0.0
10.152,8267.0,61.80764462360503,0.0
10.16,8152.0,30.11783470581372,0.0
10.168,8177.0,-11.576760059172102,0.0
10.176,8183.0,-28.14637564121267,0.0
10.184,8187.0,-31.635287964589452,0.0
10.192,8196.0,-26.24643118324343,0.0
10.2,8203.0,-15.811388211630401,0.0
10.208,8213.0,-3.769813906171521,0.0
10.216,8226.0,8.622020530305235,0.0
10.224,8245.0,21.18095728228991,0.0
10.232,8267.0,33.77334243622522,0.0
10.24,8286.0,44.476354696729686,0.0
10.248,8289.0,48.55757628977835,1.0
10.256,8264.0,39.11468416347884,0.0
10.264,8225.0,14.524672764065826,0.0
10.272,8194.0,-16.520988972059058,0.0
10.28,8178.0,-41.97870394982783,0.0
10.288,8177.0,-54.1430016179354,0.0
10.296,8177.0,-53.33252990840879,0.0
10.304,8181.0,-43.95017393520379,0.0
10.312,8183.0,-30.512294001384817,0.0
10.32,8185.0,-17.12192674340372,0.0
10.328,8184.0,-6.402698605618525,0.0
10.336,8183.0,0.49875827742698675,0.0
10.344,8184.0,4.5046508583773175,0.0
10.352,8184.0,6.395071710285038,0.0
10.36,8183.0,6.33919430592573,0.0
10.368,8183.0,5.140750995526787,0.0
10.376,8187.0,4.469798365080351,0.0
10.384,8192.0,5.234031312983916,0.0
10.392,8211.0,9.795676274875632,0.0
10.4,8202.0,13.051293681749485,0.0
10.408,8185.0,7.686108844423416,0.0
10.416,8182.0,-0.738173932914151,0.0
10.424,8184.0,-5.812665822209738,0.0
10.432,8175.0,-9.362548981546297,0.0
10.44,8445.0,43.280044048917034,0.0
10.448,8236.0,80.31337153024242,0.0
10.456,8168.0,33.44703691775135,0.0
10.464,8176.0,-11.598651154119807,0.0
10.472,8180.0,-34.02849450655822,0.0
10.48,8187.0,-39.887036398462214,0.0
10.488,8192.0,-34.85281299981489,0.0
10.496,8202.0,-23.526971381802923,0.0
10.504,8208.0,-9.9931075704676,0.0
10.512,8224.0,4.0204883712742685,0.0
10.52,8242.0,18.644780441800776,0.0
10.528,8265.0,32.84312767088613,0.0
10.536,8281.0,44.22833314463355,0.0
10.544,8285.0,48.342004025542565,1.0
10.552,8256.0,38.338083181446336,0.0
10.56,8213.0,11.899615604302426,0.0
10.568,8183.0,-20.45413289065891,0.0
10.576,8172.0,-44.86333223247584,0.0
10.584,8170.0,-55.15299248858537,0.0
10.592,8171.0,-53.080736766741666,0.0
10.6,8176.0,-42.5817369725396,0.0
10.608,8177.0,-28.690946919730095,0.0
10.616,8178.0,-15.7174687284446,0.0
10.624,8177.0,-5.662021334268502,0.0
10.632,8176.0,0.7345812944156478,0.0
10.64,8175.0,3.9975487001331658,0.0
10.648,8176.0,5.321186676650768,0.0
10.656,8176.0,5.5015301094556435,0.0
10.664,8177.0,4.978388840852631,0.0
10.672,8184.0,5.548628040907488,0.0
10.68,8187.0,7.087637302649227,0.0
10.688,8190.0,8.149040314823878,0.0
10.696,8203.0,10.810074796502704,0.0
10.704,8186.0,9.927667969219556,0.0
10.712,8178.0,2.793141773710204,0.0
10.72,8178.0,-3.4840851123974517,0.0
10.728,8179.0,-6.463897492561728,0.0
10.736,8235.0,4.398996519749062,0.0
10.744,8439.0,63.27456865229965,0.0
10.752,8162.0,73.5863533079887,0.0
10.76,8166.0,12.754040983431196,0.0
10.768,8167.0,-24.1342472706815,0.0
10.776,8171.0,-41.26937925446555,0.0
10.784,8177.0,-43.1031348007491,0.0
10.792,8186.0,-34.588158440752295,0.0
10.8,8193.0,-21.039629190465575,0.0
10.808,8203.0,-6.364081188906994,0.0
10.816,8221.0,9.000306611997985,0.0
10.824,8239.0,24.077057185279727,0.0
10.832,8263.0,37.92369117723388,0.0
10.84,8269.0,46.49191320782302,0.0
10.848,8255.0,42.876016188437916,1.0
10.856,8210.0,22.18332187860733,0.0
10.864,8174.0,-9.965923627574739,0.0
10.872,8155.0,-38.70452810074221,0.0
10.88,8148.0,-55.1442495316187,0.0
10.888,8147.0,-58.140561155113346,0.0
10.896,8148.0,-51.09777957793085,0.0
10.904,8151.0,-38.36846035149665,0.0
10.912,8151.0,-24.41034800331363,0.0
10.92,8147.0,-13.271849784991218,0.0
10.928,8146.0,-5.693895341800044,0.0
10.936,8142.0,-1.3705479570671741,0.0
10.944,8139.0,-0.03604196379501445,0.0
10.952,8140.0,0.3500454190900655,0.0
10.96,8136.0,-0.087596629361542,0.0
10.968,8132.0,-1.9675433267657354,0.0
10.976,8135.0,-2.985338736449876,0.0
10.984,8136.0,-2.317445376790147,0.0
10.992,8153.0,2.1063125654507076,0.0
11.0,8145.0,6.241881291461141,0.0
11.008,8122.0,1.4079813851590188,0.0
11.016,8119.0,-6.976067079123823,0.0
11.024,8119.0,-11.48962788084782,0.0
11.032,8105.0,-15.277188633895776,0.0
11.04,8375.0,37.10006732255965,0.0
11.048,8174.0,76.54783890705085,0.0
11.056,8096.0,31.271700100152202,0.0
11.064,8098.0,-15.772555244618388,0.0
11.072,8099.0,-40.590242279433596,0.0
11.08,8101.0,-48.50051916912366,0.0
11.088,8106.0,-44.395286930142674,0.0
11.096,8112.0,-32.98930076746228,0.0
11.104,8119.0,-18.58634125423214,0.0
11.112,8136.0,-2.347326242129384,0.0
11.12,8151.0,14.149909206894336,0.0
11.128,8174.0,29.5244851236846,0.0
11.136,8194.0,42.92565898307021,0.0
11.144,8192.0,48.020469374089544,1.0
11.152,8164.0,37.62403714564948,0.0
11.16,8117.0,10.448794317247348,0.0
11.168,8090.0,-22.325021039114517,0.0
11.176,8075.0,-46.90329932826012,0.0
11.184,8074.0,-57.59657197756178,0.0
11.192,8077.0,-54.77963399350483,0.0
11.2,8078.0,-43.99125911325086,0.0
11.208,8081.0,-30.12423456642773,0.0
11.216,8080.0,-16.94750793119283,0.0
11.224,8081.0,-6.585371280470781,0.0
11.232,8082.0,0.9498009167073178,0.0
11.24,8084.0,5.874990774608932,0.0
11.248,8084.0,8.305623638782436,0.0
11.256,8089.0,9.505369450178705,0.0
11.264,8091.0,10.203876710230588,0.0
11.272,8102.0,11.725855317725973,0.0
11.28,8104.0,13.504083600995955,0.0
11.288,8121.0,16.390062068856196,0.0
11.296,8124.0,19.697914593652513,0.0
11.304,8110.0,16.420427700007394,0.0
11.312,8107.0,8.519482683889464,0.0
11.32,8112.0,2.9638243411077383,0.0
11.328,8111.0,0.04606969991959886,0.0
11.336,8235.0,23.44253109397505,0.0
11.344,8245.0,61.101305830132105,0.0
11.352,8086.0,43.66814113268447,0.0
11.36,8118.0,0.791385953412373,0.0
11.368,8122.0,-17.33101014979752,0.0
11.376,8129.0,-23.173670556540173,0.0
11.384,8143.0,-18.82529099242811,0.0
11.392,8154.0,-8.292009561200985,0.0
11.4,8164.0,3.4848395463388897,0.0
11.408,8179.0,15.028826492294002,0.0
11.416,8199.0,26.727902702655,0.0
11.424,8221.0,38.175086175198885,0.0
11.432,8244.0,48.35067503982259,0.0
11.44,8251.0,53.16699320601583,0.0
11.448,8235.0,46.11590468547229,0.0
11.456,8198.0,24.126243392833658,0.0
11.464,8163.0,-7.245888664874656,0.0
11.472,8147.0,-35.12009563476499,0.0
11.48,8142.0,-50.57055195633825,0.0
11.488,8148.0,-51.83653294431542,0.0
11.496,8152.0,-42.68319352508661,0.0
11.504,8155.0,-29.368541964373662,0.0
11.512,8161.0,-15.202953950647952,0.0
11.52,8162.0,-3.09039551606611,0.0
11.528,8161.0,4.541492011007676,0.0
11.536,8161.0,8.162133094042701,0.0
11.544,8166.0,10.087402664494448,0.0
11.552,8168.0,11.126740374249493,0.0
11.56,8170.0,10.87166110464318,0.0
11.568,8179.0,11.319844565614403,0.0
11.576,8186.0,13.13749066474702,0.0
11.584,8202.0,16.919563877329892,0.0
11.592,8187.0,16.795370971023658,0.0
11.6,8182.0,10.089530522076757,0.0
11.608,8182.0,3.572511495683557,0.0
11.616,8186.0,-0.00607442614818865,0.0
11.624,8196.0,0.738688254246199,0.0
11.632,8510.0,67.2606128904713,0.0
11.64,8176.0,92.31805014329848,0.0
11.648,8178.0,25.312597481992043,0.0
11.656,8186.0,-16.108997068480903,0.0
11.664,8192.0,-35.30313416008812,0.0
11.672,8199.0,-38.64623263847443,0.0
11.68,8208.0,-31.495297350639703,0.0
11.688,8214.0,-19.426674813731097,0.0
11.696,8227.0,-5.462282476063365,0.0
11.704,8241.0,9.140504884104757,0.0
11.712,8264.0,23.94989132373189,0.0
11.72,8290.0,39.08779222353064,1.0
11.728,8300.0,49.46898086138481,0.0
11.736,8294.0,48.92552060026742,0.0
11.744,8259.0,32.81009888747144,0.0
11.752,8220.0,3.1868057917756687,0.0
11.76,8195.0,-27.890771036665,0.0
11.768,8186.0,-48.98765666761324,0.0
11.776,8186.0,-55.87592049288173,0.0
11.784,8191.0,-50.45667516506933,0.0
11.792,8196.0,-37.55890665039601,0.0
11.8,8197.0,-23.011009094585006,0.0
11.808,8198.0,-10.510064226610893,0.0
11.816,8198.0,-1.319275424452826,0.0
11.824,8199.0,4.520460471881961,0.0
11.832,8199.0,7.4930163132173675,0.0
11.84,8202.0,8.727853693435463,0.0
11.848,8204.0,9.156392966943258,0.0
11.856,8209.0,9.451718905891994,0.0
11.864,8216.0,10.644991921683186,0.0
11.872,8217.0,11.371191787203315,0.0
11.88,8237.0,14.366975606280903,0.0
11.888,8219.0,14.369075784527695,0.0
11.896,8210.0,6.675674076456289,0.0
11.904,8212.0,-0.31640776657513925,0.0
11.912,8215.0,-3.382038167769906,0.0
11.92,8244.0,1.855336350598236,0.0
11.928,8519.0,66.778870703542,0.0
11.936,8207.0,87.49094636660811,0.0
11.944,8207.0,22.733516420017622,0.0
11.952,8212.0,-17.98908619345889,0.0
11.96,8217.0,-37.30200020015991,0.0
11.968,8225.0,-40.412291465082944,0.0
11.976,8231.0,-33.26452065987269,0.0
11.984,8240.0,-20.929534456113743,0.0
11.992,8252.0,-6.171162175650807,0.0
12.0,8264.0,8.395755670528843,0.0
12.008,8287.0,22.888240061522083,0.0
12.016,8307.0,36.773879528924,0.0
12.024,8318.0,45.7437951753418,0.0
12.032,8310.0,44.7261916895427,1.0
12.04,8270.0,27.536924514767634,0.0
12.048,8234.0,-2.330565188733317,0.0
12.056,8213.0,-31.285955153566874,0.0
12.064,8206.0,-49.38722803913174,0.0
12.072,8207.0,-53.83040921619636,0.0
12.08,8209.0,-47.68387134348177,0.0
12.088,8211.0,-36.00217795063463,0.0
12.096,8215.0,-22.409483662736648,0.0
12.104,8214.0,-10.360341963913925,0.0
12.112,8214.0,-1.868050122016939,0.0
12.12,8213.0,3.2331948965586434,0.0
12.128,8211.0,5.146969808484982,0.0
12.136,8211.0,5.0898301126676415,0.0
12.144,8212.0,4.488660292314762,0.0
12.152,8215.0,4.269798866757355,0.0
12.16,8221.0,5.331720092548721,0.0
12.168,8221.0,6.377191801760773,0.0
12.176,8235.0,8.888836037075862,0.0
12.184,8221.0,9.026565834795974,0.0
12.192,8210.0,2.6319644772283937,0.0
12.2,8208.0,-4.204739820464056,0.0
12.208,8212.0,-7.201865635213835,0.0
12.216,8222.0,-5.022261523472707,0.0
12.224,8533.0,62.60875148238074,0.0
12.232,8216.0,91.88759040634841,0.0
12.24,8194.0,26.013824740888595,0.0
12.248,8194.0,-21.38243269291388,0.0
12.256,8197.0,-45.55776954567932,0.0
12.264,8202.0,-51.31352170755122,0.0
12.272,8209.0,-44.48611858696563,0.0
12.28,8218.0,-30.434969779871835,0.0
12.288,8225.0,-14.242029694344183,0.0
12.296,8240.0,1.9883263182132396,0.0
12.304,8261.0,18.640308042480683,0.0
12.312,8283.0,34.44710730706538,0.0
12.32,8293.0,45.11026064743669,0.0
12.328,8285.0,44.985785630406326,0.0
12.336,8247.0,28.693957302705257,0.0
12.344,8203.0,-2.0440133196113948,1.0
12.352,8183.0,-32.98775468052486,0.0
12.36,8175.0,-52.00692240830449,0.0
12.368,8174.0,-57.20867096685856,0.0
12.376,8177.0,-51.20286506066441,0.0
12.384,8178.0,-39.07087933693833,0.0
12.392,8176.0,-26.176737325517934,0.0
12.4,8179.0,-14.37815981802055,0.0
12.408,8175.0,-5.424902614910479,0.0
12.416,8172.0,-0.7375875663315128,0.0
12.424,8172.0,1.5334073341373369,0.0
12.432,8171.0,2.439686498625406,0.0
12.44,8172.0,2.605773232448655,0.0
12.448,8175.0,3.126133971011541,0.0
12.456,8183.0,5.207224711993831,0.0
12.464,8185.0,7.691509858657355,0.0
12.472,8203.0,12.080604803712504,0.0
12.48,8191.0,14.070550982833083,0.0
12.488,8177.0,7.802318830380955,0.0
12.496,8175.0,-0.3564401487099076,0.0
12.504,8175.0,-5.536077873234717,0.0
12.512,8172.0,-8.372874806743766,0.0
12.52,8491.0,55.777935292102484,0.0
12.528,8199.0,90.7761475180323,0.0
12.536,8166.0,31.313529195348337,0.0
12.544,8166.0,-15.341993086869024,0.0
12.552,8173.0,-39.177859037397866,0.0
12.56,8180.0,-44.47431345968698,0.0
12.568,8183.0,-38.820788758489925,0.0
12.576,8194.0,-26.73140223452515,0.0
12.584,8205.0,-11.034344738105801,0.0
12.592,8214.0,4.007822578979585,0.0
12.6,8237.0,18.83372870019275,0.0
12.608,8256.0,33.32696418455566,0.0
12.616,8271.0,43.79170663839659,0.0
12.624,8267.0,45.58850752016042,1.0
12.632,8239.0,33.201750379095756,0.0
12.64,8200.0,7.154310145167756,0.0
12.648,8168.0,-23.840139456378665,0.0
12.656,8157.0,-47.34069476017521,0.0
12.664,8155.0,-56.71738702951234,0.0
12.672,8158.0,-53.45942121911912,0.0
12.68,8162.0,-41.99748057623901,0.0
12.688,8166.0,-27.217187410358747,0.0
12.696,8166.0,-13.532496232937774,0.0
12.704,8165.0,-3.592007096147654,0.0
12.712,8165.0,2.6270716410849673,0.0
12.72,8164.0,5.702428659852558,0.0
12.728,8165.0,6.65663423742626,0.0
12.736,8165.0,6.416026345410955,0.0
12.744,8175.0,7.343994152390906,0.0
12.752,8180.0,9.843868949963507,0.0
12.76,8185.0,11.872852302310548,0.0
12.768,8194.0,14.132936702200368,0.0
12.776,8171.0,10.46661532834014,0.0
12.784,8172.0,2.216878351356172,0.0
12.792,8167.0,-3.8153107184393775,0.0
12.8,8173.0,-6.599990426517934,0.0
12.808,8288.0,17.47419077674249,0.0
12.816,8308.0,56.64293955430435,0.0
12.824,8134.0,39.7572078457149,0.0
12.832,8168.0,-4.8587634334523955,0.0
12.84,8176.0,-21.927294786637958,0.0
12.848,8180.0,-26.245549490256053,0.0
12.856,8188.0,-22.36861321996662,0.0
12.864,8194.0,-13.824242169587933,0.0
12.872,8205.0,-3.202082916580366,0.0
12.88,8217.0,8.264237078706401,0.0
12.888,8235.0,19.92146866172334,0.0
12.896,8257.0,31.96723938219884,0.0
12.904,8276.0,42.62081130918136,0.0
12.912,8281.0,47.36271789849957,0.0
12.92,8263.0,40.33041584408602,0.0
12.928,8221.0,17.79890746365254,0.0
12.936,8187.0,-13.751576554293479,0.0
12.944,8170.0,-40.74492150569699,0.0
12.952,8163.0,-55.434549960120194,0.0
12.96,8166.0,-56.534643213829895,0.0
12.968,8172.0,-46.7752099154668,0.0
12.976,8173.0,-32.48171744905858,0.0
12.984,8173.0,-18.899656982066745,0.0
12.992,8176.0,-7.388935260327116,0.0
13.0,8173.0,0.5387363898832973,0.0
13.008,8176.0,5.145469538588031,0.0
13.016,8172.0,6.885469187314129,0.0
13.024,8178.0,7.27918535836784,0.0
13.032,8183.0,8.655727100162721,0.0
13.04,8183.0,9.179005342377422,0.0
13.048,8192.0,9.935533096812605,0.0
13.056,8199.0,12.145411461114918,0.0
13.064,8180.0,9.159332255425397,0.0
13.072,8176.0,1.3057880952828782,0.0
13.08,8176.0,-4.353961158947413,0.0
13.088,8176.0,-7.041015633678853,0.0
13.096,8268.0,11.233041693964651,0.0
13.104,8361.0,58.13287985676402,0.0
13.112,8141.0,51.109531384911634,0.0
13.12,8170.0,0.18566900813243592,0.0
13.128,8172.0,-23.62544330825176,0.0
13.136,8180.0,-32.08239156635864,0.0
13.144,8186.0,-29.359536038802162,0.0
13.152,8193.0,-20.64208084486131,0.0
13.16,8201.0,-9.292496745959397,0.0
13.168,8214.0,3.118798079918406,0.0
13.176,8231.0,16.11499550612234,0.0
13.184,8252.0,29.121133030226474,0.0
13.192,8272.0,40.774167618508955,0.0
13.2,8278.0,46.79572940691878,0.0
13.208,8258.0,40.40187465106396,1.0
13.216,8219.0,18.441409776153705,0.0
13.224,8187.0,-11.847266866880318,0.0
13.232,8170.0,-37.97449519445445,0.0
13.24,8166.0,-51.959030561958116,0.0
13.248,8166.0,-53.169062690437386,0.0
13.256,8171.0,-44.802112091450226,0.0
13.264,8173.0,-31.63127651733089,0.0
13.272,8175.0,-18.229187896130725,0.0
13.28,8174.0,-7.335153903182118,0.0
13.288,8174.0,0.015354928042825122,0.0
13.296,8176.0,4.768707393044224,0.0
13.304,8177.0,7.469742349278022,0.0
13.312,8177.0,8.138929684722598,0.0
13.32,8179.0,7.709329812450733,0.0
13.328,8185.0,7.920846354204514,0.0
13.336,8185.0,8.070848033308266,0.0
13.344,8202.0,10.409036966264011,0.0
13.352,8186.0,10.41800600391366,0.0
13.36,8175.0,3.327695343051573,0.0
13.368,8174.0,-3.82163047666063,0.0
13.376,8176.0,-7.266024866985845,0.0
13.384,8192.0,-4.524004059433537,0.0
13.392,8502.0,64.38558366190705,0.0
13.4,8174.0,91.6995709419466,0.0
13.408,8165.0,25.100902872209417,0.0
13.416,8169.0,-19.112536904364106,0.0
13.424,8175.0,-40.31959786593279,0.0
13.432,8181.0,-44.29688191731293,0.0
13.44,8188.0,-37.27720027677651,0.0
13.448,8195.0,-24.61389702466454,0.0
13.456,8207.0,-9.511367378007435,0.0
13.464,8222.0,6.3784015747580725,0.0
13.472,8239.0,21.346170149133286,0.0
13.48,8265.0,35.74668789953057,0.0
13.488,8275.0,46.1983402106282,0.0
13.496,8267.0,45.783818128669736,0.0
13.504,8230.0,29.403766122951083,0.0
13.512,8192.0,-0.06388946235574622,1.0
13.52,8170.0,-29.73937545651893,0.0
13.528,8162.0,-48.90959333236174,0.0
13.536,8160.0,-54.87456517090891,0.0
13.544,8164.0,-49.67400624347101,0.0
13.552,8170.0,-37.02423035217794,0.0
13.56,8171.0,-22.499757638538767,0.0
13.568,8170.0,-10.498779587485842,0.0
13.576,8171.0,-1.8096820453988585,0.0
13.584,8172.0,4.012006723354716,0.0
13.592,8173.0,7.255277937287474,0.0
13.6,8171.0,7.8690565892864015,0.0
13.608,8175.0,7.447604059678952,0.0
13.616,8174.0,6.682115518343835,0.0
13.624,8184.0,7.055026690941759,0.0
13.632,8183.0,8.044647842180666,0.0
13.64,8202.0,11.087659429288578,0.0
13.648,8192.0,13.044978841539205,0.0
13.656,8177.0,7.117240939181102,0.0
13.664,8175.0,-0.940585231439627,0.0
13.672,8177.0,-5.563366521350645,0.0
13.68,8167.0,-9.088206317809181,0.0
13.688,8458.0,47.61362021616037,0.0
13.696,8228.0,86.3905504012057,0.0
13.704,8166.0,36.56949514003827,0.0
13.712,8170.0,-10.288409726052123,0.0
13.72,8175.0,-34.601545641764005,0.0
13.728,8179.0,-41.89558398330132,0.0
13.736,8187.0,-37.40579129671005,0.0
13.744,8194.0,-26.01486346044203,0.0
13.752,8205.0,-11.656712313444586,0.0
13.76,8218.0,3.5051895636349855,0.0
13.768,8236.0,18.27381077987502,0.0
13.776,8259.0,32.61375740727203,0.0
13.784,8277.0,44.52608141966971,0.0
13.792,8273.0,47.680542236568044,0.0
13.8,8246.0,35.98382661092273,0.0
13.808,8203.0,9.309777723806292,0.0
13.816,8175.0,-22.38204152913113,0.0
13.824,8163.0,-45.90318247856408,0.0
13.832,8163.0,-55.30569207002077,0.0
13.84,8166.0,-51.86842255152692,0.0
13.848,8167.0,-41.15455864149226,0.0
13.856,8170.0,-27.76167703405099,0.0
13.864,8170.0,-15.01924853548394,0.0
13.872,8172.0,-4.797700322747687,0.0
13.88,8170.0,1.97469443746445,0.0
13.888,8171.0,5.4761897244100055,0.0
13.896,8170.0,6.716713264270538,0.0
13.904,8168.0,5.819121356315463,0.0
13.912,8169.0,4.201738673968293,0.0
13.92,8171.0,3.221090516869026,0.0
13.928,8176.0,3.5828872411505017,0.0
13.936,8176.0,4.275149352666176,0.0
13.944,8196.0,8.122405406688586,0.0
13.952,8179.0,9.779116235111587,0.0
13.96,8165.0,2.9429372857116505,0.0
13.968,8162.0,-5.019265717331109,0.0
13.976,8164.0,-9.171420343629507,0.0
13.984,8161.0,-10.440802989981648,0.0
13.992,8485.0,55.97199977706191,0.0
14.0,8177.0,90.03121920398371,0.0
14.008,8147.0,27.47031129723723,0.0
14.016,8149.0,-19.413353018983344,0.0
14.024,8154.0,-42.76687557041555,0.0
14.032,8157.0,-48.45974057821127,0.0
14.04,8165.0,-42.23211382641466,0.0
14.048,8171.0,-29.28600715041307,0.0
14.056,8177.0,-14.73798675301532,0.0
14.064,8190.0,-0.018143060993679683,0.0
14.072,8212.0,15.840427784032727,0.0
14.08,8231.0,31.193898409539997,1.0
14.088,8244.0,42.08217880814345,0.0
14.096,8234.0,42.754237335223024,0.0
14.104,8207.0,29.11051411261269,0.0
14.112,8166.0,2.7356850947842304,0.0
14.12,8138.0,-27.373864332472294,0.0
14.128,8124.0,-49.61103590630205,0.0
14.136,8119.0,-59.122159550692686,0.0
14.144,8122.0,-56.19200680790709,0.0
14.152,8126.0,-44.509642043520216,0.0
14.16,8123.0,-30.648222855006907,0.0
14.168,8123.0,-18.416872531507124,0.0
14.176,8117.0,-9.616861801787536,0.0
14.184,8118.0,-3.976024323925685,0.0
14.192,8114.0,-0.6501325935078057,0.0
14.2,8113.0,0.3938579462908365,0.0
14.208,8114.0,0.9515587168555157,0.0
14.216,8111.0,0.7285128513692598,0.0
14.224,8117.0,1.0990552198863952,0.0
14.232,8120.0,2.990271040451262,0.0
14.24,8123.0,4.881177519362836,0.0
14.248,8132.0,7.711022258467665,0.0
14.256,8117.0,6.989700834870746,0.0
14.264,8106.0,0.19156995301545976,0.0
14.272,8106.0,-6.105186776482242,0.0
14.28,8103.0,-9.51636242065615,0.0
14.288,8170.0,2.984319551350609,0.0
14.296,8312.0,52.62361647040302,0.0
14.304,8066.0,52.75456770743949,0.0
14.312,8092.0,-0.11238444442778928,0.0
14.32,8099.0,-24.618846780346075,0.0
14.328,8103.0,-33.1321113773713,0.0
14.336,8108.0,-31.304915447621397,0.0
14.344,8117.0,-22.6179085583301,0.0
14.352,8124.0,-10.78247190931188,0.0
14.36,8138.0,2.1420531353719525,0.0
14.368,8153.0,15.385559305140305,0.0
14.376,8173.0,28.035643477522626,0.0
14.384,8194.0,39.64268172932202,0.0
14.392,8204.0,46.83009209792908,0.0
14.4,8190.0,43.16351672383075,1.0
14.408,8151.0,23.6230677897031,0.0
14.416,8116.0,-6.632918404901375,0.0
14.424,8094.0,-35.16577702382165,0.0
14.432,8092.0,-51.6117354798987,0.0
14.44,8095.0,-53.308599077283816,0.0
14.448,8099.0,-44.799802794556854,0.0
14.456,8105.0,-30.932527560686594,0.0
14.464,8105.0,-16.815902613750723,0.0
14.472,8110.0,-4.896360449027952,0.0
14.48,8109.0,3.7123864719524136,0.0
14.488,8111.0,8.445044424738398,0.0
14.496,8111.0,10.372163768719247,0.0
14.504,8114.0,10.552218989718767,0.0
14.512,8115.0,9.876065696117621,0.0
14.52,8122.0,9.613268215995276,0.0
14.528,8131.0,11.26917847681716,0.0
14.536,8134.0,12.9915504942187,0.0
14.544,8155.0,16.943705848687614,0.0
14.552,8141.0,18.142243978679744,0.0
14.56,8132.0,11.401560165305227,0.0
14.568,8133.0,4.052113177312549,0.0
14.576,8134.0,-0.5000841931682771,0.0
14.584,8143.0,-1.073419303898845,0.0
14.592,8465.0,66.37382713674901,0.0
14.6,8135.0,94.56455525824413,0.0
14.608,8131.0,28.66292731053636,0.0
14.616,8140.0,-13.635320793112669,0.0
14.624,8147.0,-33.31434622353049,0.0
14.632,8155.0,-36.83712894328664,0.0
14.64,8165.0,-29.65813844486479,0.0
14.648,8172.0,-17.442857429035257,0.0
14.656,8188.0,-2.875298342966744,0.0
14.664,8204.0,12.71348762935395,0.0
14.672,8225.0,27.56428566490922,0.0
14.68,8248.0,41.157188348242926,0.0
14.688,8261.0,50.31092270939894,0.0
14.696,8258.0,50.13970463642977,0.0
14.704,8225.0,35.08184583005823,0.0
14.712,8184.0,5.7395700427252905,1.0
14.72,8161.0,-25.558842804759934,0.0
14.728,8154.0,-46.32267504090555,0.0
14.736,8153.0,-53.21371348390426,0.0
14.744,8158.0,-48.40403189059043,0.0
14.752,8164.0,-35.97366248800063,0.0
14.76,8167.0,-21.32962325002427,0.0
14.768,8169.0,-8.413835817041672,0.0
14.776,8169.0,0.908778048789145,0.0
14.784,8169.0,6.2843750408428605,0.0
14.792,8169.0,8.510708806095408,0.0
14.8,8168.0,8.332734189313896,0.0
14.808,8169.0,6.964139436064215,0.0
14.816,8168.0,5.098909015726804,0.0
14.824,8173.0,4.039963325746612,0.0
14.832,8182.0,5.661410004897789,0.0
14.84,8185.0,8.213604208396873,0.0
14.848,8206.0,13.380908088964134,0.0
14.856,8193.0,16.04254607205371,0.0
14.864,8180.0,9.87257361320303,0.0
14.872,8182.0,2.4795543151490165,0.0
14.88,8183.0,-1.6556923382102013,0.0
14.888,8177.0,-4.871752011747731,0.0
14.896,8495.0,57.70674788957126,0.0
14.904,8221.0,94.95578171343777,0.0
14.912,8178.0,37.825020289251825,0.0
14.92,8184.0,-9.255867872733688,0.0
14.928,8189.0,-33.44881962596878,0.0
14.936,8196.0,-40.23364564921553,0.0
14.944,8206.0,-34.67317098366402,0.0
14.952,8213.0,-22.65473943543043,0.0
14.96,8224.0,-8.434918091001009,0.0
14.968,8240.0,6.76961620931138,0.0
14.976,8257.0,21.477126207915035,0.0
14.984,8282.0,35.49957215711538,0.0
14.992,8298.0,46.786603213149874,0.0
15.0,8298.0,49.63714666921692,0.0
15.008,8268.0,37.66835131499943,0.0
15.016,8228.0,10.578001096577964,0.0
15.024,8203.0,-20.326490764328128,0.0
15.032,8196.0,-42.05924675627966,0.0
15.04,8192.0,-50.782593635199646,0.0
15.048,8196.0,-48.24232599206448,0.0
15.056,8200.0,-37.79150325406181,0.0
15.064,8202.0,-24.655461005974303,0.0
15.072,8206.0,-11.922963422192879,0.0
15.08,8207.0,-1.563819233276945,0.0
15.088,8204.0,4.391053367617815,0.0
15.096,8205.0,6.838418037774318,0.0
15.104,8206.0,7.657602225976916,0.0
15.112,8208.0,7.59398599352221,0.0
15.12,8207.0,6.609326370808276,0.0
15.128,8208.0,5.024948402432983,0.0
15.136,8213.0,4.5519133400973715,0.0
15.144,8220.0,6.033647284941253,0.0
15.152,8221.0,7.629576745153372,0.0
15.16,8239.0,11.298388568517339,0.0
15.168,8220.0,11.550847940950007,0.0
15.176,8210.0,4.0241832049368895,0.0
15.184,8212.0,-2.6715941790819215,0.0
15.192,8214.0,-5.409217376491597,0.0
15.2,8245.0,0.5337851815377235,0.0
15.208,8512.0,64.84918460415861,0.0
15.216,8212.0,86.31137675886657,0.0
15.224,8205.0,23.197905265842337,0.0
15.232,8208.0,-18.46157727755576,0.0
15.24,8212.0,-38.86982777778826,0.0
15.248,8217.0,-43.2074013698375,0.0
15.256,8224.0,-36.77027330463011,0.0
15.264,8230.0,-24.73264821334533,0.0
15.272,8242.0,-10.186440341928119,0.0
15.28,8257.0,5.476669859648155,0.0
15.288,8275.0,20.651406818115674,0.0
15.296,8298.0,34.871058002658174,1.0
15.304,8306.0,44.32699783122348,0.0
15.312,8297.0,42.99442814878171,0.0
15.32,8259.0,26.08574710246762,0.0
15.328,8219.0,-3.8043904512001063,0.0
15.336,8197.0,-33.57122913274111,0.0
15.344,8190.0,-52.01021776650214,0.0
15.352,8192.0,-56.051146452936564,0.0
15.36,8191.0,-49.73862879151807,0.0
15.368,8191.0,-38.668753864373,0.0
15.376,8196.0,-25.23790444937049,0.0
15.384,8191.0,-13.468558038022593,0.0
15.392,8194.0,-4.874795247591919,0.0
15.4,8190.0,0.7423175737303609,0.0
15.408,8188.0,2.725919783981226,0.0
15.416,8188.0,3.0771355977863095,0.0
15.424,8186.0,2.409712324947577,0.0
15.432,8187.0,1.4453576459711712,0.0
15.44,8188.0,1.0645082478931727,0.0
15.448,8194.0,2.1079882965664183,0.0
15.456,8196.0,4.039911364132195,0.0
15.464,8215.0,8.860266543843863,0.0
15.472,8197.0,10.5719964846312,0.0
15.48,8185.0,3.852446567312427,0.0
15.488,8183.0,-3.565772087989444,0.0
15.496,8183.0,-7.8208828826263925,0.0
15.504,8185.0,-8.743008584418703,0.0
15.512,8516.0,60.069365587000675,0.0
15.52,8192.0,93.0877711479045,0.0
15.528,8169.0,27.609210865355408,0.0
15.536,8175.0,-18.773698002592482,0.0
15.544,8177.0,-41.723753033796584,0.0
15.552,8183.0,-47.336157704304924,0.0
15.56,8192.0,-40.41409197034545,0.0
15.568,8196.0,-27.537229621795404,0.0
15.576,8205.0,-13.090994696180815,0.0
15.584,8219.0,2.136153096792441,0.0
15.592,8239.0,17.76382520078505,0.0
15.6,8261.0,32.893433764658084,1.0
15.608,8269.0,42.9830512402159,0.0
15.616,8265.0,43.25049976145806,0.0
15.624,8239.0,30.72235737710048,0.0
15.632,8201.0,5.580109860825587,0.0
15.64,8177.0,-22.801635496964536,0.0
15.648,8162.0,-44.09728797930734,0.0
15.656,8159.0,-53.68324722798252,0.0
15.664,8166.0,-50.396150498567295,0.0
15.672,8167.0,-39.17710905236822,0.0
15.68,8171.0,-25.580970157056527,0.0
15.688,8171.0,-12.844655711697214,0.0
15.696,8169.0,-3.7736205769806475,0.0
15.704,8171.0,2.163100068472204,0.0
15.712,8168.0,5.141814544140516,0.0
15.72,8170.0,5.919560773884768,0.0
15.728,8168.0,5.482043327272322,0.0
15.736,8168.0,3.983552106477646,0.0
15.744,8176.0,4.127799944227945,0.0
15.752,8181.0,6.243195399654269,0.0
15.76,8188.0,8.999304562185216,0.0
15.768,8193.0,11.716472074120247,0.0
15.776,8177.0,9.299735932366048,0.0
15.784,8167.0,1.1487109940399023,0.0
15.792,8175.0,-4.254551510776992,0.0
15.8,8169.0,-6.3963901721906495,0.0
15.808,8280.0,14.758284775729635,0.0
15.816,8310.0,53.83801071965809,0.0
15.824,8132.0,38.550696319053486,0.0
15.832,8171.0,-4.732751386556174,0.0
15.84,8173.0,-21.236636233128138,0.0
15.848,8177.0,-26.551476858294336,0.0
15.856,8185.0,-23.217537659036225,0.0
15.864,8191.0,-14.865587216061385,0.0
15.872,8205.0,-3.5864425196143657,0.0
15.88,8219.0,9.348195157914915,0.0
15.888,8230.0,20.687942436762796,0.0
15.896,8255.0,31.612543694608576,0.0
15.904,8270.0,41.45253307833127,0.0
15.912,8277.0,45.48181141377381,0.0
15.92,8265.0,39.94763640357087,0.0
15.928,8221.0,19.17735506577992,0.0
15.936,8189.0,-11.540531109657195,0.0
15.944,8172.0,-37.9680980084413,0.0
15.952,8166.0,-52.539824649329375,0.0
15.96,8169.0,-53.80476466551181,0.0
15.968,8172.0,-45.16960575357939,0.0
15.976,8176.0,-31.784435848472413,0.0
15.984,8176.0,-18.23236949486477,0.0
15.992,8176.0,-7.453457374602294,0.0
16.0,8178.0,0.4598072464659708,0.0
16.008,8175.0,4.865685867366892,0.0
16.016,8178.0,6.73361981075459,0.0
16.024,8175.0,6.817416621994425,0.0
16.032,8177.0,5.629072264633805,0.0
16.04,8186.0,6.32016264018398,0.0
16.048,8188.0,8.017970160140976,0.0
16.056,8206.0,11.892448298279533,0.0
16.064,8204.0,15.649585936313542,0.0
16.072,8190.0,12.230075805230399,0.0
16.08,8187.0,4.880445288580404,0.0
16.088,8186.0,-1.0232504915104528,0.0
16.096,8171.0,-7.628362779403005,0.0
16.104,8403.0,33.955213414409855,0.0
16.112,8210.0,61.3673928254027,0.0
16.12,8149.0,16.382480064434276,0.0
16.128,8171.0,-20.6730326758734,0.0
16.136,8175.0,-34.1415046217237,0.0
16.144,8184.0,-34.2745709215219,0.0
16.152,8189.0,-26.29662506100749,0.0
16.16,8198.0,-14.731390740616916,0.0
16.168,8208.0,-1.7765618504499798,0.0
16.176,8220.0,10.648868478589065,0.0
16.184,8235.0,21.898875591744627,0.0
16.192,8252.0,31.76960960683391,1.0
16.2,8272.0,40.34962812147933,0.0
16.208,8273.0,43.59667434740436,0.0
16.216,8249.0,34.208282750240414,0.0
16.224,8211.0,10.802972889327748,0.0
16.232,8183.0,-18.160601382836603,0.0
16.24,8172.0,-40.50398207795479,0.0
16.248,8165.0,-51.25435365251019,0.0
16.256,8167.0,-50.862844807090596,0.0
16.264,8171.0,-41.694094544634254,0.0
16.272,8175.0,-28.315987292581667,0.0
16.28,8175.0,-15.29395552115534,0.0
16.288,8173.0,-5.682604869481338,0.0
16.296,8173.0,0.4544803847206822,0.0
16.304,8171.0,3.6064362470831384,0.0
16.312,8171.0,4.5151177956411175,0.0
16.32,8172.0,4.5722662378202585,0.0
16.328,8175.0,4.730057499241184,0.0
16.336,8176.0,4.923445740326088,0.0
16.344,8181.0,5.517167685098457,0.0
16.352,8183.0,6.461931891733684,0.0
16.36,8199.0,9.718373575385385,0.0
16.368,8182.0,9.96650684964743,0.0
16.376,8174.0,3.49469177367655,0.0
16.384,8173.0,-2.7012729339030557,0.0
16.392,8178.0,-5.138808088914857,0.0
16.4,8209.0,1.5535712757989586,0.0
16.408,8466.0,64.11453105456076,0.0
16.416,8150.0,79.33871121403513,0.0
16.424,8165.0,14.819033055079672,0.0
16.432,8170.0,-21.498522082136333,0.0
16.44,8179.0,-36.85702307208817,0.0
16.448,8183.0,-37.69614478304402,0.0
16.456,8189.0,-30.43421124202814,0.0
16.464,8201.0,-17.84791522684486,0.0
16.472,8208.0,-3.816730235779005,0.0
16.48,8222.0,9.350268100836047,0.0
16.488,8239.0,22.05292375358431,0.0
16.496,8260.0,33.9852011463156,1.0
16.504,8272.0,42.63129988957803,0.0
16.512,8263.0,41.89408264467011,0.0
16.52,8234.0,27.34302483343822,0.0
16.528,8195.0,0.6995718729642704,0.0
16.536,8173.0,-27.625735919084036,0.0
16.544,8167.0,-45.909311685659986,0.0
16.552,8168.0,-50.78329883238439,0.0
16.56,8172.0,-44.94491515196705,0.0
16.568,8173.0,-33.656420903947264,0.0
16.576,8173.0,-21.673412519928434,0.0
16.584,8173.0,-11.300735957276402,0.0
16.592,8176.0,-2.8401247065803545,0.0
16.6,8174.0,2.7983640920631387,0.0
16.608,8174.0,5.300090396595806,0.0
16.616,8176.0,6.384652593757664,0.0
16.624,8176.0,6.466673843468698,0.0
16.632,8176.0,5.534756991454742,0.0
16.64,8179.0,4.757390885179802,0.0
16.648,8188.0,6.027991131174986,0.0
16.656,8186.0,7.295613185335924,0.0
16.664,8207.0,10.820897367607131,0.0
16.672,8187.0,11.469469680429938,0.0
16.68,8178.0,4.189403389172639,0.0
16.688,8178.0,-2.589886235562062,0.0
16.696,8181.0,-5.5935871474284795,0.0
16.704,8192.0,-3.661705539300783,0.0
16.712,8508.0,64.84233338562785,0.0
16.72,8177.0,92.46013359960943,0.0
16.728,8167.0,25.10862642475672,0.0
16.736,8173.0,-19.346911314881936,0.0
16.744,8179.0,-40.25301303701758,0.0
16.752,8182.0,-44.67530780925472,0.0
16.76,8189.0,-38.47433341633132,0.0
16.768,8198.0,-25.705111117852084,0.0
16.776,8209.0,-10.17019936084921,0.0
16.784,8224.0,5.870865539952547,0.0
16.792,8243.0,21.413660390734094,0.0
16.8,8265.0,35.73541376716321,1.0
16.808,8275.0,45.32499095168669,0.0
16.816,8272.0,45.554553238800054,0.0
16.824,8236.0,30.81597587634019,0.0
16.832,8197.0,2.1049780213288614,0.0
16.84,8177.0,-27.247546924956623,0.0
16.848,8168.0,-46.4002559628309,0.0
16.856,8167.0,-52.73531826758244,0.0
16.864,8171.0,-47.87366448851071,0.0
16.872,8173.0,-36.51447290077863,0.0
16.88,8172.0,-24.05633980894936,0.0
16.888,8175.0,-12.632793724957764,0.0
16.896,8173.0,-3.75734593991956,0.0
16.904,8175.0,2.0612372423033776,0.0
16.912,8175.0,5.598431496662215,0.0
16.92,8174.0,6.637233227146453,0.0
16.928,8175.0,6.245295958354291,0.0
16.936,8177.0,5.679546793177224,0.0
16.944,8178.0,5.096779810270164,0.0
16.952,8180.0,4.592302871295487,0.0
16.96,8186.0,5.232115315262263,0.0
16.968,8187.0,6.247354671010953,0.0
16.976,8196.0,7.943601086678655,0.0
16.984,8201.0,10.602626273862597,0.0
16.992,8180.0,7.298872906169663,0.0
17.0,8178.0,-0.46047563243723744,0.0
17.008,8179.0,-5.183828849314978,0.0
17.016,8177.0,-7.395583338419783,0.0
17.024,8303.0,17.750948643920765,0.0
17.032,8346.0,64.45815217119343,0.0
17.04,8155.0,52.07157664012084,0.0
17.048,8167.0,0.28166309777725473,0.0
17.056,8172.0,-26.91639582740686,0.0
17.064,8177.0,-36.87743147966671,0.0
17.072,8185.0,-34.521406932696664,0.0
17.08,8191.0,-25.033993596103755,0.0
17.088,8200.0,-12.563191708083423,0.0
17.096,8211.0,0.8027646073524011,0.0
17.104,8226.0,13.89748197910103,0.0
17.112,8247.0,26.8894836130346,0.0
17.12,8264.0,38.25960017913144,0.0
17.128,8272.0,44.29078199577498,1.0
17.136,8256.0,39.508201049165336,0.0
17.144,8220.0,20.066238085297073,0.0
17.152,8185.0,-8.979343829831578,0.0
17.16,8168.0,-35.41912144145567,0.0
17.168,8164.0,-49.97592276351452,0.0
17.176,8165.0,-51.62075375958079,0.0
17.184,8167.0,-44.154286052014186,0.0
17.192,8170.0,-32.02281429811978,0.0
17.2,8170.0,-19.38034280193233,0.0
17.208,8169.0,-9.169618101667538,0.0
17.216,8166.0,-2.557993306995513,0.0
17.224,8166.0,1.12703020228696,0.0
17.232,8168.0,3.54407759760943,0.0
17.24,8167.0,4.640492270540108,0.0
17.248,8167.0,4.381055874127242,0.0
17.256,8168.0,3.767706659108171,0.0
17.264,8169.0,3.2423457915738254,0.0
17.272,8170.0,2.8486719962845655,0.0
17.28,8170.0,2.388262488204873,0.0
17.288,8174.0,2.5710915783579367,0.0
17.296,8182.0,4.741018461379326,0.0
17.304,8181.0,6.735621053534032,0.0
17.312,8201.0,10.775741744506831,0.0
17.32,8183.0,11.939934469571199,0.0
17.328,8172.0,4.893477224909702,0.0
17.336,8170.0,-2.6716055960107497,0.0
17.344,8172.0,-6.740536161926684,0.0
17.352,8180.0,-6.081941903688175,0.0
17.36,8503.0,62.853216678892295,0.0
17.368,8180.0,94.09206628339348,0.0
17.376,8161.0,28.430320666796433,0.0
17.384,8160.0,-18.79831611645386,0.0
17.392,8166.0,-42.857703318760514,0.0
17.4,8173.0,-47.93274083716119,0.0
17.408,8177.0,-41.41963130785689,0.0
17.416,8187.0,-28.42787252781227,0.0
17.424,8197.0,-12.348550294697588,0.0
17.432,8210.0,3.731839304936102,0.0
17.44,8227.0,18.80498904573983,0.0
17.448,8249.0,32.8358987970646,1.0
17.456,8255.0,41.87586893779576,0.0
17.464,8255.0,42.09902130991327,0.0
17.472,8225.0,29.719259980687866,0.0
17.48,8188.0,4.203943708224415,0.0
17.488,8159.0,-25.006994161862394,0.0
17.496,8151.0,-46.05006967588224,0.0
17.504,8146.0,-54.169086445583616,0.0
17.512,8153.0,-50.349385041128244,0.0
17.52,8154.0,-38.82245226350551,0.0
17.528,8152.0,-26.32380204355445,0.0
17.536,8151.0,-15.554024279596433,0.0
17.544,8153.0,-6.622320968477197,0.0
17.552,8152.0,-0.13180350559127874,0.0
17.56,8150.0,3.113758315974792,0.0
17.568,8147.0,3.539591591252247,0.0
17.576,8152.0,3.6633864721191003,0.0
17.584,8151.0,3.9983892279237807,0.0
17.592,8148.0,2.7731030063916933,0.0
17.6,8158.0,3.058141377074435,0.0
17.608,8153.0,3.7845663916327794,0.0
17.616,8154.0,2.8231847144620588,0.0
17.624,8163.0,3.869605292426286,0.0
17.632,8167.0,6.557689575899076,0.0
17.64,8186.0,11.85211400526282,0.0
17.648,8171.0,14.003510802305982,0.0
17.656,8154.0,6.615119415999061,0.0
17.664,8155.0,-2.026106443003073,0.0
17.672,8157.0,-6.216429045337009,0.0
17.68,8153.0,-8.16069655407091,0.0
17.688,8454.0,52.60406958591261,0.0
17.696,8152.0,80.36055342009058,0.0
17.704,8139.0,20.237324113664727,0.0
17.712,8154.0,-17.979070136685777,0.0
17.72,8156.0,-34.381229431499605,0.0
17.728,8165.0,-36.62153013084958,0.0
17.736,8171.0,-29.329671677541,0.0
17.744,8178.0,-17.914643475441153,0.0
17.752,8189.0,-4.770328372268068,0.0
17.76,8205.0,9.242558253803509,0.0
17.768,8225.0,23.483305052066044,1.0
17.776,8241.0,35.69974267564021,0.0
17.784,8256.0,43.8453469289675,0.0
17.792,8257.0,45.2839849225893,0.0
17.8,8235.0,34.97888912746339,0.0
17.808,8195.0,10.914608892536762,0.0
17.816,8165.0,-19.272808005420302,0.0
17.824,8154.0,-42.57994520852162,0.0
17.832,8152.0,-52.564036157381,0.0
17.84,8156.0,-50.090681116574615,0.0
17.848,8160.0,-39.39919792739329,0.0
17.856,8161.0,-26.081384820675794,0.0
17.864,8161.0,-14.046705491108924,0.0
17.872,8159.0,-5.208371272236491,0.0
17.88,8163.0,1.2168572242578648,0.0
17.888,8161.0,5.240838494712534,0.0
17.896,8160.0,6.2131389353326085,0.0
17.904,8162.0,6.050471438073146,0.0
17.912,8163.0,5.649849734686768,0.0
17.92,8163.0,4.760639636448104,0.0
17.928,8164.0,3.7172939136405603,0.0
17.936,8172.0,4.375382757652687,0.0
17.944,8175.0,6.348524811611014,0.0
17.952,8196.0,11.456146256530928,0.0
17.96,8180.0,13.761402285339955,0.0
17.968,8165.0,6.7050103282399505,0.0
17.976,8169.0,-0.7319960174825155,0.0
17.984,8169.0,-4.202046776144243,0.0
17.992,8168.0,-5.821450008385,0.0
18.0,8473.0,56.21088871169013,0.0
18.008,8162.0,83.148672406056,0.0
18.016,8151.0,20.688447668796698,0.0
18.024,8164.0,-18.97843748235914,0.0
18.032,8169.0,-35.88259799472053,0.0
18.04,8172.0,-38.80505866388353,0.0
18.048,8181.0,-32.19848226618842,0.0
18.056,8191.0,-19.527978249056332,0.0
18.064,8200.0,-5.192275399719165,0.0
18.072,8215.0,8.976265652212078,0.0
18.08,8232.0,22.532236025693464,0.0
18.088,8256.0,35.509395412391086,1.0
18.096,8266.0,44.746650627071176,0.0
18.104,8265.0,45.26413515029344,0.0
18.112,8238.0,32.98717440106202,0.0
18.12,8197.0,6.832898998964765,0.0
18.128,8169.0,-23.76740137277602,0.0
18.136,8160.0,-45.82008047809427,0.0
18.144,8155.0,-54.775345048612735,0.0
18.152,8161.0,-51.562584079046474,0.0
18.16,8162.0,-40.414960404205885,0.0
18.168,8164.0,-27.08198663385474,0.0
18.176,8164.0,-14.682337443055303,0.0
18.184,8165.0,-4.918888870459341,0.0
18.192,8162.0,1.192358483475573,0.0
18.2,8162.0,4.012862000621453,0.0
18.208,8163.0,5.276806710079882,0.0
18.216,8163.0,5.428576169925918,0.0
18.224,8165.0,5.103897803465088,0.0
18.232,8165.0,4.546674050686079,0.0
18.24,8168.0,4.140705862209188,0.0
18.248,8172.0,4.702942831508835,0.0
18.256,8174.0,5.548232149739761,0.0
18.264,8188.0,8.475770565498351,0.0
18.272,8183.0,10.760792515689445,0.0
18.28,8166.0,5.986069435247373,0.0
18.288,8161.0,-2.2398708403068213,0.0
18.296,8163.0,-7.377989973237845,0.0
18.304,8153.0,-10.932481386309064,0.0
18.312,8378.0,32.54756869589551,0.0
18.32,8241.0,71.30547558309013,0.0
18.328,8144.0,35.609693183034096,0.0
18.336,8155.0,-8.469454374657744,0.0
18.344,8157.0,-30.597809603302267,0.0
18.352,8164.0,-37.20678588975511,0.0
18.36,8170.0,-32.81842494395869,0.0
18.368,8179.0,-22.182982557903415,0.0
18.376,8187.0,-9.05688345929184,0.0
18.384,8201.0,4.573618477637183,0.0
18.392,8218.0,18.274585859405533,0.0
18.4,8241.0,31.77870543372501,1.0
18.408,8256.0,42.710423967678935,0.0
18.416,8258.0,46.17313389493688,0.0
18.424,8239.0,37.74746872242531,0.0
18.432,8203.0,15.805037083936668,0.0
18.44,8171.0,-13.460367041415111,0.0
18.448,8157.0,-38.12496618945693,0.0
18.456,8155.0,-50.2001877710527,0.0
18.464,8154.0,-50.34341537749424,0.0
18.472,8160.0,-41.77395982799953,0.0
18.48,8163.0,-28.53386513724854,0.0
18.488,8164.0,-15.560420914081988,0.0
18.496,8166.0,-4.91590143806161,0.0
18.504,8163.0,1.9202576899108408,0.0
18.512,8162.0,4.8548138993992325,0.0
18.52,8164.0,6.05855933727139,0.0
18.528,8163.0,6.056204121468454,0.0
18.536,8163.0,4.932318397375411,0.0
18.544,8166.0,4.1327590183623215,0.0
18.552,8165.0,3.4419275202797053,0.0
18.56,8175.0,4.350241491152019,0.0
18.568,8175.0,6.27087716106962,0.0
18.576,8181.0,7.681803879959034,0.0
18.584,8193.0,11.028986312702273,0.0
18.592,8172.0,9.497672561221634,0.0
18.6,8166.0,1.635974611220945,0.0
18.608,8167.0,-4.282957778352738,0.0
18.616,8170.0,-6.316854385420356,0.0
18.624,8273.0,15.093899575713749,0.0
18.632,8379.0,68.16664311320551,0.0
18.64,8153.0,64.70280953047359,0.0
18.648,8165.0,9.124218017252133,0.0
18.656,8169.0,-21.859395336833813,0.0
18.664,8173.0,-35.23450425061401,0.0
18.672,8182.0,-35.146644162234,0.0
18.68,8189.0,-26.497224554585955,0.0
18.688,8196.0,-14.50446851613583,0.0
18.696,8210.0,-0.9226064258218685,0.0
18.704,8224.0,12.969985527845893,0.0
18.712,8247.0,26.77876910813916,0.0
18.72,8267.0,39.67021891802506,0.0
18.728,8274.0,46.7958499045601,1.0
18.736,8262.0,42.89362900214496,0.0
18.744,8221.0,23.254737855275607,0.0
18.752,8189.0,-6.799322911720537,0.0
18.76,8171.0,-33.757428508160956,0.0
18.768,8166.0,-49.28130205695834,0.0
18.776,8168.0,-51.6033706716521,0.0
18.784,8174.0,-43.51855153505721,0.0
18.792,8179.0,-29.89196767629346,0.0
18.8,8180.0,-16.075448372485198,0.0
18.808,8178.0,-5.671454739062028,0.0
18.816,8178.0,0.9327077764130536,0.0
18.824,8179.0,4.901289916645055,0.0
18.832,8179.0,6.709510272470425,0.0
18.84,8180.0,6.965948681350255,0.0
18.848,8180.0,6.265786715425293,0.0
18.856,8183.0,5.514647331869355,0.0
18.864,8185.0,5.255843232768257,0.0
18.872,8194.0,6.553248111241601,0.0
18.88,8194.0,8.165688871426482,0.0
18.888,8214.0,11.967285348346877,0.0
18.896,8200.0,13.626966468959381,0.0
18.904,8189.0,7.434969577821676,0.0
18.912,8186.0,-0.21440786212406238,0.0
18.92,8191.0,-4.297128658084603,0.0
18.928,8177.0,-7.898854999139303,0.0
18.936,8457.0,45.51266889622184,0.0
18.944,8235.0,82.04934607091059,0.0
18.952,8177.0,34.01319658205989,0.0
18.96,8185.0,-9.767146323889165,0.0
18.968,8188.0,-31.930645205929068,0.0
18.976,8194.0,-38.35833178161624,0.0
18.984,8205.0,-32.87096515310054,0.0
18.992,8213.0,-20.76040360504271,0.0
19.0,8225.0,-6.3646987536287725,0.0
19.008,8234.0,7.404178129629599,0.0
19.016,8252.0,19.94063067565753,0.0
19.024,8274.0,32.503466036682994,0.0
19.032,8291.0,42.97292920089694,0.0
19.04,8289.0,45.71386152413561,1.0
19.048,8262.0,34.47935948734903,0.0
19.056,8221.0,8.715359577147638,0.0
19.064,8191.0,-22.34813740391769,0.0
19.072,8182.0,-45.298529038886045,0.0
19.08,8178.0,-54.65947184947163,0.0
19.088,8184.0,-51.49989524267539,0.0
19.096,8182.0,-41.00613155273777,0.0
19.104,8182.0,-28.991725097016115,0.0
19.112,8188.0,-16.265132252536887,0.0
19.12,8184.0,-5.86405854226291,0.0
19.128,8185.0,0.5632773211343647,0.0
19.136,8186.0,4.687595312726671,0.0
19.144,8188.0,7.028917867193286,0.0
19.152,8187.0,7.552206075998356,0.0
19.16,8189.0,6.920975100919122,0.0
19.168,8196.0,7.337072044772867,0.0
19.176,8200.0,8.71807343378191,0.0
19.184,8199.0,8.82593501532665,0.0
19.192,8218.0,11.229023089236762,0.0
19.2,8198.0,10.743452148327833,0.0
19.208,8188.0,2.6984274096564604,0.0
19.216,8190.0,-4.102906998280105,0.0
19.224,8193.0,-6.481651703462148,0.0
19.232,8226.0,0.44908717854104907,0.0
19.24,8479.0,62.90986356015878,0.0
19.248,8159.0,76.62303064073285,0.0
19.256,8186.0,13.255877661746808,0.0
19.264,8192.0,-19.48717245989542,0.0
19.272,8205.0,-32.015157298706754,0.0
19.28,8207.0,-31.5057987777393,0.0
19.288,8213.0,-24.793507421249387,0.0
19.296,8223.0,-13.796067815574133,0.0
19.304,8235.0,-0.7059353062165883,0.0
19.312,8250.0,12.658697860435268,0.0
19.32,8273.0,26.406743193435204,0.0
19.328,8291.0,38.910074375270824,0.0
19.336,8303.0,46.53432200295674,0.0
19.344,8293.0,44.39673864702081,1.0
19.352,8255.0,26.59506619338231,0.0
19.36,8215.0,-3.9004037923070882,0.0
19.368,8194.0,-33.8063774960915,0.0
19.376,8186.0,-52.291999085178304,0.0
19.384,8185.0,-57.13498834780535,0.0
19.392,8185.0,-51.541086413110634,0.0
19.4,8187.0,-40.01002331844779,0.0
19.408,8189.0,-26.307376524916208,0.0
19.416,8189.0,-13.806543353254483,0.0
19.424,8187.0,-4.7289379355142955,0.0
19.432,8188.0,1.1522049278016766,0.0
19.44,8184.0,3.8427127815373296,0.0
19.448,8184.0,4.034070778429395,0.0
19.456,8183.0,3.3313260119671213,0.0
19.464,8186.0,2.8192572195998764,0.0
19.472,8192.0,3.927695327178526,0.0
19.48,8193.0,5.417844594688859,0.0
19.488,8207.0,8.542219589406159,0.0
19.496,8188.0,8.073364371331536,0.0
19.504,8180.0,1.0559445797864555,0.0
19.512,8181.0,-4.684345348220859,0.0
19.52,8184.0,-6.55173800466946,0.0
19.528,8197.0,-3.393976939541062,0.0
19.536,8492.0,61.912738597716725,0.0
19.544,8154.0,82.36338510016867,0.0
19.552,8166.0,15.368533649796973,0.0
19.56,8175.0,-22.29184484326447,0.0
19.568,8178.0,-38.7328139061342,0.0
19.576,8182.0,-41.15351836537184,0.0
19.584,8192.0,-33.485548312997935,0.0
19.592,8199.0,-20.400805082359284,0.0
19.6,8210.0,-5.892091819053803,0.0
19.608,8224.0,8.689168560208145,0.0
19.616,8243.0,22.737048595654187,0.0
19.624,8265.0,35.97407054236987,0.0
19.632,8273.0,44.47735451494941,0.0
19.64,8269.0,43.58009400334436,0.0
19.648,8233.0,28.27016599667172,0.0
19.656,8196.0,0.015848788355697252,1.0
19.664,8168.0,-29.97566427146262,0.0
19.672,8160.0,-50.52276080535921,0.0
19.68,8160.0,-56.64883953387266,0.0
19.688,8161.0,-51.47885884383709,0.0
19.696,8164.0,-39.79933485979154,0.0
19.704,8165.0,-26.040831398219552,0.0
19.712,8165.0,-13.751676896829395,0.0
19.72,8164.0,-4.603275473823032,0.0
19.728,8163.0,1.0963832935472055,0.0
19.736,8162.0,3.8923257950780226,0.0
19.744,8163.0,4.955719047598905,0.0
19.752,8165.0,5.446165034623164,0.0
19.76,8171.0,6.544917674297039,0.0
19.768,8173.0,7.8368379962225845,0.0
19.776,8174.0,8.02562287552496,0.0
19.784,8191.0,10.597905621174505,0.0
19.792,8173.0,10.308080987733092,0.0
19.8,8163.0,2.8534293480286124,0.0
19.808,8165.0,-3.6222595058864044,0.0
19.816,8167.0,-6.085590624735914,0.0
19.824,8192.0,-1.1036309614594302,0.0
19.832,8478.0,65.54757160795725,0.0
19.84,8157.0,87.87666853110613,0.0
19.848,8162.0,23.19985896170715,0.0
19.856,8163.0,-17.341467103089826,0.0
19.864,8169.0,-37.258263628908935,0.0
19.872,8176.0,-40.73232100052269,0.0
19.88,8182.0,-33.955461440372346,0.0
19.888,8188.0,-22.34797923053452,0.0
19.896,8202.0,-8.009099466638418,0.0
19.904,8217.0,7.609888305675668,0.0
19.912,8235.0,22.43511023641622,0.0
19.92,8255.0,35.56472584476319,0.0
19.928,8265.0,44.066551373747416,0.0
19.936,8255.0,42.41350764891263,1.0
19.944,8218.0,25.403373186919907,0.0
19.952,8181.0,-3.6261045123444546,0.0
19.96,8160.0,-32.093777330398325,0.0
19.968,8152.0,-49.988440546594575,0.0
19.976,8154.0,-54.218282193285404,0.0
19.984,8156.0,-47.68246872814484,0.0
19.992,8161.0,-35.15786857183707,0.0
20.0,8161.0,-21.398988705552938,0.0
20.008,8161.0,-10.01767056540507,0.0
20.016,8160.0,-1.9722815038603585,0.0
20.024,8158.0,2.471867006358252,0.0
20.032,8160.0,4.725364893899268,0.0
20.04,8161.0,5.954561208746782,0.0
20.048,8160.0,5.778724119151775,0.0
20.056,8164.0,5.411514041679993,0.0
20.064,8170.0,6.416905446875717,0.0
20.072,8168.0,6.855816956111084,0.0
20.08,8188.0,9.753380563498467,0.0
20.088,8168.0,9.988267286802511,0.0
20.096,8158.0,2.4838149618105945,0.0
20.104,8157.0,-4.578190504499162,0.0
20.112,8163.0,-7.039037054322307,0.0
20.12,8178.0,-3.1368592341177646,0.0
20.128,8487.0,65.83993425462677,0.0
20.136,8162.0,93.38177184707138,0.0
20.144,8147.0,26.04991009052742,0.0
20.152,8148.0,-20.57972733826,0.0
20.16,8152.0,-44.01478434178466,0.0
20.168,8155.0,-49.7709718150345,0.0
20.176,8163.0,-43.381995732330324,0.0
20.184,8171.0,-29.75753000989448,0.0
20.192,8181.0,-13.511035813872695,0.0
20.2,8192.0,2.4358638864960085,0.0
20.208,8213.0,18.035154739991412,0.0
20.216,8231.0,32.49393944543476,1.0
20.224,8240.0,41.63449837835151,0.0
20.232,8236.0,41.74943259785891,0.0
20.24,8194.0,26.089859817892147,0.0
20.248,8154.0,-3.8793839997420037,0.0
20.256,8130.0,-34.09023773683566,0.0
20.264,8119.0,-53.938933257764575,0.0
20.272,8117.0,-60.15555083361437,0.0
20.28,8119.0,-54.71175666852196,0.0
20.288,8119.0,-42.78875602569633,0.0
20.296,8116.0,-29.863135105319543,0.0
20.304,8113.0,-18.917145377352426,0.0
20.312,8110.0,-10.801447516397957,0.0
20.32,8110.0,-4.977112715805788,0.0
20.328,8105.0,-1.7995258033117807,0.0
20.336,8103.0,-1.0775825595017068,0.0
20.344,8107.0,-0.07865063147210094,0.0
20.352,8110.0,1.9541461981084467,0.0
20.36,8111.0,3.6772705597104505,0.0
20.368,8123.0,6.794716560909819,0.0
20.376,8109.0,7.19960810611542,0.0
20.384,8097.0,1.0356932973793391,0.0
20.392,8094.0,-5.831171451837463,0.0
20.4,8097.0,-9.00814952364044,0.0
20.408,8110.0,-6.2524541337090795,0.0
20.416,8412.0,60.67996507877592,0.0
20.424,8066.0,82.07465224679981,0.0
20.432,8083.0,15.068977725421519,0.0
20.44,8088.0,-22.348084475754604,0.0
20.448,8094.0,-38.840930916926936,0.0
20.456,8100.0,-40.25441963567414,0.0
20.464,8108.0,-32.127097834779306,0.0
20.472,8122.0,-17.95514774278172,0.0
20.48,8131.0,-2.1527485324645568,0.0
20.488,8147.0,12.626667003608418,0.0
20.496,8171.0,27.624870202043894,0.0
20.504,8197.0,42.52156767055658,0.0
20.512,8206.0,52.03520728425451,0.0
20.52,8199.0,50.18100809580392,1.0
20.528,8158.0,31.669965048731456,0.0
20.536,8120.0,-0.21874092864345585,0.0
20.544,8096.0,-31.711156471857066,0.0
20.552,8090.0,-51.656958211830215,0.0
20.56,8094.0,-56.02966953042255,0.0
20.568,8099.0,-48.28221713123844,0.0
20.576,8103.0,-34.541525121222776,0.0
20.584,8108.0,-19.33969218241009,0.0
20.592,8110.0,-5.98712186367743,0.0
20.6,8113.0,3.8387886746263575,0.0
20.608,8113.0,9.680712766771194,0.0
20.616,8116.0,12.28080919530339,0.0
20.624,8115.0,12.365187955022975,0.0
20.632,8126.0,12.583389211286658,0.0
20.64,8131.0,14.073455931206581,0.0
20.648,8144.0,16.498391735434325,0.0
20.656,8149.0,19.108558684313493,0.0
20.664,8132.0,15.303514179277272,0.0
20.672,8130.0,6.851308086113704,0.0
20.68,8134.0,1.2225498104514827,0.0
20.688,8140.0,-0.24863329279537538,0.0
20.696,8238.0,20.166292914489077,0.0
20.704,8314.0,64.73054200755632,0.0
20.712,8109.0,54.91704490433722,0.0
20.72,8140.0,5.238943248489022,0.0
20.728,8149.0,-16.762856833614933,0.0
20.736,8155.0,-24.168725809602392,0.0
20.744,8164.0,-21.819768040565805,0.0
20.752,8173.0,-13.445049067076752,0.0
20.76,8182.0,-2.776411098488552,0.0
20.768,8194.0,8.244257811939178,0.0
20.776,8215.0,20.253863643638397,0.0
20.784,8237.0,33.070535384087634,0.0
20.792,8259.0,44.625646679665806,0.0
20.8,8265.0,50.41396875631108,0.0
20.808,8247.0,43.74221027488397,1.0
20.816,8207.0,21.31526011099436,0.0
20.824,8174.0,-10.09360644366825,0.0
20.832,8160.0,-36.74058720907374,0.0
20.84,8158.0,-50.198074204927025,0.0
20.848,8156.0,-51.36339256442943,0.0
20.856,8160.0,-43.85666169336491,0.0
20.864,8164.0,-31.13359926382691,0.0
20.872,8171.0,-16.641670917981855,0.0
20.88,8170.0,-4.3222896991869675,0.0
20.888,8168.0,3.005779707390957,0.0
20.896,8167.0,6.270973718204459,0.0
20.904,8171.0,7.864152911157817,0.0
20.912,8171.0,8.431261350915975,0.0
20.92,8180.0,9.327077027000541,0.0
20.928,8186.0,11.507278336313448,0.0
20.936,8187.0,12.482112344840061,0.0
20.944,8200.0,14.026403546834445,0.0
20.952,8181.0,11.587321534012517,0.0
20.96,8177.0,3.689158778614683,0.0
20.968,8181.0,-1.5411216697323198,0.0
20.976,8181.0,-3.583445371322796,0.0
20.984,8276.0,15.160598682447016,0.0
20.992,8376.0,63.785930464997364,0.0
21.0,8151.0,57.33456852598442,0.0
21.008,8178.0,4.375083164009766,0.0
21.016,8184.0,-20.86645621695311,0.0
21.024,8188.0,-30.58765169151684,0.0
21.032,8197.0,-29.04339091598058,0.0
21.04,8207.0,-19.84508110178058,0.0
21.048,8217.0,-7.310450820108372,0.0
21.056,8228.0,5.501176807209276,0.0
21.064,8247.0,18.372933656798068,0.0
21.072,8272.0,32.188952099694234,1.0
21.08,8291.0,44.46873381923342,0.0
21.088,8295.0,49.68791051017365,0.0
21.096,8285.0,44.015444331858134,0.0
21.104,8245.0,23.772455074849177,0.0
21.112,8214.0,-6.308758711315022,0.0
21.12,8198.0,-32.74439540876824,0.0
21.128,8196.0,-47.09136536572123,0.0
21.136,8197.0,-48.64083373908943,0.0
21.144,8202.0,-40.95685730928267,0.0
21.152,8206.0,-28.364315896597873,0.0
21.16,8209.0,-15.18663680777422,0.0
21.168,8206.0,-5.090905724272943,0.0
21.176,8208.0,1.447233568544334,0.0
21.184,8208.0,5.503062324764869,0.0
21.192,8208.0,7.067343561076314,0.0
21.2,8210.0,7.329565850906192,0.0
21.208,8213.0,7.394899104991055,0.0
21.216,8216.0,7.538188039749457,0.0
21.224,8220.0,7.9101563660244665,0.0
21.232,8225.0,8.769572167260776,0.0
21.24,8239.0,11.829974265027886,0.0
21.248,8215.0,9.803319043916872,0.0
21.256,8211.0,1.3980365266304489,0.0
21.264,8207.0,-5.419199130663401,0.0
21.272,8211.0,-8.629286505915388,0.0
21.28,8282.0,6.103136624869649,0.0
21.288,8453.0,63.33135930666708,0.0
21.296,8190.0,68.77857841776768,0.0
21.304,8197.0,9.27139948476406,0.0
21.312,8203.0,-24.67079091333767,0.0
21.32,8205.0,-39.36935665980991,0.0
21.328,8212.0,-40.254497626784996,0.0
21.336,8217.0,-32.22330166075426,0.0
21.344,8223.0,-20.340923660768112,0.0
21.352,8235.0,-6.5523659429725285,0.0
21.36,8249.0,7.907401808937038,0.0
21.368,8269.0,22.206257196214665,0.0
21.376,8289.0,35.46787896928117,1.0
21.384,8296.0,43.44955338300656,0.0
21.392,8284.0,40.56093320274249,0.0
21.4,8238.0,20.85364394752787,0.0
21.408,8201.0,-10.919841413326594,0.0
21.416,8185.0,-38.88299511156333,0.0
21.424,8179.0,-54.01985522998257,0.0
21.432,8179.0,-56.00752662047216,0.0
21.44,8181.0,-48.283028436399945,0.0
21.448,8186.0,-34.964390156521176,0.0
21.456,8186.0,-20.765251064487757,0.0
21.464,8185.0,-9.42394727503347,0.0
21.472,8186.0,-1.2879372690374566,0.0
21.48,8186.0,3.923252951895847,0.0
21.488,8184.0,6.001729153270844,0.0
21.496,8185.0,6.116702747009413,0.0
21.504,8187.0,5.870236078926155,0.0
21.512,8187.0,5.2430806676152315,0.0
21.52,8196.0,5.915976494231245,0.0
21.528,8191.0,6.2341974083688,0.0
21.536,8211.0,8.541727184591764,0.0
21.544,8190.0,8.407069002533717,0.0
21.552,8179.0,0.5151951046666454,0.0
21.56,8179.0,-6.477464834245893,0.0
21.568,8180.0,-9.426551444269535,0.0
21.576,8196.0,-6.268345925480617,0.0
21.584,8499.0,61.721729794043995,0.0
21.592,8171.0,87.46568511110809,0.0
21.6,8164.0,20.989011441930643,0.0
21.608,8164.0,-22.93747142044731,0.0
21.616,8168.0,-44.62072626169402,0.0
21.624,8168.0,-49.86193534981862,0.0
21.632,8173.0,-44.38041569938787,0.0
21.64,8178.0,-32.367050908938836,0.0
21.648,8189.0,-17.086326626930713,0.0
21.656,8201.0,-0.7599237248359714,0.0
21.664,8226.0,16.569827941279527,0.0
21.672,8246.0,33.49997010289758,0.0
21.68,8260.0,45.37966540889079,0.0
21.688,8251.0,46.54670883589051,1.0
21.696,8213.0,30.577727180225338,0.0
21.704,8177.0,1.3794923934506187,0.0
21.712,8152.0,-28.559793135185373,0.0
21.72,8146.0,-48.26916104819679,0.0
21.728,8144.0,-54.241480774885986,0.0
21.736,8144.0,-49.95845374061332,0.0
21.744,8150.0,-38.6253823974605,0.0
21.752,8152.0,-24.432552209353616,0.0
21.76,8155.0,-11.313168409031277,0.0
21.768,8154.0,-1.4305749440684394,0.0
21.776,8152.0,4.017964113033031,0.0
21.784,8151.0,6.018147870575376,0.0
21.792,8158.0,7.514435940865042,0.0
21.8,8156.0,8.28156517528555,0.0
21.808,8158.0,7.4796611080369075,0.0
21.816,8161.0,6.892915576238693,0.0
21.824,8172.0,8.361079414552705,0.0
21.832,8184.0,12.660629718009659,0.0
21.84,8166.0,12.058070828793916,0.0
21.848,8161.0,5.174653671439046,0.0
21.856,8161.0,-0.7022305843863705,0.0
21.864,8167.0,-2.845538853493281,0.0
21.872,8178.0,-0.20855653985177014,0.0
21.88,8476.0,64.51152479502002,0.0
21.888,8137.0,84.62983178369564,0.0
21.896,8149.0,16.89051439930904,0.0
21.904,8160.0,-21.032288617484028,0.0
21.912,8166.0,-36.79791458051932,0.0
21.92,8175.0,-37.478169225777265,0.0
21.928,8183.0,-28.725223861264112,0.0
21.936,8191.0,-15.924850219256086,0.0
21.944,8202.0,-2.058619426608857,0.0
21.952,8216.0,11.561478215724264,0.0
21.96,8239.0,25.422655443322583,0.0
21.968,8258.0,38.3463927839839,0.0
21.976,8274.0,47.32623282505779,0.0
21.984,8270.0,47.91328980264416,0.0
21.992,8235.0,33.02852190640442,0.0
22.0,8194.0,3.6913182925427463,1.0
22.008,8167.0,-28.11075903530491,0.0
22.016,8160.0,-49.602760289974185,0.0
22.024,8159.0,-56.42713704991502,0.0
22.032,8165.0,-50.88653808067693,0.0
22.04,8170.0,-37.64752810634718,0.0
22.048,8172.0,-22.680084030802618,0.0
22.056,8173.0,-9.7768913641562,0.0
22.064,8174.0,-0.25507071264246406,0.0
22.072,8174.0,5.619090878041334,0.0
22.08,8173.0,8.036839032433136,0.0
22.088,8171.0,7.635309172218058,0.0
22.096,8174.0,6.444542905483786,0.0
22.104,8181.0,6.8062651689849645,0.0
22.112,8185.0,8.235586049408994,0.0
22.12,8203.0,12.326890142719549,0.0
22.128,8190.0,13.899082714340693,0.0
22.136,8177.0,7.409788380546388,0.0
22.144,8174.0,-0.8201941587296915,0.0
22.152,8175.0,-5.971642797502454,0.0
22.16,8166.0,-9.747236089974422,0.0
22.168,8454.0,46.49761028354419,0.0
22.176,8195.0,78.63585705604464,0.0
22.184,8155.0,24.63429264256456,0.0
22.192,8171.0,-15.940212842560186,0.0
22.2,8177.0,-33.02456594391924,0.0
22.208,8184.0,-35.46539948525128,0.0
22.216,8192.0,-28.46741887632038,0.0
22.224,8200.0,-16.744014776239283,0.0
22.232,8208.0,-4.003409452271171,0.0
22.24,8225.0,9.245848266756866,0.0
22.248,8243.0,22.830186559215235,0.0
22.256,8266.0,35.77894986869546,0.0
22.264,8281.0,45.77574735006988,0.0
22.272,8281.0,47.812205653314095,1.0
22.28,8254.0,36.25154675337012,0.0
22.288,8211.0,9.617372055908163,0.0
22.296,8183.0,-22.097500598431907,0.0
22.304,8172.0,-45.4711142308131,0.0
22.312,8169.0,-55.26048470504384,0.0
22.32,8174.0,-52.26315886927796,0.0
22.328,8176.0,-41.13672776998669,0.0
22.336,8177.0,-27.7068588018642,0.0
22.344,8180.0,-14.74656630591221,0.0
22.352,8178.0,-4.641816353193235,0.0
22.36,8177.0,1.4249677859406802,0.0
22.368,8178.0,4.796811988205036,0.0
22.376,8178.0,6.267962598452868,0.0
22.384,8177.0,5.983400706067414,0.0
22.392,8180.0,5.316558748698071,0.0
22.4,8185.0,5.750543048713553,0.0
22.408,8189.0,6.974057864420047,0.0
22.416,8191.0,7.866097964801156,0.0
22.424,8206.0,10.674169723922887,0.0
22.432,8185.0,9.49072366466794,0.0
22.44,8179.0,1.835807629093324,0.0
22.448,8179.0,-4.195432145722862,0.0
22.456,8182.0,-6.513317898586138,0.0
22.464,8220.0,1.4797179579397834,0.0
22.472,8470.0,64.82108087640927,0.0
22.48,8166.0,81.42117299490178,0.0
22.488,8170.0,17.603781938222255,0.0
22.496,8173.0,-21.376553280791995,0.0
22.504,8175.0,-40.16701734990011,0.0
22.512,8183.0,-43.146864638892566,0.0
22.52,8192.0,-34.894453437859056,0.0
22.528,8200.0,-21.250466028511937,0.0
22.536,8208.0,-6.690799700103298,0.0
22.544,8225.0,8.041687780152415,0.0
22.552,8245.0,23.094372299791758,0.0
22.56,8266.0,36.871459470730315,1.0
22.568,8274.0,45.35378154841874,0.0
22.576,8265.0,43.2897434020756,0.0
22.584,8230.0,26.516602306865707,0.0
22.592,8195.0,-1.7242932833423765,0.0
22.6,8174.0,-29.60533532384875,0.0
22.608,8167.0,-47.32604242147136,0.0
22.616,8166.0,-52.26525933633275,0.0
22.624,8168.0,-47.05797302577707,0.0
22.632,8171.0,-35.82234420677696,0.0
22.64,8173.0,-22.725017515001355,0.0
22.648,8170.0,-11.738200036665148,0.0
22.656,8169.0,-4.278167912978233,0.0
22.664,8171.0,0.9866043635001915,0.0
22.672,8172.0,4.563503614340334,0.0
22.68,8173.0,6.395596569888767,0.0
22.688,8172.0,6.509445393171063,0.0
22.696,8172.0,5.385565819608246,0.0
22.704,8180.0,5.538796540406338,0.0
22.712,8182.0,6.832678246517617,0.0
22.72,8199.0,10.443678744624776,0.0
22.728,8194.0,13.44744340835723,0.0
22.736,8172.0,7.668951475146059,0.0
22.744,8172.0,-1.4057608262216945,0.0
22.752,8172.0,-6.559400786561355,0.0
22.76,8162.0,-10.655780622869543,0.0
22.768,8393.0,33.68765138322442,0.0
22.776,8269.0,76.6650265862072,0.0
22.784,8159.0,42.65205959850846,0.0
22.792,8167.0,-4.768392760369807,0.0
22.8,8169.0,-30.04681723896283,0.0
22.808,8173.0,-39.21517870558705,0.0
22.816,8184.0,-35.62733623045165,0.0
22.824,8189.0,-24.835154217971876,0.0
22.832,8199.0,-11.622860682794453,0.0
22.84,8209.0,2.0390472877420507,0.0
22.848,8227.0,15.529956582236991,0.0
22.856,8247.0,28.917364696017557,0.0
22.864,8264.0,40.00957246991061,0.0
22.872,8266.0,44.385278084172796,1.0
22.88,8247.0,36.770617099608444,0.0
22.888,8208.0,14.843011764208768,0.0
22.896,8177.0,-14.676371364829947,0.0
22.904,8161.0,-39.51111349273992,0.0
22.912,8159.0,-51.88540270820363,0.0
22.92,8163.0,-50.92849582291092,0.0
22.928,8166.0,-41.21111579858075,0.0
22.936,8167.0,-28.398978385755754,0.0
22.944,8165.0,-16.72058193638327,0.0
22.952,8164.0,-7.891862419660811,0.0
22.96,8163.0,-1.8826744069062897,0.0
22.968,8163.0,1.7522843149674827,0.0
22.976,8160.0,3.023423452400266,0.0
22.984,8160.0,2.7038838874989324,0.0
22.992,8162.0,2.5135696516476855,0.0
23.0,8162.0,2.428532946879386,0.0
23.008,8169.0,3.440153890105421,0.0
23.016,8169.0,4.946962682772437,0.0
23.024,8179.0,7.131077227589003,0.0
23.032,8183.0,10.201815029692398,0.0
23.04,8164.0,7.406616363593912,0.0
23.048,8157.0,-0.6812114156869029,0.0
23.056,8158.0,-6.586864685280034,0.0
23.064,8154.0,-9.693714331594038,0.0
23.072,8304.0,19.766501769522847,0.0
23.08,8306.0,65.24611531562732,0.0
23.088,8136.0,47.928064094095134,0.0
23.096,8150.0,-1.4511916728351935,0.0
23.104,8151.0,-27.369471975524675,0.0
23.112,8156.0,-37.32216026555966,0.0
23.12,8162.0,-35.30237461764682,0.0
23.128,8175.0,-24.873904370963373,0.0
23.136,8180.0,-11.257931920981719,0.0
23.144,8191.0,1.7701802893466265,0.0
23.152,8208.0,14.927027226651035,0.0
23.16,8230.0,28.412583444391203,0.0
23.168,8242.0,39.02646416817606,0.0
23.176,8248.0,43.064037951908404,1.0
23.184,8234.0,37.28842937818763,0.0
23.192,8199.0,18.20863757198549,0.0
23.2,8166.0,-9.728220280720734,0.0
23.208,8149.0,-34.99016015177358,0.0
23.216,8143.0,-49.324027419191225,0.0
23.224,8150.0,-50.11864731449873,0.0
23.232,8150.0,-41.55989993354683,0.0
23.24,8149.0,-30.40160028566993,0.0
23.248,8153.0,-18.580456348850703,0.0
23.256,8151.0,-8.363833167978783,0.0
23.264,8150.0,-1.6665857043067263,0.0
23.272,8150.0,2.3425286445931306,0.0
23.28,8149.0,4.154056444313028,0.0
23.288,8151.0,4.7998878336354664,0.0
23.296,8153.0,5.271315098843161,0.0
23.304,8160.0,6.589630236189578,0.0
23.312,8161.0,8.004620505121693,0.0
23.32,8171.0,9.875157533827633,0.0
23.328,8179.0,13.161614442967903,0.0
23.336,8159.0,10.658153647075096,0.0
23.344,8157.0,3.0670910288711184,0.0
23.352,8156.0,-2.500160564105272,0.0
23.36,8163.0,-4.187765180122597,0.0
23.368,8248.0,14.244778699250219,0.0
23.376,8339.0,58.94302324980458,0.0
23.384,8119.0,50.086226995728794,0.0
23.392,8156.0,-0.1323817584873268,0.0
23.4,8159.0,-21.63948057614425,0.0
23.408,8166.0,-29.03493444094488,0.0
23.416,8172.0,-26.35064417425474,0.0
23.424,8179.0,-18.11217993404739,0.0
23.432,8192.0,-6.407929013711282,0.0
23.44,8203.0,6.388683142436321,0.0
23.448,8219.0,18.50410095815232,0.0
23.456,8237.0,29.80992698919954,0.0
23.464,8258.0,39.944369220681665,0.0
23.472,8260.0,44.580742751543994,1.0
23.48,8254.0,39.74651630828794,0.0
23.488,8214.0,21.463683822416897,0.0
23.496,8178.0,-8.129763628927549,0.0
23.504,8158.0,-35.83955769911222,0.0
23.512,8157.0,-51.083701561745556,0.0
23.52,8160.0,-51.94556934020511,0.0
23.528,8163.0,-43.353910127664676,0.0
23.536,8165.0,-30.67834841006629,0.0
23.544,8165.0,-18.122240728625684,0.0
23.552,8165.0,-7.949033746008126,0.0
23.56,8166.0,-0.5231477416509733,0.0
23.568,8163.0,3.539222722999739,0.0
23.576,8166.0,5.405113978645204,0.0
23.584,8164.0,5.893420737151246,0.0
23.592,8165.0,5.084391578230452,0.0
23.6,8175.0,6.082388357980562,0.0
23.608,8178.0,8.406350855760138,0.0
23.616,8190.0,11.57074879630568,0.0
23.624,8188.0,13.73091467199015,0.0
23.632,8171.0,9.04494881117489,0.0
23.64,8169.0,1.0206396630960626,0.0
23.648,8170.0,-4.083965382514862,0.0
23.656,8158.0,-8.730952101377625,0.0
23.664,8371.0,30.909008692581438,0.0
23.672,8237.0,65.8056107239779,0.0
23.68,8141.0,29.477306725295193,0.0
23.688,8168.0,-10.573056879499745,0.0
23.696,8168.0,-27.139653410505616,0.0
23.704,8176.0,-31.18801289367093,0.0
23.712,8181.0,-26.197824420468805,0.0
23.72,8191.0,-16.210223412312416,0.0
23.728,8198.0,-4.372797422324993,0.0
23.736,8212.0,7.581121806688316,0.0
23.744,8228.0,19.63028711104471,0.0
23.752,8250.0,31.54339169961395,1.0
23.76,8262.0,40.752659636352746,0.0
23.768,8264.0,42.880632828195075,0.0
23.776,8247.0,34.5733902240695,0.0
23.784,8210.0,13.386522087090498,0.0
23.792,8183.0,-14.248164311494293,0.0
23.8,8167.0,-37.216017846540126,0.0
23.808,8165.0,-48.834195815998555,0.0
23.816,8166.0,-48.50562743893806,0.0
23.824,8168.0,-40.34438451496726,0.0
23.832,8170.0,-28.583950710880572,0.0
23.84,8171.0,-16.682282756871246,0.0
23.848,8169.0,-7.318725799468666,0.0
23.856,8169.0,-1.0801300826524312,0.0
23.864,8163.0,1.547320663334176,0.0
23.872,8167.0,2.4579969779761086,0.0
23.88,8167.0,3.4411113915555234,0.0
23.888,8167.0,3.5008105309620987,0.0
23.896,8170.0,3.618254778275059,0.0
23.904,8178.0,5.386450047465132,0.0
23.912,8180.0,7.658516651611762,0.0
23.92,8197.0,11.722807235808204,0.0
23.928,8177.0,11.736203567234952,0.0
23.936,8168.0,4.040055242105836,0.0
23.944,8168.0,-2.9626616695857138,0.0
23.952,8171.0,-6.041979954773296,0.0
23.96,8187.0,-3.065332572877878,0.0
23.968,8495.0,65.35325945437353,0.0
23.976,8169.0,92.23016161831265,0.0
23.984,8159.0,25.496859146443512,0.0
23.992,8163.0,-19.06053566272567,0.0
24.0,8169.0,-40.4788950655543,0.0
24.008,8174.0,-44.76129015532638,0.0
24.016,8181.0,-38.055941733676946,0.0
24.024,8190.0,-25.05186658368507,0.0
24.032,8201.0,-9.477102819409538,0.0
24.04,8214.0,6.073847227565011,0.0
24.048,8233.0,20.88741289346558,0.0
24.056,8252.0,34.24478419139609,1.0
24.064,8260.0,42.46852032136576,0.0
24.072,8254.0,41.3018970028686,0.0
24.08,8227.0,27.6081756022802,0.0
24.088,8190.0,2.2487532926004405,0.0
24.096,8167.0,-25.347754254057463,0.0
24.104,8161.0,-43.749988489821135,0.0
24.112,8163.0,-48.8172281193024,0.0
24.12,8166.0,-43.39121316515502,0.0
24.128,8165.0,-33.195055135199254,0.0
24.136,8168.0,-21.723700261677095,0.0
24.144,8167.0,-11.237388877801095,0.0
24.152,8165.0,-3.944983291937433,0.0
24.16,8164.0,0.35293690793491805,0.0
24.168,8163.0,2.4326087788615496,0.0
24.176,8164.0,3.2937110906746057,0.0
24.184,8164.0,3.5079009239946117,0.0
24.192,8164.0,3.1027332528190072,0.0
24.2,8173.0,4.2314141945955726,0.0
24.208,8178.0,7.117593445742841,0.0
24.216,8189.0,11.014177106830175,0.0
24.224,8190.0,14.10034089676492,0.0
24.232,8171.0,10.110300123949173,0.0
24.24,8166.0,1.3145359702486985,0.0
24.248,8170.0,-4.290864443026749,0.0
24.256,8158.0,-8.589749904112978,0.0
24.264,8349.0,26.740051345428355,0.0
24.272,8295.0,71.56914307940224,0.0
24.28,8154.0,47.39160643185028,0.0
24.288,8160.0,-1.6726870835118461,0.0
24.296,8162.0,-28.801223681299007,0.0
24.304,8165.0,-39.45688591508929,0.0
24.312,8174.0,-37.32488746864692,0.0
24.32,8183.0,-26.727718761321967,0.0
24.328,8190.0,-13.13951982540948,0.0
24.336,8202.0,0.7703405829674921,0.0
24.344,8216.0,14.191637803414096,0.0
24.352,8235.0,26.71927825354146,0.0
24.36,8251.0,37.22767504969397,0.0
24.368,8250.0,40.86268100194343,1.0
24.376,8234.0,33.344038754923986,0.0
24.384,8196.0,12.809931762388487,0.0
24.392,8164.0,-15.577099818324086,0.0
24.4,8147.0,-40.01421169067703,0.0
24.408,8143.0,-52.68996987632568,0.0
24.416,8148.0,-51.99367018792577,0.0
24.424,8143.0,-43.699025593810575,0.0
24.432,8146.0,-32.576900023763756,0.0
24.44,8144.0,-20.85594990915274,0.0
24.448,8140.0,-11.987996101491262,0.0
24.456,8139.0,-5.947485251893568,0.0
24.464,8138.0,-1.8820297772692811,0.0
24.472,8137.0,0.3990101682306886,0.0
24.48,8135.0,1.0746163073658863,0.0
24.488,8137.0,1.311244147845855,0.0
24.496,8134.0,1.0480845482538825,0.0
24.504,8140.0,1.3464528792494548,0.0
24.512,8143.0,3.1574766876992726,0.0
24.52,8160.0,7.83581893332439,0.0
24.528,8142.0,9.210279360208688,0.0
24.536,8129.0,2.293420373142226,0.0
24.544,8128.0,-5.0051197677667005,0.0
24.552,8131.0,-8.1540274915385,0.0
24.56,8137.0,-6.941332095832195,0.0
24.568,8447.0,59.387302318368256,0.0
24.576,8105.0,83.07250497607652,0.0
24.584,8108.0,15.227143044264949,0.0
24.592,8110.0,-26.183602649473414,0.0
24.6,8120.0,-44.252496272290955,0.0
24.608,8121.0,-45.98190033715832,0.0
24.616,8128.0,-38.39886161843992,0.0
24.624,8129.0,-26.458137765949004,0.0
24.632,8141.0,-12.729136665962187,0.0
24.64,8155.0,2.63188074930531,0.0
24.648,8168.0,16.833459193695035,0.0
24.656,8190.0,29.83062701645963,0.0
24.664,8194.0,38.30627691084828,0.0
24.672,8189.0,37.30677773438015,1.0
24.68,8158.0,23.704698040346784,0.0
24.688,8125.0,-1.0087142421800763,0.0
24.696,8097.0,-27.93360282039339,0.0
24.704,8088.0,-47.18100413520483,0.0
24.712,8093.0,-52.22789171215459,0.0
24.72,8094.0,-46.06844290504364,0.0
24.728,8104.0,-33.19392625570936,0.0
24.736,8105.0,-18.30005824298314,0.0
24.744,8107.0,-6.104441947534724,0.0
24.752,8106.0,2.2378317010493447,0.0
24.76,8111.0,7.649360180883605,0.0
24.768,8114.0,11.324402504381169,0.0
24.776,8117.0,13.006708334691211,0.0
24.784,8118.0,12.846854018631575,0.0
24.792,8131.0,13.664793273148689,0.0
24.8,8132.0,14.936988787805603,0.0
24.808,8147.0,16.693552498076542,0.0
24.816,8147.0,18.265954144376337,0.0
24.824,8130.0,12.953421622667065,0.0
24.832,8127.0,3.7616905482223046,0.0
24.84,8129.0,-2.4489015681310775,0.0
24.848,8125.0,-6.159154772288048,0.0
24.856,8297.0,26.902946644832582,0.0
24.864,8202.0,58.108178128308055,0.0
24.872,8099.0,27.301451688721727,0.0
24.88,8137.0,-8.336371447109741,0.0
24.888,8143.0,-19.15939271838647,0.0
24.896,8148.0,-20.40801050461687,0.0
24.904,8158.0,-14.987833362538822,0.0
24.912,8168.0,-5.424000604184357,0.0
24.92,8180.0,5.548994970405602,0.0
24.928,8192.0,16.100333111418422,0.0
24.936,8214.0,26.845604579759993,0.0
24.944,8234.0,37.7108645064568,0.0
24.952,8252.0,46.18258045973312,0.0
24.96,8256.0,48.685533130143995,1.0
24.968,8238.0,39.92426219199933,0.0
24.976,8200.0,17.249025448986913,0.0
24.984,8168.0,-13.077285735895884,0.0
24.992,8154.0,-38.42738321753836,0.0
25.0,8154.0,-50.453555743883726,0.0
25.008,8158.0,-49.09925647450768,0.0
25.016,8162.0,-39.219892701664776,0.0
25.024,8164.0,-26.205249643254092,0.0
25.032,8163.0,-14.331085211311574,0.0
25.04,8164.0,-5.135962267417881,0.0
25.048,8162.0,0.8763899601431149,0.0
25.056,8162.0,3.890612444553426,0.0
25.064,8161.0,4.879055058955373,0.0
25.072,8169.0,6.154001824940451,0.0
25.08,8164.0,6.587886398118144,0.0
25.088,8172.0,6.45858615440693,0.0
25.096,8180.0,8.671733497496689,0.0
25.104,8194.0,13.16046616742642,0.0
25.112,8196.0,17.08862644692522,0.0
25.12,8177.0,13.347782472672861,0.0
25.128,8175.0,4.821454830118682,0.0
25.136,8175.0,-1.3605923919328688,0.0
25.144,8170.0,-5.831867182497945,0.0
25.152,8354.0,28.977855728602663,0.0
25.16,8262.0,63.966559338761726,0.0
25.168,8151.0,33.48766821521758,0.0
25.176,8175.0,-7.388795234031704,0.0
25.184,8179.0,-24.722416677634783,0.0
25.192,8191.0,-27.956468455679214,0.0
25.2,8195.0,-22.36173755547975,0.0
25.208,8203.0,-13.211109673422925,0.0
25.216,8217.0,-1.3018651316456271,0.0
25.224,8227.0,10.841840360467131,0.0
25.232,8243.0,21.69167823018529,0.0
25.24,8266.0,32.78727215018739,1.0
25.248,8283.0,42.55028361267068,0.0
25.256,8288.0,46.367605394124666,0.0
25.264,8268.0,38.53077456145638,0.0
25.272,8230.0,16.20491769697219,0.0
25.28,8199.0,-13.552170920134358,0.0
25.288,8185.0,-38.28933209008983,0.0
25.296,8182.0,-50.586847745495106,0.0
25.304,8188.0,-49.577112538856454,0.0
25.312,8190.0,-39.82907476495211,0.0
25.32,8195.0,-26.595437670251385,0.0
25.328,8195.0,-13.715400118613388,0.0
25.336,8195.0,-4.018750597289454,0.0
25.344,8196.0,2.529422793779304,0.0
25.352,8195.0,6.01851139042742,0.0
25.36,8197.0,7.373776092553044,0.0
25.368,8200.0,8.078830032811538,0.0
25.376,8201.0,8.088155076711473,0.0
25.384,8202.0,7.2760117629600245,0.0
25.392,8210.0,7.53128969934437,0.0
25.4,8213.0,8.78773730358671,0.0
25.408,8227.0,11.671587657425789,0.0
25.416,8210.0,10.994639075345276,0.0
25.424,8203.0,4.024155957978337,0.0
25.432,8205.0,-1.7297899298328048,0.0
25.44,8209.0,-3.644602525234859,0.0
25.448,8237.0,2.313171602002967,0.0
25.456,8504.0,65.75462844911999,0.0
25.464,8196.0,84.92828983677805,0.0
25.472,8199.0,21.07967897221033,0.0
25.48,8204.0,-18.241805783425434,0.0
25.488,8209.0,-36.68778572607539,0.0
25.496,8216.0,-39.58279660318158,0.0
25.504,8222.0,-32.637771367811865,0.0
25.512,8232.0,-20.31341032600426,0.0
25.52,8241.0,-6.063335087931819,0.0
25.528,8257.0,8.390929690425082,0.0
25.536,8279.0,23.43042539127555,0.0
25.544,8295.0,36.53586062836234,1.0
25.552,8307.0,44.467548781090954,0.0
25.56,8301.0,43.64233575755429,0.0
25.568,8263.0,27.548376634739952,0.0
25.576,8226.0,-1.4687851448195488,0.0
25.584,8204.0,-30.460550252539633,0.0
25.592,8196.0,-49.11707811187944,0.0
25.6,8199.0,-53.72529325841924,0.0
25.608,8200.0,-47.48799219880925,0.0
25.616,8203.0,-35.78231919725067,0.0
25.624,8207.0,-22.004475766102587,0.0
25.632,8205.0,-10.111541971127963,0.0
25.64,8203.0,-2.3622547145532735,0.0
25.648,8203.0,2.170205042438738,0.0
25.656,8202.0,4.317364745819987,0.0
25.664,8203.0,4.932627999231272,0.0
25.672,8202.0,4.548649046155788,0.0
25.68,8203.0,3.6319356410863293,0.0
25.688,8207.0,3.560652653485022,0.0
25.696,8209.0,4.204463987604413,0.0
25.704,8211.0,4.7649698786224235,0.0
25.712,8224.0,7.438538826236709,0.0
25.72,8202.0,6.053205388864399,0.0
25.728,8196.0,-1.4042389883350097,0.0
25.736,8195.0,-7.031765863238888,0.0
25.744,8197.0,-9.089476451095152,0.0
25.752,8271.0,6.598531463775544,0.0
25.76,8432.0,62.88667193644483,0.0
25.768,8174.0,66.8238437115665,0.0
25.776,8180.0,7.537189424847156,0.0
25.784,8181.0,-27.23746129201777,0.0
25.792,8185.0,-42.65210764648327,0.0
25.8,8190.0,-43.463033707055956,0.0
25.808,8194.0,-35.51439769899548,0.0
25.816,8201.0,-23.181876516287502,0.0
25.824,8209.0,-9.309285349233278,0.0
25.832,8222.0,4.596657047738745,0.0
25.84,8245.0,19.478530665823882,0.0
25.848,8259.0,32.88560152517607,0.0
25.856,8265.0,39.914692259007325,0.0
25.864,8250.0,36.18143903371538,1.0
25.872,8210.0,17.251520670295577,0.0
25.88,8169.0,-13.107502771735426,0.0
25.888,8154.0,-40.51537321202909,0.0
25.896,8145.0,-55.48495358798186,0.0
25.904,8144.0,-57.968773107435254,0.0
25.912,8141.0,-51.46615293774221,0.0
25.92,8140.0,-40.63484112215701,0.0
25.928,8141.0,-28.068499624601145,0.0
25.936,8138.0,-16.789871779587884,0.0
25.944,8135.0,-8.79997207123506,0.0
25.952,8133.0,-3.7620830411469797,0.0
25.96,8128.0,-1.6424133496418563,0.0
25.968,8130.0,-0.7527374114893064,0.0
25.976,8128.0,-0.11246065188947796,0.0
25.984,8126.0,-0.5339549667712618,0.0
25.992,8129.0,-0.49797130993124483,0.0
26.0,8136.0,1.641815936779949,0.0
26.008,8135.0,3.884168857488021,0.0
26.016,8155.0,8.503122494282252,0.0
26.024,8132.0,9.33268785087148,0.0
26.032,8128.0,2.892223542718284,0.0
26.04,8121.0,-3.602460726028994,0.0
26.048,8124.0,-7.714434025017226,0.0
26.056,8131.0,-6.933640756736622,0.0
26.064,8438.0,58.7297997049468,0.0
26.072,8109.0,84.16430115578646,0.0
26.08,8110.0,19.43525152581128,0.0
26.088,8119.0,-19.749007004766554,0.0
26.096,8124.0,-37.06811879158522,0.0
26.104,8129.0,-39.64764036570659,0.0
26.112,8139.0,-32.09760254828643,0.0
26.12,8154.0,-17.65862661308347,0.0
26.128,8164.0,-1.3346632139544,0.0
26.136,8178.0,13.424872308697331,0.0
26.144,8195.0,26.45159373542174,0.0
26.152,8224.0,39.54303939820488,0.0
26.16,8236.0,49.66644105899877,0.0
26.168,8232.0,49.75779200516263,1.0
26.176,8201.0,35.117419370930065,0.0
26.184,8164.0,7.242455794646503,0.0
26.192,8132.0,-24.437550370998224,0.0
26.2,8127.0,-47.02716320461241,0.0
26.208,8124.0,-54.8911565619469,0.0
26.216,8131.0,-50.40255873067349,0.0
26.224,8134.0,-38.06337830140387,0.0
26.232,8136.0,-23.973645785902136,0.0
26.24,8139.0,-10.984809409676018,0.0
26.248,8137.0,-1.433505400481863,0.0
26.256,8140.0,4.636757207624896,0.0
26.264,8138.0,7.728014208412105,0.0
26.272,8142.0,8.793121979636453,0.0
26.28,8143.0,9.111387999621456,0.0
26.288,8147.0,8.939720153893177,0.0
26.296,8154.0,9.730138045178137,0.0
26.304,8155.0,10.356792700342567,0.0
26.312,8162.0,10.791589805221975,0.0
26.32,8176.0,13.702913013847592,0.0
26.328,8161.0,13.142840580670963,0.0
26.336,8154.0,6.324386769240618,0.0
26.344,8155.0,0.10730779632694976,0.0
26.352,8158.0,-2.7685282901011306,0.0
26.36,8215.0,8.208498014531415,0.0
26.368,8383.0,59.4234735541404,0.0
26.376,8125.0,62.315551474096765,0.0
26.384,8152.0,7.384658031381605,0.0
26.392,8161.0,-18.866153438891843,0.0
26.4,8166.0,-28.670296977657927,0.0
26.408,8174.0,-27.465785156606444,0.0
26.416,8184.0,-18.91188679262541,0.0
26.424,8191.0,-7.512746125337117,0.0
26.432,8206.0,4.86232599636287,0.0
26.44,8223.0,17.981363611817414,0.0
26.448,8248.0,31.594388484083993,0.0
26.456,8262.0,42.822758881148275,0.0
26.464,8277.0,48.89548682396844,0.0
26.472,8264.0,45.482356827431204,1.0
26.48,8227.0,26.353134014593707,0.0
26.488,8191.0,-3.8692631694802913,0.0
26.496,8167.0,-33.41416253026523,0.0
26.504,8159.0,-52.358612239388094,0.0
26.512,8162.0,-56.645649058134495,0.0
26.52,8166.0,-49.16274078248716,0.0
