Time_Seconds,ECG_Raw,ECG_Filtered,R_Peak_Marker
0.0,8242.5,169.7099302796296,0.0
0.008,8220.5,409.56138681135826,0.0
0.016,8190.5,478.69115943444103,0.0
0.024,8160.5,434.74111355041737,0.0
0.032,8153.0,335.17596369064563,0.0
0.04,8158.5,225.06806422255772,0.0
0.048,8168.5,128.9941216570105,0.0
0.056,8165.5,54.04922475970511,0.0
0.064,8171.5,2.1453383196580944,0.0
0.072,8182.0,-25.50482956295741,0.0
0.08,8180.0,-36.25370305081856,0.0
0.088,8194.0,-34.66246991726803,0.0
0.096,8181.0,-28.261876864145734,0.0
0.104,8173.0,-24.482059873981598,0.0
0.112,8173.5,-20.067169269457054,0.0
0.12,8175.5,-13.903038460062817,0.0
0.128,8170.0,-8.864769811957785,0.0
0.136,8400.5,41.426543166553074,0.0
0.144,8206.5,72.34496991763058,0.0
0.152,8107.0,19.699433232621914,0.0
0.16,8173.0,-21.265794585264075,0.0
0.168,8183.5,-26.639404253160137,0.0
0.176,8196.5,-20.977430658522508,0.0
0.184,8201.5,-10.771107877235863,0.0
0.192,8216.5,0.9839381661315656,0.0
0.2,8236.5,14.937205227440927,0.0
0.208,8257.5,29.300821537083948,0.0
0.216,8264.0,38.971362814552776,0.0
0.224,8243.5,35.92177484291187,0.0
0.232,8198.0,15.188234072372552,0.0
0.24,8165.0,-15.413878024834958,0.0
0.248,8157.5,-39.449174206784846,0.0
0.256,8155.0,-49.72565654022219,0.0
0.264,8162.5,-47.242650662013375,0.0
0.272,8164.5,-36.67080378061132,0.0
0.28,8172.0,-22.918046436906707,0.0
0.288,8177.5,-8.654131348386727,0.0
0.296,8186.0,3.9538045208814765,0.0
0.304,8188.0,12.955832229683438,0.0
0.312,8164.0,11.820741351493552,0.0
0.32,8159.5,3.5347130702109553,0.0
0.328,8161.0,-2.5144370912200884,0.0
0.336,8166.0,-4.382720823989985,0.0
0.344,8158.5,-5.333900596008334,1.0
0.352,8497.5,62.63797879937397,0.0
0.36,8068.0,74.85055468454402,0.0
0.368,8123.0,-5.785834357671774,0.0
0.376,8178.5,-30.02162003330909,0.0
0.384,8191.5,-25.808385305785123,0.0
0.392,8202.5,-14.500609609753838,0.0
0.4,8208.0,-2.2437825297945437,0.0
0.408,8228.5,10.65689014642976,0.0
0.416,8247.5,24.740498924451003,0.0
0.424,8260.5,35.85619665440527,0.0
0.432,8264.0,40.36474292709113,0.0
0.44,8233.0,31.29304561985191,0.0
0.448,8191.5,6.3718539436315496,0.0
0.456,8163.5,-23.531453285317184,0.0
0.464,8162.0,-43.67544812786491,0.0
0.472,8159.0,-49.88621371958857,0.0
0.48,8159.0,-46.608813893951265,0.0
0.488,8168.5,-35.66326087719085,0.0
0.496,8183.5,-18.7777373732863,0.0
0.504,8197.5,-0.02001607756642443,0.0
0.512,8197.5,13.93651558655506,0.0
0.52,8180.0,16.502180716524208,0.0
0.528,8174.0,10.716516093923019,0.0
0.536,8170.5,3.729275411578328,0.0
0.544,8177.0,-0.35546690668365954,0.0
0.552,8165.5,-3.7387879222999345,0.0
0.56,8410.5,42.531408460620014,0.0
0.568,8070.0,43.93653405881787,0.0
0.576,8108.0,-23.694773496691596,0.0
0.584,8181.5,-37.31986803583891,0.0
0.592,8191.5,-22.660475156632856,0.0
0.6,8197.0,-7.388676092671631,0.0
0.608,8206.5,5.827763568842784,0.0
0.616,8214.5,16.3356508764075,0.0
0.624,8241.5,27.223849467042328,0.0
0.632,8252.5,37.29908657151759,0.0
0.64,8254.0,40.15634370585326,0.0
0.648,8229.5,31.059026215634958,0.0
0.656,8190.5,7.9968703280615046,0.0
0.664,8166.0,-19.82757291920234,1.0
0.672,8162.5,-38.997231775898626,0.0
0.68,8158.5,-45.95395196293475,0.0
0.688,8163.0,-42.99883286678255,0.0
0.696,8169.5,-32.484740639705706,0.0
0.704,8183.5,-17.15348681829164,0.0
0.712,8193.0,-0.6848681400115311,0.0
0.72,8193.5,11.201488133000112,0.0
0.728,8180.5,13.979021515839122,0.0
0.736,8171.5,9.00764738201201,0.0
0.744,8171.5,2.8632118317484583,0.0
0.752,8167.5,-2.021897229692513,0.0
0.76,8170.5,-4.8087000139069005,0.0
0.768,8422.5,46.36895529186472,0.0
0.776,8039.0,42.73969693579534,0.0
0.784,8132.5,-25.133722052142502,0.0
0.792,8176.0,-33.474168288030796,0.0
0.8,8186.0,-22.401521317936158,0.0
0.808,8193.0,-8.983727093562493,0.0
0.816,8202.0,3.582386545508143,0.0
0.824,8216.5,15.271902721311335,0.0
0.832,8230.5,25.69223609487085,0.0
0.84,8244.5,33.67998090386436,0.0
0.848,8242.5,35.74924726117138,0.0
0.856,8216.0,25.730426630902002,0.0
0.864,8178.0,2.726873074213927,0.0
0.872,8159.0,-22.935963705276436,0.0
0.88,8156.0,-39.130178381783026,0.0
0.888,8154.5,-43.694167038389196,0.0
0.896,8160.0,-38.95154764261747,0.0
0.904,8165.0,-28.096097309370634,0.0
0.912,8176.5,-14.045538294039034,0.0
0.92,8184.5,0.3772746092174657,0.0
0.928,8186.5,10.892711341841277,0.0
0.936,8169.0,12.293396901870892,0.0
0.944,8159.0,5.639663289555301,0.0
0.952,8161.5,-0.6826395039752242,0.0
0.96,8162.5,-3.6030898617475486,0.0
0.968,8166.5,-3.762464315165971,1.0
0.976,8427.0,50.75128392356828,0.0
0.984,8034.0,48.226271856608946,0.0
0.992,8141.5,-18.906573505687675,0.0
1.0,8174.0,-27.140252468996778,0.0
1.008,8175.5,-20.94862598413374,0.0
1.016,8188.0,-11.250637782587773,0.0
1.024,8194.5,0.07218159783064948,0.0
1.032,8209.5,11.150002452835224,0.0
1.04,8222.0,21.629208131249925,0.0
1.048,8235.5,29.85917127279913,0.0
1.056,8229.5,31.7316112821959,0.0
1.064,8201.0,20.979703964924738,0.0
1.072,8167.5,-1.2263781579549686,0.0
1.08,8148.0,-25.001028800115364,0.0
1.088,8147.5,-39.35688341595369,0.0
1.096,8152.5,-40.96059038561293,0.0
1.104,8158.0,-33.55375240880721,0.0
1.112,8167.0,-21.123853771938002,0.0
1.12,8166.0,-8.935800048988312,0.0
1.128,8179.5,2.180727894177153,0.0
1.136,8178.0,10.876009995736922,0.0
1.144,8189.0,16.310311836373103,0.0
1.152,8176.5,16.74486195678014,0.0
1.16,8159.5,8.43626114457561,0.0
1.168,8165.5,-0.003777512190708876,0.0
1.176,8168.5,-3.1559223254118933,0.0
1.184,8158.0,-6.073876678202396,0.0
1.192,8438.0,48.18039347426793,0.0
1.2,8061.5,53.24653350722451,0.0
1.208,8129.0,-14.959117311766022,0.0
1.216,8175.0,-29.839704450180307,0.0
1.224,8184.0,-22.879462408419386,0.0
1.232,8195.5,-11.10622328321665,0.0
1.24,8200.0,0.8090986565946423,0.0
1.248,8216.5,12.023448811985645,0.0
1.256,8232.0,23.370326625171174,0.0
1.264,8247.5,32.87095964335845,0.0
1.272,8247.0,36.5705052386877,0.0
1.28,8225.0,28.617121604820113,0.0
1.288,8192.0,8.338264882506564,0.0
1.296,8167.0,-16.768244737414307,1.0
1.304,8159.5,-35.71370610009126,0.0
1.312,8159.5,-43.03565750823191,0.0
1.32,8164.0,-39.92178014225942,0.0
1.328,8169.0,-30.08676728553337,0.0
1.336,8173.0,-17.87014042857095,0.0
1.344,8173.0,-7.118719929827876,0.0
1.352,8173.0,0.31893439530404066,0.0
1.36,8172.0,4.4648958583047715,0.0
1.368,8171.5,5.933428482646832,0.0
1.376,8179.0,7.3324442327350425,0.0
1.384,8186.5,10.112647111440992,0.0
1.392,8185.5,11.551613201974988,0.0
1.4,8169.0,7.075990039820454,0.0
1.408,8168.5,-0.11680374415414008,0.0
1.416,8172.5,-3.637848418598651,0.0
1.424,8166.5,-5.577249323368505,0.0
1.432,8278.0,15.675105970854474,0.0
1.44,8281.0,49.25962715173932,0.0
1.448,8070.5,19.260695657520728,0.0
1.456,8168.5,-24.384614510446,0.0
1.464,8185.0,-23.106939224823464,0.0
1.472,8193.5,-13.740518831184318,0.0
1.48,8201.0,-2.8491952224317174,0.0
1.488,8217.0,8.824956601515396,0.0
1.496,8227.0,19.702884590074746,0.0
1.504,8245.0,28.869306483258015,0.0
1.512,8248.5,34.30585338066385,0.0
1.52,8240.0,31.29834183090884,0.0
1.528,8210.0,16.90892467234403,0.0
1.536,8175.5,-7.341948644542526,0.0
1.544,8162.5,-30.27503822341191,0.0
1.552,8156.0,-43.23144252147404,0.0
1.56,8161.5,-44.54374252033972,0.0
1.568,8168.5,-36.01271713555957,0.0
1.576,8173.0,-23.15807031495433,0.0
1.584,8179.5,-9.797507504743407,0.0
1.592,8175.0,-0.002073254091101262,0.0
1.6,8173.0,4.463289384826567,0.0
1.608,8173.0,6.018808486232274,0.0
1.616,8173.5,6.128367921174458,0.0
1.624,8177.5,6.183381986862059,0.0
1.632,8189.5,8.547256708833856,0.0
1.64,8185.0,10.181639500211304,0.0
1.648,8167.0,5.007785514903844,0.0
1.656,8169.0,-2.080075784507926,0.0
1.664,8169.5,-5.4457091701299305,0.0
1.672,8169.0,-6.6105054173349345,0.0
1.68,8276.0,15.460904438512898,0.0
1.688,8285.5,49.97089026607432,0.0
1.696,8070.0,20.71789239112195,0.0
1.704,8169.5,-23.42225497400318,0.0
1.712,8181.5,-23.196033128800536,0.0
1.72,8193.0,-14.744384115389039,0.0
1.728,8200.0,-3.7311049058787376,0.0
1.736,8212.0,7.229525467556186,0.0
1.744,8226.0,17.92736423812903,0.0
1.752,8246.0,28.48227645315137,1.0
1.76,8245.5,34.3900509100888,0.0
1.768,8240.5,31.54630681074036,0.0
1.776,8208.0,17.420447858868783,0.0
1.784,8173.0,-7.365012994809149,0.0
1.792,8160.0,-30.712910346025865,0.0
1.8,8153.5,-43.84824469460227,0.0
1.808,8161.5,-44.662097079754176,0.0
1.816,8173.5,-34.2860904675108,0.0
1.824,8177.5,-19.6827480643351,0.0
1.832,8175.0,-7.75576727440739,0.0
1.84,8174.0,-0.24135751934045402,0.0
1.848,8172.5,3.7284926095842366,0.0
1.856,8171.0,4.898069469461916,0.0
1.864,8171.5,4.642849326132136,0.0
1.872,8174.0,4.40090426744041,0.0
1.88,8176.5,4.612093447208508,0.0
1.888,8191.0,7.510856587749004,0.0
1.896,8176.0,7.984295405124385,0.0
1.904,8168.5,2.457004368629214,0.0
1.912,8171.0,-2.2058414230266408,0.0
1.92,8173.5,-3.6075050192223443,0.0
1.928,8160.0,-6.1368152845338955,0.0
1.936,8430.5,45.803080272413354,0.0
1.944,8092.5,55.785655631715144,0.0
1.952,8121.0,-9.999534737192562,0.0
1.96,8181.0,-29.308117421905763,0.0
1.968,8190.5,-22.084817561935324,0.0
1.976,8202.0,-10.174333602866,0.0
1.984,8212.5,2.906674176158731,0.0
1.992,8222.5,14.390241395520434,0.0
2.0,8241.0,24.82244715942238,0.0
2.008,8256.0,34.072738083286595,0.0
2.016,8256.0,37.44202798009587,0.0
2.024,8238.5,30.182702657492655,0.0
2.032,8198.0,9.464047836458121,0.0
2.04,8173.5,-17.503345408063524,0.0
2.048,8161.0,-38.35723404941632,0.0
2.056,8161.5,-47.32638987335713,0.0
2.064,8169.5,-43.71893751401376,0.0
2.072,8176.0,-31.994827221216383,0.0
2.08,8184.0,-17.248052313295375,0.0
2.088,8179.5,-5.196772741644281,0.0
2.096,8179.5,1.7988725075276761,0.0
2.104,8176.0,4.948302384730141,0.0
2.112,8174.0,4.9369944396310075,0.0
2.12,8170.0,2.9559953630166547,0.0
2.128,8173.5,1.2341215747912884,0.0
2.136,8181.5,2.3781603369122877,0.0
2.144,8192.5,6.575901458848193,0.0
2.152,8187.0,9.185108891984783,0.0
2.16,8167.0,4.125947922544583,0.0
2.168,8175.5,-1.8410334192683422,0.0
2.176,8174.5,-3.55851776844861,0.0
2.184,8170.5,-5.056226006048064,0.0
2.192,8322.5,25.061137351335674,0.0
2.2,8218.5,48.87937172491024,0.0
2.208,8079.0,5.807495849786164,0.0
2.216,8176.0,-29.22841048664759,0.0
2.224,8190.0,-22.83982420997313,0.0
2.232,8199.0,-10.89991891981299,0.0
2.24,8206.0,1.0826909385882573,0.0
2.248,8217.0,11.68245276591233,0.0
2.256,8231.5,21.38960772266023,0.0
2.264,8250.5,30.731563772529626,1.0
2.272,8252.5,35.88743068250892,0.0
2.28,8240.5,31.45263554235453,0.0
2.288,8214.5,16.2978828857415,0.0
2.296,8177.5,-8.006516199244288,0.0
2.304,8163.0,-31.687707840829034,0.0
2.312,8157.5,-44.97451148920322,0.0
2.32,8162.5,-46.11578887722362,0.0
2.328,8174.5,-36.32592650967763,0.0
2.336,8176.0,-22.27071768610881,0.0
2.344,8177.5,-9.969084213369342,0.0
2.352,8177.5,-0.8760363850678914,0.0
2.36,8175.5,4.225792917432727,0.0
2.368,8176.0,6.295875034292067,0.0
2.376,8172.5,5.95268674418071,0.0
2.384,8177.5,5.15367941885097,0.0
2.392,8178.0,5.023443706338412,0.0
2.4,8193.5,7.453622349511761,0.0
2.408,8177.5,7.658618453732515,0.0
2.416,8170.0,1.8176464848820615,0.0
2.424,8171.5,-3.138076315515491,0.0
2.432,8173.5,-4.87806031498485,0.0
2.44,8167.0,-6.086866171283873,0.0
2.448,8492.5,59.29305174764363,0.0
2.456,8077.5,70.68417713584222,0.0
2.464,8132.5,-6.843982409581258,0.0
2.472,8175.5,-31.634898854307266,0.0
2.48,8191.0,-29.548383679881454,0.0
2.488,8199.5,-18.931318522962783,0.0
2.496,8212.5,-5.389724626636962,0.0
2.504,8219.5,7.521914035838108,0.0
2.512,8240.0,19.63569757041455,0.0
2.52,8253.5,30.76899368710224,0.0
2.528,8256.5,36.05922763318995,0.0
2.536,8234.0,29.73699266029621,0.0
2.544,8197.5,9.435805599392552,0.0
2.552,8170.5,-16.973964807079255,0.0
2.56,8158.0,-38.089088629695425,0.0
2.568,8163.0,-46.33403881048844,0.0
2.576,8168.5,-42.04014291343151,0.0
2.584,8176.5,-30.368896945454935,0.0
2.592,8180.0,-16.512798606409433,0.0
2.6,8177.5,-5.610488890482429,0.0
2.608,8180.0,1.687735441008499,0.0
2.616,8179.5,6.1566143134014055,0.0
2.624,8176.5,7.151033626751769,0.0
2.632,8176.5,6.042047991526033,0.0
2.64,8185.0,6.206706929021038,0.0
2.648,8194.5,9.04049075947296,0.0
2.656,8192.0,10.775846506811604,0.0
2.664,8172.5,5.673769377439157,0.0
2.672,8177.0,-1.2683133978857768,0.0
2.68,8178.5,-3.9557534790692443,0.0
2.688,8175.0,-5.353963842114581,0.0
2.696,8335.5,26.706090383238916,0.0
2.704,8223.0,51.42383463761644,0.0
2.712,8083.0,6.6594493933016565,0.0
2.72,8173.0,-31.038826589258633,0.0
2.728,8188.5,-27.073935415419555,0.0
2.736,8199.5,-15.210405292361656,0.0
2.744,8211.0,-1.291487611137427,0.0
2.752,8220.0,11.324109022845278,0.0
2.76,8233.0,21.56270161704265,0.0
2.768,8247.5,29.966900986272094,1.0
2.776,8256.0,35.09271369397993,0.0
2.784,8248.0,32.90579167918304,0.0
2.792,8216.5,18.55366062398025,0.0
2.8,8183.0,-6.026673548860572,0.0
2.808,8161.5,-30.8862731463621,0.0
2.816,8159.5,-45.70654516158538,0.0
2.824,8168.0,-46.21362249830986,0.0
2.832,8174.5,-36.44246418283751,0.0
2.84,8181.0,-22.48279883017949,0.0
2.848,8179.0,-9.899064367438314,0.0
2.856,8180.0,-1.1605503745927308,0.0
2.864,8180.0,4.38764635406983,0.0
2.872,8175.5,6.084268066552113,0.0
2.88,8180.5,6.267350908036178,0.0
2.888,8191.0,8.592084201154876,0.0
2.896,8189.5,10.502973675531393,0.0
2.904,8170.0,5.750378469313318,0.0
2.912,8175.0,-0.8944857032456639,0.0
2.92,8176.0,-3.462827883719683,0.0
2.928,8171.5,-5.171788519568963,0.0
2.936,8326.5,25.348913219600263,0.0
2.944,8212.0,47.82979484658381,0.0
2.952,8077.0,2.9003340594902056,0.0
2.96,8168.0,-33.09983612590622,0.0
2.968,8190.0,-26.28595842804657,0.0
2.976,8200.5,-11.631204037872067,0.0
2.984,8204.5,1.7613833217267256,0.0
2.992,8218.0,12.98995533040943,0.0
3.0,8232.5,23.38150683065919,0.0
3.008,8247.0,31.906864742610196,0.0
3.016,8248.0,35.27795282672059,0.0
3.024,8244.0,31.310152238328556,0.0
3.032,8215.5,17.576836074079893,0.0
3.04,8181.5,-5.978681799992273,0.0
3.048,8164.0,-29.524429958461496,0.0
3.056,8158.0,-43.774163900420945,0.0
3.064,8169.5,-44.44109859350715,0.0
3.072,8175.5,-34.52246314019999,0.0
3.08,8181.0,-21.073126108550014,0.0
3.088,8186.0,-7.779117051355115,0.0
3.096,8182.5,1.5687951905849786,0.0
3.104,8180.0,5.633482265571274,0.0
3.112,8182.5,7.183229094562648,0.0
3.12,8194.0,9.87089603673985,0.0
3.128,8190.5,11.598240079842526,0.0
3.136,8175.5,7.0817931540730115,0.0
3.144,8172.5,-0.3403243813190784,0.0
3.152,8171.0,-5.597508971776961,0.0
3.16,8171.5,-8.062251665715621,0.0
3.168,8275.5,13.051872222926477,0.0
3.176,8282.0,46.13515348068995,0.0
3.184,8060.0,14.679090016048349,1.0
3.192,8157.0,-31.687100406650643,0.0
3.2,8184.5,-28.868397918477967,0.0
3.208,8194.5,-15.163351130861656,0.0
3.216,8203.0,-0.9797007936299451,0.0
3.224,8205.5,9.804329904123506,0.0
3.232,8226.0,19.39445470052442,0.0
3.24,8242.0,29.582590527289767,0.0
3.248,8250.5,36.12813755321554,0.0
3.256,8244.0,34.93031283143159,0.0
3.264,8215.0,21.673394278831893,0.0
3.272,8183.5,-1.8128677619502014,0.0
3.28,8163.0,-26.05139512617302,0.0
3.288,8162.5,-40.72663856199233,0.0
3.296,8165.0,-42.82231256598857,0.0
3.304,8176.5,-34.709111139851075,0.0
3.312,8178.5,-21.89060512698802,0.0
3.32,8183.5,-9.56078191108054,0.0
3.328,8184.0,0.3042371336462111,0.0
3.336,8183.0,5.990116780556718,0.0
3.344,8187.0,9.0574666947889,0.0
3.352,8196.5,12.256334644800972,0.0
3.36,8180.0,10.85982910722737,0.0
3.368,8172.5,3.484239975036189,0.0
3.376,8173.0,-2.8360289547877073,0.0
3.384,8172.5,-6.143850115752912,0.0
3.392,8179.0,-5.942804954959911,0.0
3.4,8404.0,42.37273302410449,0.0
3.408,8086.5,45.62442981230879,0.0
3.416,8111.5,-19.127715261945696,0.0
3.424,8174.5,-36.54356716285474,0.0
3.432,8189.5,-25.36737284699143,0.0
3.44,8195.0,-10.723629908837438,0.0
3.448,8206.5,3.035598406453346,0.0
3.456,8217.0,15.207168934232186,0.0
3.464,8231.5,25.207349977988315,0.0
3.472,8245.0,33.02013185045871,0.0
3.48,8244.5,35.290267144856216,0.0
3.488,8235.0,29.239392125576387,0.0
3.496,8198.5,11.830039724256494,0.0
3.504,8169.0,-13.743250646372644,1.0
3.512,8158.5,-34.955646367370264,0.0
3.52,8159.0,-44.24394188172073,0.0
3.528,8162.0,-42.314067829773194,0.0
3.536,8170.0,-32.51012229383491,0.0
3.544,8176.5,-18.82080484225594,0.0
3.552,8176.5,-6.543553546728845,0.0
3.56,8176.0,1.6071221713473278,0.0
3.568,8184.0,7.716015845263428,0.0
3.576,8185.5,12.099824245826312,0.0
3.584,8190.5,14.1858804891192,0.0
3.592,8171.0,10.306461835182972,0.0
3.6,8168.0,1.8528302258541771,0.0
3.608,8170.0,-3.6318453276107903,0.0
3.616,8171.0,-5.7119403149397385,0.0
3.624,8173.5,-5.36105460367753,0.0
3.632,8466.5,56.03015136519571,0.0
3.64,8049.5,58.50867485509798,0.0
3.648,8146.5,-14.272399928687037,0.0
3.656,8178.0,-28.898487353254268,0.0
3.664,8185.5,-25.199247410620274,0.0
3.672,8193.0,-16.126507296552518,0.0
3.68,8202.5,-4.842820882379328,0.0
3.688,8214.5,6.957029190996309,0.0
3.696,8235.0,19.520450118456438,0.0
3.704,8248.5,30.937133922060184,0.0
3.712,8247.0,35.450117125387806,0.0
3.72,8224.5,27.841211977852026,0.0
3.728,8184.0,6.2493097279214,0.0
3.736,8159.0,-20.849278776238407,0.0
3.744,8156.5,-39.33261525475382,0.0
3.752,8155.0,-45.11754453967046,0.0
3.76,8166.0,-39.75753205499632,0.0
3.768,8169.0,-27.699706831425146,0.0
3.776,8171.0,-15.347622242884881,0.0
3.784,8172.5,-5.000686208574962,0.0
3.792,8170.5,1.7744873466808713,0.0
3.8,8172.0,5.410130178685904,0.0
3.808,8176.0,7.863658296054155,0.0
3.816,8181.0,9.96115478232855,0.0
3.824,8190.5,12.653744057519361,0.0
3.832,8178.5,11.81692789787985,0.0
3.84,8163.0,3.9121777822920194,0.0
3.848,8169.0,-3.2966685642197717,0.0
3.856,8171.0,-5.42574794816619,0.0
3.864,8160.0,-7.700981972927593,0.0
3.872,8373.5,33.49192506200416,0.0
3.88,8132.5,47.15729854316032,0.0
3.888,8112.0,-5.335290742337293,0.0
3.896,8178.0,-26.274740949315174,0.0
3.904,8190.5,-18.637121712279395,0.0
3.912,8192.0,-8.434427112351614,0.0
3.92,8205.5,1.9427007241381489,0.0
3.928,8217.5,12.99485167816374,0.0
3.936,8230.5,22.66842324052277,0.0
3.944,8251.5,31.898785011495193,1.0
3.952,8255.5,37.628894029019875,0.0
3.96,8245.5,34.08688162312819,0.0
3.968,8202.0,15.894073627966918,0.0
3.976,8172.5,-12.188812368869549,0.0
3.984,8156.0,-36.34685494232485,0.0
3.992,8155.0,-48.69853369022121,0.0
4.0,8162.0,-47.39421867372903,0.0
4.008,8167.0,-36.985716064400094,0.0
4.016,8170.5,-23.48611665892986,0.0
4.024,8177.5,-9.796544667616445,0.0
4.032,8176.5,1.0105223900627607,0.0
4.04,8174.0,6.533544024380717,0.0
4.048,8174.0,8.298535460309722,0.0
4.056,8176.5,8.594944619189846,0.0
4.064,8174.5,7.569295864784635,0.0
4.072,8174.0,5.304382224491292,0.0
4.08,8179.0,4.080062785551036,0.0
4.088,8189.0,5.801928975083456,0.0
4.096,8189.0,7.983605128377803,0.0
4.104,8173.0,4.794622848198287,0.0
4.112,8171.0,-1.4956722693295887,0.0
4.12,8174.5,-4.6825296250449355,0.0
4.128,8176.5,-4.7336505164450955,0.0
4.136,8194.0,-0.06233996168202793,0.0
4.144,8493.0,67.37092776433224,0.0
4.152,8057.5,69.1495607500633,0.0
4.16,8156.0,-9.1318260382277,0.0
4.168,8188.5,-27.279408532105208,0.0
4.176,8196.0,-25.703945603659804,0.0
4.184,8199.0,-18.730039220618437,0.0
4.192,8214.0,-8.088572620131117,0.0
4.2,8226.5,5.049368934578752,0.0
4.208,8243.0,17.978305884957763,0.0
4.216,8263.0,30.355714591131118,0.0
4.224,8258.5,36.24007183637332,0.0
4.232,8236.0,28.70952610508357,0.0
4.24,8193.5,6.6237171653274345,0.0
4.248,8171.5,-20.61943070345842,1.0
4.256,8160.0,-40.44891197853349,0.0
4.264,8164.0,-47.57575820242914,0.0
4.272,8169.0,-42.73880938860202,0.0
4.28,8175.5,-31.049078385199437,0.0
4.288,8180.5,-17.078924491909902,0.0
4.296,8178.5,-5.614729494141557,0.0
4.304,8177.5,1.4035333193737642,0.0
4.312,8174.5,4.524126861990908,0.0
4.32,8175.5,5.275128057199709,0.0
4.328,8173.5,4.715196423347379,0.0
4.336,8173.5,3.260572696121926,0.0
4.344,8173.0,1.8038189029737168,0.0
4.352,8176.0,1.179568935045154,0.0
4.36,8176.5,1.3466048446405239,0.0
4.368,8182.5,2.56918377509146,0.0
4.376,8193.5,6.37581036652773,0.0
4.384,8189.0,8.988350306784241,0.0
4.392,8173.0,4.982495222012631,0.0
4.4,8178.0,-0.38927502476894915,0.0
4.408,8177.0,-2.6899091070595205,0.0
4.416,8169.5,-5.379235346155156,0.0
4.424,8327.5,24.593131178988415,0.0
4.432,8232.5,51.461082289347814,0.0
4.44,8094.0,11.844394312879558,0.0
4.448,8178.0,-24.514994551483596,0.0
4.456,8192.0,-22.27963386627971,0.0
4.464,8197.5,-13.595923697251237,0.0
4.472,8209.5,-2.8238248823954564,0.0
4.48,8220.5,8.67382073983731,0.0
4.488,8234.5,19.265976407948983,0.0
4.496,8253.0,29.248987168738722,0.0
4.504,8261.5,36.234553836400664,0.0
4.512,8248.0,33.8507162706087,0.0
4.52,8216.5,18.115213428080324,0.0
4.528,8180.5,-7.727522829810596,0.0
4.536,8163.5,-32.66723446369474,0.0
4.544,8158.0,-47.06056902362707,0.0
4.552,8160.5,-49.05072808432624,0.0
4.56,8170.0,-40.33942563376786,0.0
4.568,8175.5,-26.007130290104442,0.0
4.576,8180.0,-11.545038282676842,0.0
4.584,8176.0,-1.1396664243575287,0.0
4.592,8172.5,3.654584038052235,0.0
4.6,8171.5,5.016464071417431,0.0
4.608,8170.0,4.550570452282955,0.0
4.616,8175.5,4.402324838103823,0.0
4.624,8170.0,3.647208218101923,0.0
4.632,8167.5,1.0132670839323055,0.0
4.64,8173.5,0.01698827455834362,0.0
4.648,8181.0,2.1832761342705,0.0
4.656,8189.5,6.402217959771178,0.0
4.664,8190.5,9.86749921977389,0.0
4.672,8174.0,7.254168714953266,0.0
4.68,8172.0,0.8292665116218814,0.0
4.688,8176.5,-2.5853845899662247,0.0
4.696,8176.0,-3.395625504495456,0.0
4.704,8185.0,-1.6234267323804943,0.0
4.712,8513.5,68.62230755584051,0.0
4.72,8064.5,75.143317871612,0.0
4.728,8147.5,-7.166883013457209,1.0
4.736,8185.0,-30.140166733121987,0.0
4.744,8192.5,-29.96338672229922,0.0
4.752,8201.5,-21.94507261528952,0.0
4.76,8212.5,-9.78990634886918,0.0
4.768,8228.0,4.296876143408326,0.0
4.776,8241.5,17.901042849174246,0.0
4.784,8259.5,29.66799118619474,0.0
4.792,8254.5,34.78483810048692,0.0
4.8,8232.0,26.91886822381207,0.0
4.808,8194.5,5.927678989737842,0.0
4.816,8167.0,-20.664735398761877,0.0
4.824,8157.5,-40.817558124885636,0.0
4.832,8159.5,-48.07973684277931,0.0
4.84,8165.0,-43.55286556866895,0.0
4.848,8173.5,-31.412341324723002,0.0
4.856,8177.5,-16.916213278458144,0.0
4.864,8174.0,-5.676379035008722,0.0
4.872,8175.5,1.4228448206579287,0.0
4.88,8171.0,4.792691562893651,0.0
4.888,8171.5,5.24178146218469,0.0
4.896,8171.0,4.712656547368169,0.0
4.904,8171.0,3.5830881746210252,0.0
4.912,8168.0,1.7589223681311523,0.0
4.92,8175.5,1.3327940344452145,0.0
4.928,8179.0,3.1260242005027976,0.0
4.936,8180.5,4.734099519155279,0.0
4.944,8190.5,7.316826725070996,0.0
4.952,8179.0,7.428478804834185,0.0
4.96,8168.5,1.8736464574769798,0.0
4.968,8173.5,-2.8191936871889993,0.0
4.976,8176.5,-3.5327019784722324,0.0
4.984,8162.5,-5.66637935486483,0.0
4.992,8430.5,45.823266727732516,0.0
5.0,8134.0,63.50423693299899,0.0
5.008,8110.5,-1.0435221020677545,0.0
5.016,8178.0,-30.069513844867515,0.0
5.024,8186.0,-27.251832051079873,0.0
5.032,8196.5,-17.674195028732584,0.0
5.04,8208.5,-4.733611153437323,0.0
5.048,8218.0,8.029567862921795,0.0
5.056,8238.0,20.38718794387296,0.0
5.064,8255.0,32.16365625418666,1.0
5.072,8261.0,38.95076922617227,0.0
5.08,8242.5,34.5054999758147,0.0
5.088,8208.0,15.81719030067893,0.0
5.096,8173.5,-11.729874855701837,0.0
5.104,8153.5,-37.37717121807077,0.0
5.112,8155.5,-50.555534504983825,0.0
5.12,8160.0,-49.35642570726827,0.0
5.128,8169.5,-38.30404648654053,0.0
5.136,8170.0,-23.917333825261267,0.0
5.144,8172.0,-11.272153499084425,0.0
5.152,8171.0,-1.8805223557255886,0.0
5.16,8171.5,3.8566317930792593,0.0
5.168,8168.5,6.154112336180333,0.0
5.176,8165.5,5.353997525884097,0.0
5.184,8167.0,3.7626304890106894,0.0
5.192,8167.5,2.659641101295392,0.0
5.2,8168.5,1.910553248284259,0.0
5.208,8178.5,3.425190570661698,0.0
5.216,8185.5,7.274759279535374,0.0
5.224,8185.0,9.776403851319628,0.0
5.232,8171.0,6.811292155138062,0.0
5.24,8168.5,0.6540940977320133,0.0
5.248,8172.0,-2.882130244155178,0.0
5.256,8175.0,-3.2085271680168717,0.0
5.264,8180.5,-1.1785501737067534,0.0
5.272,8526.5,72.012396732968,0.0
5.28,8072.0,82.21283329334256,0.0
5.288,8145.0,-2.159845735987801,0.0
5.296,8181.5,-29.359310648957262,0.0
5.304,8192.0,-31.391672579142096,0.0
5.312,8199.5,-24.15684514297186,0.0
5.32,8212.5,-12.027550368087986,0.0
5.328,8222.5,1.6681321269777527,0.0
5.336,8245.5,16.256754857558462,0.0
5.344,8261.5,30.387458514768014,0.0
5.352,8258.5,36.79314668930738,0.0
5.36,8239.5,30.50856665573042,0.0
5.368,8197.5,9.704067290300372,0.0
5.376,8166.0,-19.087041065071162,1.0
5.384,8152.0,-42.51592186824564,0.0
5.392,8156.0,-51.968816002664425,0.0
5.4,8163.0,-47.43284702394635,0.0
5.408,8174.0,-33.88148812942063,0.0
5.416,8176.0,-18.074492584458312,0.0
5.424,8175.5,-5.67950382456911,0.0
5.432,8174.0,2.1033502627124108,0.0
5.44,8170.5,5.365720490949116,0.0
5.448,8171.0,5.868671832123255,0.0
5.456,8170.0,5.17420609352439,0.0
5.464,8169.0,3.5704278346383944,0.0
5.472,8172.5,2.5913890738977443,0.0
5.48,8176.0,3.0496077639502346,0.0
5.488,8188.5,6.127054197657344,0.0
5.496,8185.5,8.958975039047345,0.0
5.504,8167.5,4.985164682703726,0.0
5.512,8169.0,-1.4917136199157994,0.0
5.52,8171.5,-4.2787640809197,0.0
5.528,8174.5,-4.154655456233968,0.0
5.536,8225.5,7.5808814985380195,0.0
5.544,8428.0,65.16216655059429,0.0
5.552,8069.0,57.36321100997884,0.0
5.56,8153.5,-12.026594583964652,0.0
5.568,8185.0,-27.541341902821387,0.0
5.576,8195.0,-24.062661165188274,0.0
5.584,8205.0,-14.271175170313654,0.0
5.592,8213.0,-2.6394130525541186,0.0
5.6,8229.0,9.54297784397113,0.0
5.608,8250.5,22.962076566123187,0.0
5.616,8262.0,34.15871478992881,0.0
5.624,8259.0,37.33808082967198,0.0
5.632,8233.5,27.734885398747338,0.0
5.64,8189.5,3.6517281694721078,0.0
5.648,8161.5,-25.854315755597327,0.0
5.656,8155.0,-46.43270048832437,0.0
5.664,8156.0,-52.68663236626844,0.0
5.672,8162.0,-46.96717624663529,0.0
5.68,8171.0,-33.39940866734264,0.0
5.688,8172.5,-18.166550050673777,0.0
5.696,8177.0,-5.177794215827589,0.0
5.704,8173.0,3.3908997028488557,0.0
5.712,8175.0,7.535709092059051,0.0
5.72,8171.5,8.537988849365775,0.0
5.728,8172.5,7.325523497251879,0.0
5.736,8176.5,6.519341779589922,0.0
5.744,8186.5,7.914369616386466,0.0
5.752,8187.5,9.78678399564319,0.0
5.76,8169.5,5.937220787798196,0.0
5.768,8169.0,-1.0191225477331045,0.0
5.776,8175.0,-3.854926987062754,0.0
5.784,8170.0,-4.7432638003122065,0.0
5.792,8203.5,1.273083544510655,0.0
5.8,8459.0,63.681065176308266,0.0
5.808,8070.0,63.66008144504349,0.0
5.816,8148.5,-9.439354001317042,1.0
5.824,8182.0,-28.357429807147355,0.0
5.832,8192.5,-26.2569913062639,0.0
5.84,8203.5,-16.64145791148053,0.0
5.848,8213.0,-4.243638969462154,0.0
5.856,8228.5,8.839317078746944,0.0
5.864,8250.0,22.795541412430566,0.0
5.872,8264.5,34.94798600528429,0.0
5.88,8260.5,38.98155317215151,0.0
5.888,8237.0,29.838661898072132,0.0
5.896,8194.5,6.423823324184241,0.0
5.904,8163.0,-23.515862044281903,0.0
5.912,8155.5,-45.624592505591636,0.0
5.92,8157.0,-53.00823744530294,0.0
5.928,8162.5,-47.90813264191547,0.0
5.936,8170.0,-34.97258996251139,0.0
5.944,8173.5,-19.77296484385124,0.0
5.952,8172.0,-7.37751509822192,0.0
5.96,8176.0,1.5824038761315933,0.0
5.968,8175.0,7.254276553656609,0.0
5.976,8172.5,8.793725868257752,0.0
5.984,8179.5,9.290274726203052,0.0
5.992,8192.0,12.159283670047216,0.0
6.0,8182.0,12.523271964195374,0.0
6.008,8172.0,6.753841707416996,0.0
6.016,8168.5,-0.4402130846349337,0.0
6.024,8172.0,-4.6280237288585795,0.0
6.032,8171.5,-5.790122542881818,0.0
6.04,8300.0,20.55097056582531,0.0
6.048,8268.0,52.728309438767155,0.0
6.056,8077.0,18.204616693651133,0.0
6.064,8163.5,-26.322109187849264,0.0
6.072,8185.0,-26.59990999780166,0.0
6.08,8194.0,-16.50016547070959,0.0
6.088,8206.5,-3.633105640776421,0.0
6.096,8215.5,8.919741750862158,0.0
6.104,8230.0,19.79220624135064,0.0
6.112,8254.0,31.087013469295698,0.0
6.12,8267.5,40.714866577901375,0.0
6.128,8259.5,41.359563217504274,0.0
6.136,8221.5,26.07239985928959,0.0
6.144,8181.0,-2.958901619411563,1.0
6.152,8161.5,-31.937410500097485,0.0
6.16,8154.5,-49.64713631796417,0.0
6.168,8159.5,-53.00214874460494,0.0
6.176,8168.0,-44.19248507553516,0.0
6.184,8172.0,-29.728601839302428,0.0
6.192,8180.0,-14.215868307401479,0.0
6.2,8174.5,-2.3756177781808674,0.0
6.208,8177.0,4.373956087765919,0.0
6.216,8176.5,8.111101222563093,0.0
6.224,8179.0,9.50010565832713,0.0
6.232,8191.5,11.945744804195556,0.0
6.24,8174.0,10.559471728099425,0.0
6.248,8162.0,2.1118172470410173,0.0
6.256,8170.5,-3.919340992727257,0.0
6.264,8168.5,-5.56398431847515,0.0
6.272,8171.5,-5.488757148649029,0.0
6.28,8336.0,29.608280515986962,0.0
6.288,8188.5,49.34875993623109,0.0
6.296,8082.0,1.6489830558966787,0.0
6.304,8170.0,-30.590156897809948,0.0
6.312,8187.0,-23.566915709675186,0.0
6.32,8197.0,-10.324237600409788,0.0
6.328,8208.0,3.363053993899939,0.0
6.336,8217.5,15.135983894865376,0.0
6.344,8232.5,24.809051609172002,0.0
6.352,8256.0,34.63392458705425,0.0
6.36,8262.5,41.32245122993709,0.0
6.368,8257.0,39.21736432927855,0.0
6.376,8209.5,21.19866038538521,0.0
6.384,8172.5,-9.934958206977626,0.0
6.392,8159.0,-37.158263611586335,0.0
6.4,8156.5,-50.8932633762829,0.0
6.408,8156.0,-51.91300262144773,0.0
6.416,8161.5,-43.623946657314264,0.0
6.424,8170.0,-29.247695857985946,0.0
6.432,8174.5,-13.655398203626874,0.0
6.44,8177.0,-0.9337137574282224,0.0
6.448,8173.5,6.527130653467793,0.0
6.456,8173.0,9.132668391049492,0.0
6.464,8176.5,9.901861261187378,0.0
6.472,8189.0,12.124334801762188,0.0
6.48,8177.5,11.804810548794649,0.0
6.488,8161.5,4.207823147153022,0.0
6.496,8167.0,-3.0681369889637153,0.0
6.504,8166.0,-5.986608326764781,0.0
6.512,8165.0,-7.21354862804651,0.0
6.52,8289.0,18.28350140637326,0.0
6.528,8253.5,48.671043090850844,0.0
6.536,8077.5,16.05345618676415,0.0
6.544,8164.5,-23.85319774209802,0.0
6.552,8182.5,-22.385914205716745,0.0
6.56,8191.0,-12.710224472211621,0.0
6.568,8203.0,-0.8728505622434568,0.0
6.576,8213.0,10.754705435519782,0.0
6.584,8227.0,20.903902379719966,0.0
6.592,8255.0,32.317477001769475,0.0
6.6,8265.5,42.03331698048396,0.0
6.608,8256.0,41.610802557339184,0.0
6.616,8210.0,23.71354365575189,0.0
6.624,8170.0,-8.035989763397765,1.0
6.632,8153.0,-37.23940756958973,0.0
6.64,8151.0,-52.74604263525521,0.0
6.648,8153.0,-53.91971839890516,0.0
6.656,8154.5,-45.72390967639831,0.0
6.664,8165.5,-31.390877197942928,0.0
6.672,8169.5,-15.090605550579994,0.0
6.68,8168.5,-2.5498353750583647,0.0
6.688,8171.0,5.559791808244654,0.0
6.696,8171.5,10.125784364838864,0.0
6.704,8169.0,10.882314757589256,0.0
6.712,8176.0,10.5991919276496,0.0
6.72,8183.5,11.787152901637455,0.0
6.728,8180.0,11.51984285116555,0.0
6.736,8164.5,5.733496315920547,0.0
6.744,8162.5,-2.133069627560417,0.0
6.752,8167.0,-5.95119316379396,0.0
6.76,8168.0,-6.1832994665378465,0.0
6.768,8154.0,-8.039016283704768,0.0
6.776,8437.5,47.14139775579247,0.0
6.784,8090.5,59.654708973281686,0.0
6.792,8123.5,-6.139756245461285,0.0
6.8,8174.0,-27.06051616071136,0.0
6.808,8184.0,-22.9701255564421,0.0
6.816,8192.5,-13.288967885353713,0.0
6.824,8197.5,-2.790721683601305,0.0
6.832,8213.5,8.131347470445235,0.0
6.84,8229.5,19.895459284976823,0.0
6.848,8257.0,32.72343501173373,0.0
6.856,8265.0,42.60129897306456,0.0
6.864,8241.0,38.71537847878699,0.0
6.872,8197.5,16.75723751126702,0.0
6.88,8159.0,-15.522033449633682,0.0
6.888,8151.0,-41.758605925399024,0.0
6.896,8145.0,-53.8039856193202,0.0
6.904,8149.0,-53.17888566716397,0.0
6.912,8152.5,-43.21439964112119,0.0
6.92,8162.0,-28.113695251326362,0.0
6.928,8168.0,-11.75413275426331,0.0
6.936,8164.5,0.21370286198907706,0.0
6.944,8167.5,7.156910826797002,0.0
6.952,8165.5,10.382341237170067,0.0
6.96,8166.0,10.409318748739679,0.0
6.968,8164.0,8.540646379745567,0.0
6.976,8167.5,6.447105057417957,0.0
6.984,8182.5,8.011096195433538,0.0
6.992,8183.0,10.888124010736874,0.0
7.0,8171.5,8.691516332641186,0.0
7.008,8165.5,2.4994452817920774,0.0
7.016,8164.5,-2.9715865063822093,0.0
7.024,8171.0,-4.632963563305566,0.0
7.032,8154.5,-6.95609549757296,0.0
7.04,8430.0,45.63854778369614,0.0
7.048,8134.0,65.63542367720106,0.0
7.056,8116.5,3.4621297402829896,1.0
7.064,8175.5,-25.353469320402155,0.0
7.072,8186.0,-24.352174602675177,0.0
7.08,8193.0,-16.49266902211707,0.0
7.088,8208.0,-4.849468949845686,0.0
7.096,8221.0,8.491960191684484,0.0
7.104,8242.0,22.04080601783403,0.0
7.112,8266.0,35.90546184595769,0.0
7.12,8279.0,46.220435119583044,0.0
7.128,8261.0,44.29162566109676,0.0
7.136,8206.5,21.623987920233276,0.0
7.144,8166.0,-14.468645785200579,0.0
7.152,8151.0,-44.95884812363306,0.0
7.16,8146.0,-60.26042796037973,0.0
7.168,8152.5,-59.86711365212591,0.0
7.176,8150.5,-49.63859343983427,0.0
7.184,8165.0,-33.50990647205276,0.0
7.192,8166.5,-15.62211704586116,0.0
7.2,8170.5,-1.551155996006628,0.0
7.208,8166.5,7.005560729504396,0.0
7.216,8168.0,10.49311113708086,0.0
7.224,8170.0,11.679816080071078,0.0
7.232,8167.5,10.508683034682917,0.0
7.24,8170.0,8.222836495367801,0.0
7.248,8169.0,5.930762786197647,0.0
7.256,8170.0,3.676060531328858,0.0
7.264,8179.0,3.82830741107864,0.0
7.272,8184.0,6.198140914133546,0.0
7.28,8185.0,7.885750164568208,0.0
7.288,8168.0,4.419413500098472,0.0
7.296,8169.0,-1.5694207285066568,0.0
7.304,8170.0,-4.464663062452928,0.0
7.312,8173.5,-4.580655277506821,0.0
7.32,8171.5,-3.648320238108454,0.0
7.328,8542.0,72.74104333273385,0.0
7.336,8079.0,87.99135999910573,0.0
7.344,8146.5,2.8688673437522993,0.0
7.352,8181.0,-27.068704552918234,0.0
7.36,8189.0,-31.98701506983457,0.0
7.368,8199.0,-26.368671921383793,0.0
7.376,8208.5,-15.06432506677811,0.0
7.384,8223.0,-1.191803698648755,0.0
7.392,8245.0,14.650054163313143,0.0
7.4,8269.5,31.297769983283388,1.0
7.408,8274.0,42.3228142266737,0.0
7.416,8256.5,39.77045830750444,0.0
7.424,8200.5,17.21521772974802,0.0
7.432,8163.5,-17.733921230448914,0.0
7.44,8151.0,-45.827003416826074,0.0
7.448,8146.0,-59.06855569709546,0.0
7.456,8150.0,-58.14839845219899,0.0
7.464,8158.0,-46.336625524593956,0.0
7.472,8162.0,-29.874373233913502,0.0
7.48,8163.0,-14.587812643794905,0.0
7.488,8163.5,-3.029230092143962,0.0
7.496,8168.0,5.287267732319606,0.0
7.504,8166.5,10.016921111689499,0.0
7.512,8166.0,10.886745199359893,0.0
7.52,8166.0,9.648448245051213,0.0
7.528,8166.0,7.453302828592541,0.0
7.536,8164.5,4.718637528101226,0.0
7.544,8171.0,3.407463953697061,0.0
7.552,8170.0,3.2390808417617336,0.0
7.56,8188.0,6.121530472053337,0.0
7.568,8174.5,7.817463865874743,0.0
7.576,8166.0,3.1405981491764123,0.0
7.584,8167.0,-1.6337004570250429,0.0
7.592,8170.5,-3.2901707998476013,0.0
7.6,8169.5,-3.2602238402889725,0.0
7.608,8272.5,18.09045923699864,0.0
7.616,8372.5,69.44755819255624,0.0
7.624,8074.0,48.73727867963544,0.0
7.632,8166.5,-12.9858630041158,0.0
7.64,8184.0,-25.046926456360097,0.0
7.648,8191.5,-23.274889199157997,0.0
7.656,8202.5,-14.91859610998199,0.0
7.664,8212.0,-3.526695993573412,0.0
7.672,8232.5,9.874168423468973,0.0
7.68,8260.0,26.108816630980982,0.0
7.688,8275.5,40.53649148542445,0.0
7.696,8269.0,44.7618914470429,0.0
7.704,8232.0,31.587269072185563,0.0
7.712,8179.5,0.7218925137237875,0.0
7.72,8153.0,-33.78105284391404,1.0
7.728,8148.5,-55.39775705530951,0.0
7.736,8150.0,-60.39578890606481,0.0
7.744,8155.0,-52.866946866734,0.0
7.752,8164.0,-37.53893739800333,0.0
7.76,8169.0,-19.922420328425915,0.0
7.768,8166.5,-5.972815039808211,0.0
7.776,8169.0,3.182507790543241,0.0
7.784,8164.5,7.7058432246547,0.0
7.792,8167.5,8.906188318202567,0.0
7.8,8166.0,8.57223839110452,0.0
7.808,8167.5,7.075088432502298,0.0
7.816,8167.5,5.4234607346625126,0.0
7.824,8171.5,4.441633471194109,0.0
7.832,8178.5,5.4348874525937845,0.0
7.84,8189.0,8.77356755661458,0.0
7.848,8177.0,9.111429829391227,0.0
7.856,8172.0,4.456726698765124,0.0
7.864,8171.5,-0.0954039649736842,0.0
7.872,8172.0,-2.773062167675789,0.0
7.88,8164.5,-5.366301628085921,0.0
7.888,8365.5,33.445865000152935,0.0
7.896,8208.5,60.31776471619514,0.0
7.904,8088.0,10.371398073893715,0.0
7.912,8172.5,-28.094056858074737,0.0
7.92,8189.0,-25.948689609249413,0.0
7.928,8199.0,-15.331823481799347,0.0
7.936,8207.5,-2.948975698853019,0.0
7.944,8219.0,8.90733607571542,0.0
7.952,8237.0,20.59555634316166,0.0
7.96,8265.0,33.78325901724111,0.0
7.968,8276.0,44.428235958385585,0.0
7.976,8268.0,44.600715266237785,0.0
7.984,8218.0,26.091276557485116,0.0
7.992,8171.5,-8.525950018941103,0.0
8.0,8155.0,-40.57683801849521,0.0
8.008,8152.0,-57.36361882500364,0.0
8.016,8153.5,-58.900742851992845,0.0
8.024,8159.0,-49.44964184772266,0.0
8.032,8168.5,-33.29861454880961,0.0
8.04,8171.5,-16.14470032220993,0.0
8.048,8172.5,-2.734973298986006,0.0
8.056,8169.0,5.099419328822023,0.0
8.064,8171.0,8.653082815571224,0.0
8.072,8168.0,9.238503227502179,0.0
8.08,8171.0,8.184053758291157,0.0
8.088,8179.5,8.66911441001298,0.0
8.096,8188.5,11.216902834818029,0.0
8.104,8179.5,11.02304584080639,0.0
8.112,8165.5,4.538256315556282,0.0
8.12,8168.5,-2.2321998107713625,0.0
8.128,8171.0,-4.774154029431884,0.0
8.136,8170.0,-5.24719222477529,0.0
8.144,8209.5,3.134171778271593,0.0
8.152,8445.5,63.90059629118059,0.0
8.16,8068.0,61.241108283431004,0.0
8.168,8150.5,-9.885326581966638,1.0
8.176,8183.5,-26.85390550460329,0.0
8.184,8195.0,-23.726339379863475,0.0
8.192,8203.5,-14.193492340626335,0.0
8.2,8217.5,-1.8071127993948721,0.0
8.208,8231.5,11.512574352098227,0.0
8.216,8254.5,25.20350371363179,0.0
8.224,8273.0,37.957632323795224,0.0
8.232,8272.5,43.422992702652664,0.0
8.24,8240.5,33.431982794957094,0.0
8.248,8187.5,5.089062736021788,0.0
8.256,8161.5,-28.58422055979031,0.0
8.264,8152.0,-51.417518819891484,0.0
8.272,8155.5,-58.35139595539431,0.0
8.28,8156.5,-52.685965376884496,0.0
8.288,8166.0,-39.202466189184406,0.0
8.296,8172.0,-22.118127622339216,0.0
8.304,8171.5,-7.537454207260225,0.0
8.312,8174.5,2.7390510994121087,0.0
8.32,8171.5,8.401286918942333,0.0
8.328,8177.0,10.986941647332287,0.0
8.336,8178.0,12.17829891114934,0.0
8.344,8193.0,14.305304960563262,0.0
8.352,8171.5,12.066404389364834,0.0
8.36,8166.0,3.3967906956106617,0.0
8.368,8171.5,-2.2453981135238337,0.0
8.376,8170.5,-4.322396706675363,0.0
8.384,8167.5,-5.712607187705089,0.0
8.392,8338.0,28.55171137426464,0.0
8.4,8191.5,49.39001621318425,0.0
8.408,8080.0,1.5160332398245373,0.0
8.416,8170.0,-31.418877621615593,0.0
8.424,8186.5,-24.37501912130506,0.0
8.432,8194.5,-11.508382012729953,0.0
8.44,8206.5,1.9317489993356958,0.0
8.448,8217.5,14.286263331725877,0.0
8.456,8236.5,25.555761320652664,0.0
8.464,8257.5,36.518001761492314,0.0
8.472,8269.5,44.20641978150775,0.0
8.48,8258.0,42.15327290745404,0.0
8.488,8215.0,23.4137165788502,0.0
8.496,8173.5,-8.482041589715891,1.0
8.504,8154.5,-38.419362634867184,0.0
8.512,8153.5,-54.38543257497781,0.0
8.52,8154.5,-55.5822665005951,0.0
8.528,8159.5,-46.63733950009032,0.0
8.536,8169.5,-31.212040903358456,0.0
8.544,8172.0,-14.803670628255759,0.0
8.552,8172.5,-2.2424738235529276,0.0
8.56,8172.5,5.628333171130407,0.0
8.568,8176.5,10.246997006554693,0.0
8.576,8183.5,13.672210555460879,0.0
8.584,8182.0,14.748662235365373,0.0
8.592,8164.5,9.267487042214952,0.0
8.6,8165.0,1.1477546320265901,0.0
8.608,8160.5,-4.645458176069496,0.0
8.616,8167.0,-6.958646739456071,0.0
8.624,8175.0,-4.309287708072134,0.0
8.632,8443.0,54.297905243326795,0.0
8.64,8059.0,57.02700357741605,0.0
8.648,8127.5,-14.46188909270154,0.0
8.656,8176.0,-30.644512831096336,0.0
8.664,8187.0,-23.41292092859453,0.0
8.672,8200.5,-10.581124037575137,0.0
8.68,8208.0,2.902120097668785,0.0
8.688,8221.5,14.7264100991747,0.0
8.696,8243.0,26.637106969240904,0.0
8.704,8260.5,37.610305783046215,0.0
8.712,8267.0,43.30089096541769,0.0
8.72,8243.5,36.62825347645821,0.0
8.728,8193.0,12.010530100189044,0.0
8.736,8160.0,-21.428407877960353,0.0
8.744,8156.0,-45.51447160598741,0.0
8.752,8153.5,-54.186354220141766,0.0
8.76,8158.0,-50.690998766197936,0.0
8.768,8166.0,-38.38473726669099,0.0
8.776,8169.5,-22.93779578174008,0.0
8.784,8173.0,-8.894753697134092,0.0
8.792,8173.0,1.4738807748472027,0.0
8.8,8175.5,7.893168446214304,0.0
8.808,8177.5,11.412180798332884,0.0
8.816,8191.0,14.929760366201435,0.0
8.824,8182.5,15.768027350533202,0.0
8.832,8167.0,8.969938216084302,0.0
8.84,8167.0,0.42294822267854215,0.0
8.848,8164.0,-5.308753984565783,0.0
8.856,8168.0,-7.689302630554039,0.0
8.864,8210.0,1.4664717818541249,0.0
8.872,8403.5,54.77169136626253,0.0
8.88,8048.5,44.99769231772939,1.0
8.888,8155.0,-18.37357072913437,0.0
8.896,8182.5,-25.689270570453345,0.0
8.904,8192.5,-18.459685843618217,0.0
8.912,8198.5,-8.116601903785067,0.0
8.92,8211.0,3.0104187888700835,0.0
8.928,8226.0,14.752778128965247,0.0
8.936,8246.5,26.71317404854358,0.0
8.944,8263.5,37.3977808947684,0.0
8.952,8265.5,41.928410423378864,0.0
8.96,8228.5,31.100446485892235,0.0
8.968,8180.0,2.5138912060690473,0.0
8.976,8155.5,-29.68724621201204,0.0
8.984,8152.0,-49.95043193634251,0.0
8.992,8152.0,-55.07602438279355,0.0
9.0,8158.5,-48.42916056288004,0.0
9.008,8161.0,-35.31707646553468,0.0
9.016,8165.5,-20.778020120555993,0.0
9.024,8168.5,-7.497196881926357,0.0
9.032,8169.0,2.208776511930864,0.0
9.04,8169.5,7.8182974096450835,0.0
9.048,8177.5,11.68696965689037,0.0
9.056,8180.5,14.450322566516206,0.0
9.064,8183.5,15.119530402345163,0.0
9.072,8165.0,10.056336764595926,0.0
9.08,8163.5,1.4512965552082733,0.0
9.088,8163.5,-4.164194962907914,0.0
9.096,8164.0,-6.751695868534398,0.0
9.104,8154.5,-9.097010269946622,0.0
9.112,8369.0,32.77685777432839,0.0
9.12,8105.0,42.45874498026001,0.0
9.128,8114.5,-10.247209571745088,0.0
9.136,8171.0,-26.379971875191814,0.0
9.144,8181.5,-18.23319056531568,0.0
9.152,8191.5,-6.462663726633082,0.0
9.16,8199.0,5.053486968949073,0.0
9.168,8211.5,15.183967717605356,0.0
9.176,8227.0,24.59347168212662,0.0
9.184,8248.5,33.9887067179784,0.0
9.192,8262.5,41.64462336866018,0.0
9.2,8243.5,38.83699927899238,0.0
9.208,8195.5,17.600272290769908,0.0
9.216,8158.0,-15.095222540458735,1.0
9.224,8146.0,-42.255561171531554,0.0
9.232,8146.0,-54.363308717068776,0.0
9.24,8152.5,-51.9537360194131,0.0
9.248,8157.0,-40.40461001613244,0.0
9.256,8163.0,-25.303501489409427,0.0
9.264,8166.0,-10.697713888734825,0.0
9.272,8167.0,0.37922781209363166,0.0
9.28,8167.0,7.076918284293924,0.0
9.288,8166.0,9.760676219331572,0.0
9.296,8169.5,10.37876457370021,0.0
9.304,8171.5,10.294412326315523,0.0
9.312,8184.5,11.748284492303128,0.0
9.32,8180.5,12.665630913536916,0.0
9.328,8166.0,7.508323680250669,0.0
9.336,8161.5,-0.5617654710940769,0.0
9.344,8163.5,-5.759984675395799,0.0
9.352,8166.5,-6.939417156924264,0.0
9.36,8164.0,-6.482683619731915,0.0
9.368,8503.5,63.619656985307074,0.0
9.376,8049.0,71.93797992203395,0.0
9.384,8143.5,-7.597521228978621,0.0
9.392,8180.0,-26.71940360864187,0.0
9.4,8186.5,-25.192140909917725,0.0
9.408,8194.5,-17.50713239871311,0.0
9.416,8203.5,-6.834829105000608,0.0
9.424,8221.5,6.029116491674813,0.0
9.432,8241.5,20.486178808806244,0.0
9.44,8265.0,34.81720097084735,0.0
9.448,8261.5,42.099861706318734,0.0
9.456,8232.0,33.28205209795601,0.0
9.464,8182.0,6.779346558927273,0.0
9.472,8153.0,-26.061903882361094,0.0
9.48,8143.0,-49.50060514943016,0.0
9.488,8150.5,-56.368090478813656,0.0
9.496,8150.5,-50.35118594285791,0.0
9.504,8158.0,-37.626708229767246,0.0
9.512,8166.0,-21.2301572177455,0.0
9.52,8167.0,-6.47581413812145,0.0
9.528,8170.5,4.151043604931374,0.0
9.536,8166.5,9.704252135345087,0.0
9.544,8168.5,11.108529689022816,0.0
9.552,8166.0,10.15268248695088,0.0
9.56,8174.5,9.27393447133295,0.0
9.568,8185.0,11.229922074826845,0.0
9.576,8177.0,11.194853241027886,0.0
9.584,8164.5,5.288674802902506,0.0
9.592,8164.5,-1.5598152170737194,0.0
9.6,8166.0,-5.067063289869566,0.0
9.608,8166.0,-6.066566177936238,0.0
9.616,8181.0,-2.6733951345352125,0.0
9.624,8518.0,71.65252903798137,0.0
9.632,8055.5,79.10563545939408,0.0
9.64,8148.5,-3.9691123259160577,1.0
9.648,8178.0,-27.470765954378066,0.0
9.656,8185.0,-29.747732709354068,0.0
9.664,8196.5,-22.80465443961748,0.0
9.672,8211.5,-9.827102766156486,0.0
9.68,8224.0,4.9559773402677365,0.0
9.688,8248.0,20.404261968249102,0.0
9.696,8263.0,34.41455722137766,0.0
9.704,8262.0,40.342781190880714,0.0
9.712,8230.0,30.990354057840477,0.0
9.72,8180.0,4.008173008212907,0.0
9.728,8155.5,-27.777142130471248,0.0
9.736,8145.0,-49.514111339014335,0.0
9.744,8147.0,-56.5989523825026,0.0
9.752,8154.0,-50.36913903151412,0.0
9.76,8163.0,-35.77946848951342,0.0
9.768,8171.5,-18.151307213296604,0.0
9.776,8164.0,-4.769788450057149,0.0
9.784,8168.5,3.2542734419357657,0.0
9.792,8167.5,8.221357035916071,0.0
9.8,8163.0,8.788772783806053,0.0
9.808,8164.5,7.17895735670777,0.0
9.816,8169.5,6.466455853117623,0.0
9.824,8173.5,6.903400023264567,0.0
9.832,8188.0,9.894736407082746,0.0
9.84,8168.5,9.14214485989578,0.0
9.848,8163.5,2.3056361944454693,0.0
9.856,8166.0,-2.597777481970752,0.0
9.864,8168.0,-4.1844408080214635,0.0
9.872,8162.5,-5.203433150899173,0.0
9.88,8339.5,30.020429709182963,0.0
9.888,8233.0,60.70352075851383,0.0
9.896,8085.0,17.651520177217208,0.0
9.904,8165.5,-24.275846439367342,0.0
9.912,8185.5,-24.85888423328015,0.0
9.92,8193.0,-15.816518884239485,0.0
9.928,8203.5,-4.393493133973379,0.0
9.936,8217.5,8.033541075667472,0.0
9.944,8237.5,21.111116995494967,0.0
9.952,8264.0,35.144467643750886,0.0
9.96,8266.5,44.04017586491818,0.0
9.968,8255.5,40.887515546794475,0.0
9.976,8205.5,20.36165717828203,0.0
9.984,8169.5,-12.434240078214316,1.0
9.992,8155.0,-40.261693712475335,0.0
10.0,8149.0,-54.80282281899554,0.0
10.008,8158.0,-54.48076532423761,0.0
10.016,8163.0,-43.17016242724026,0.0
10.024,8172.0,-27.075772798648813,0.0
10.032,8169.0,-12.2267656153183,0.0
10.04,8166.5,-2.7150197952623785,0.0
10.048,8166.0,2.7089375763703174,0.0
10.056,8163.0,4.790897227517689,0.0
10.064,8168.0,5.704409812574568,0.0
10.072,8170.0,6.809909560034384,0.0
10.08,8173.5,7.554892151928698,0.0
10.088,8187.5,10.42532722966098,0.0
10.096,8176.0,11.05304720010804,0.0
10.104,8163.0,4.743137140545969,0.0
10.112,8169.5,-1.0356042001026253,0.0
10.12,8166.5,-3.5810795966146998,0.0
10.128,8164.5,-5.5650397351216725,0.0
10.136,8195.0,-0.07205128708483244,0.0
10.144,8503.0,72.34324587655738,0.0
10.152,8065.5,77.74448651199668,0.0
10.16,8150.0,-2.966401468768254,0.0
10.168,8180.5,-26.75435128954814,0.0
10.176,8187.0,-29.207099647891027,0.0
10.184,8197.0,-22.85854633065742,0.0
10.192,8211.5,-10.633026735780277,0.0
10.2,8225.5,4.031791249966545,0.0
10.208,8252.0,20.367456671841637,0.0
10.216,8269.5,35.929631702409324,0.0
10.224,8262.5,41.83087875434558,0.0
10.232,8229.5,30.806778591289685,0.0
10.24,8184.5,3.6810083723896696,0.0
10.248,8156.5,-27.83317190736102,0.0
10.256,8149.0,-49.503448043951494,0.0
10.264,8151.0,-55.9375611231319,0.0
10.272,8164.5,-48.0952276905241,0.0
10.28,8168.5,-32.590215993547645,0.0
10.288,8170.5,-17.25371126940354,0.0
10.296,8170.5,-5.159259728575989,0.0
10.304,8167.0,2.060530760728625,0.0
10.312,8167.0,5.302849283758633,0.0
10.32,8166.5,6.3142261573898395,0.0
10.328,8166.0,5.750740733546991,0.0
10.336,8174.0,6.0778723911882935,0.0
10.344,8185.5,9.333726393562984,0.0
10.352,8186.0,12.295739882926227,0.0
10.36,8166.5,8.301574816981656,0.0
10.368,8165.0,0.3904981417997533,0.0
10.376,8167.0,-4.245153277078089,0.0
10.384,8173.0,-4.708647945110442,0.0
10.392,8163.0,-5.086074617995791,0.0
10.4,8475.5,57.262824166142764,0.0
10.408,8117.0,76.05630215711835,0.0
10.416,8118.5,2.7043066474032003,1.0
10.424,8175.0,-29.23649956744225,0.0
10.432,8185.0,-30.10763646267833,0.0
10.44,8194.0,-22.17643666227559,0.0
10.448,8204.0,-10.24201295704438,0.0
10.456,8222.0,4.0892186831395065,0.0
10.464,8246.0,20.525346249937456,0.0
10.472,8266.5,36.225146915856385,0.0
10.48,8271.5,45.227494311689725,0.0
10.488,8247.0,39.71057966734452,0.0
10.496,8197.0,15.206881431216061,0.0
10.504,8166.5,-18.036324383961983,0.0
10.512,8152.0,-44.155318923946425,0.0
10.52,8152.5,-55.767793240371475,0.0
10.528,8158.5,-52.852380340000536,0.0
10.536,8164.5,-40.66355536433821,0.0
10.544,8173.0,-24.327667451513435,0.0
10.552,8172.0,-9.446032552381212,0.0
10.56,8171.0,0.3784701754150319,0.0
10.568,8168.0,5.314081048897378,0.0
10.576,8169.5,7.120864534554357,0.0
10.584,8170.5,7.620538255695237,0.0
10.592,8176.0,8.088636280194578,0.0
10.6,8189.0,10.918701195663061,0.0
10.608,8187.5,13.286452420632031,0.0
10.616,8168.5,8.484186680211451,0.0
10.624,8167.5,0.27181530876009674,0.0
10.632,8168.0,-4.728328402719171,0.0
10.64,8174.0,-5.640579395952727,0.0
10.648,8163.0,-6.346408836067894,0.0
10.656,8457.0,52.0154885628599,0.0
10.664,8124.5,70.77887470408268,0.0
10.672,8111.0,0.4565122851831802,0.0
10.68,8176.0,-30.6797371152702,0.0
10.688,8191.5,-27.996037049199458,0.0
10.696,8200.0,-17.261151804172414,0.0
10.704,8211.0,-4.311697938912403,0.0
10.712,8225.0,9.107812636577137,0.0
10.72,8245.5,22.71161560635278,0.0
10.728,8273.0,37.11997282001357,1.0
10.736,8273.5,45.73364857888373,0.0
10.744,8256.0,40.420887268669276,0.0
10.752,8204.0,16.951738082823113,0.0
10.76,8166.0,-17.885035824178885,0.0
10.768,8153.5,-46.093055571555624,0.0
10.776,8152.0,-58.64719220386655,0.0
10.784,8156.0,-56.66932927211565,0.0
10.792,8163.5,-44.55842570304162,0.0
10.8,8171.0,-27.575961653121567,0.0
10.808,8172.5,-11.513011713893547,0.0
10.816,8173.5,0.24285092886520943,0.0
10.824,8170.5,6.749827999170748,0.0
10.832,8173.0,9.472539502913833,0.0
10.84,8179.5,11.485305218770463,0.0
10.848,8188.0,13.998856071742239,0.0
10.856,8183.0,14.078026971818645,0.0
10.864,8166.0,7.495835318473155,0.0
10.872,8168.5,-0.495681037426948,0.0
10.88,8173.0,-3.7165937693553133,0.0
10.888,8171.5,-4.445054291974202,0.0
10.896,8186.5,-1.4438808183201672,0.0
10.904,8509.5,69.60359621461612,0.0
10.912,8072.5,77.77793628252721,0.0
10.92,8137.0,-5.281882719498071,0.0
10.928,8181.5,-31.33373713127503,0.0
10.936,8193.5,-30.447199912346377,0.0
10.944,8201.0,-21.322882299381718,0.0
10.952,8216.0,-8.09720671804439,0.0
10.96,8230.5,6.978942447368354,0.0
10.968,8256.5,23.11104554263443,0.0
10.976,8276.5,38.54547534075277,0.0
10.984,8274.0,45.40468707131163,0.0
10.992,8244.5,36.039700710095985,0.0
11.0,8191.5,8.182401189176971,0.0
11.008,8159.5,-26.89847848848035,0.0
11.016,8149.0,-52.249911093962055,0.0
11.024,8152.0,-60.85325947250794,0.0
11.032,8156.5,-55.182936922071804,0.0
11.04,8165.0,-40.807222210304644,0.0
11.048,8173.0,-22.74762807463867,0.0
11.056,8175.5,-6.473246303605038,0.0
11.064,8173.5,4.234967204387431,0.0
11.072,8173.5,9.517114355345484,0.0
11.08,8178.0,12.117414310360346,0.0
11.088,8188.5,14.88259674439405,0.0
11.096,8184.5,15.589499102389027,0.0
11.104,8166.0,9.047239370614534,0.0
11.112,8169.0,0.6398266967410109,0.0
11.12,8171.0,-3.407804456023541,0.0
11.128,8171.5,-4.774151406633791,0.0
11.136,8167.5,-5.573441920907953,0.0
11.144,8461.0,53.94394720276273,0.0
11.152,8095.5,66.2542345386787,0.0
11.16,8113.5,-7.504942256009372,1.0
11.168,8179.0,-32.92904115351189,0.0
11.176,8189.0,-27.547667776756953,0.0
11.184,8198.5,-16.204714766544612,0.0
11.192,8210.0,-2.749367715494145,0.0
11.2,8222.0,10.42600831681466,0.0
11.208,8246.0,23.99202773227421,0.0
11.216,8270.0,38.1839142226047,0.0
11.224,8275.5,46.814714714186266,0.0
11.232,8250.0,40.73527608331892,0.0
11.24,8194.0,14.313440247199651,0.0
11.248,8163.5,-21.154497698966907,0.0
11.256,8151.5,-47.60569121294702,0.0
11.264,8151.5,-58.48290864094429,0.0
11.272,8155.5,-55.23177454713732,0.0
11.28,8159.0,-43.403014073583336,0.0
11.288,8167.0,-27.47763591115813,0.0
11.296,8173.0,-11.033248044647735,0.0
11.304,8175.0,1.9991130579840046,0.0
11.312,8177.0,10.220544090058866,0.0
11.32,8179.5,14.452483435965632,0.0
11.328,8193.0,18.03289149878674,0.0
11.336,8180.0,17.518490134682224,0.0
11.344,8168.0,9.450743525062308,0.0
11.352,8169.0,0.9993381433362174,0.0
11.36,8168.5,-4.048170112464504,0.0
11.368,8170.0,-6.215206977808066,0.0
11.376,8211.0,2.128294764223938,0.0
11.384,8444.0,62.71837919010909,0.0
11.392,8063.5,58.90803706659517,0.0
11.4,8151.0,-12.136688242153468,0.0
11.408,8181.5,-28.204859205375215,0.0
11.416,8191.0,-25.259326480220352,0.0
11.424,8203.5,-15.193113105812472,0.0
11.432,8213.5,-2.339747286271404,0.0
11.44,8233.5,11.745470104087417,0.0
11.448,8253.5,26.46672551475308,0.0
11.456,8274.0,39.434367092024104,0.0
11.464,8274.5,45.415010739071704,0.0
11.472,8231.5,33.38371681663489,0.0
11.48,8184.5,2.819989725513551,0.0
11.488,8158.5,-30.596851990775576,1.0
11.496,8155.0,-51.74754749673912,0.0
11.504,8154.5,-57.22769824588954,0.0
11.512,8157.0,-51.38365417615091,0.0
11.52,8164.5,-38.094119426175666,0.0
11.528,8167.0,-22.416184093294305,0.0
11.536,8176.0,-7.396261407284783,0.0
11.544,8172.0,3.6293607597781374,0.0
11.552,8178.0,10.008243250892974,0.0
11.56,8185.5,15.021397159109256,0.0
11.568,8186.0,17.343153596181764,0.0
11.576,8173.5,13.635199839206734,0.0
11.584,8168.5,5.799800436689566,0.0
11.592,8169.0,-0.6327137658502124,0.0
11.6,8169.0,-4.238814773313607,0.0
11.608,8164.5,-6.648156321093211,0.0
11.616,8323.0,24.39722897143656,0.0
11.624,8213.0,48.96710074648604,0.0
11.632,8077.0,5.815689175515672,0.0
11.64,8169.5,-29.472797469509715,0.0
11.648,8186.5,-23.502986056166037,0.0
11.656,8194.0,-11.403749129841572,0.0
11.664,8201.5,0.5451749779988404,0.0
11.672,8216.5,12.125862581506908,0.0
11.68,8238.5,24.69536874276878,0.0
11.688,8260.0,37.27193042901081,0.0
11.696,8278.0,47.12870624516654,0.0
11.704,8262.0,46.22132071242754,0.0
11.712,8210.0,24.78454055979887,0.0
11.72,8169.0,-10.650741434197016,0.0
11.728,8157.5,-40.718123945433945,0.0
11.736,8154.5,-55.288938140470236,0.0
11.744,8158.5,-55.319337186138455,0.0
11.752,8155.5,-46.745949829668916,0.0
11.76,8164.5,-33.36261997665815,0.0
11.768,8172.5,-16.916459769038283,0.0
11.776,8171.5,-3.195386991354553,0.0
11.784,8170.0,4.892939152598956,0.0
11.792,8182.0,11.079693225663505,0.0
11.8,8188.0,16.736131950534173,0.0
11.808,8185.0,18.15684781195114,0.0
11.816,8168.5,12.260398314209851,0.0
11.824,8165.5,2.93056062857886,0.0
11.832,8170.5,-2.6227959310099322,0.0
11.84,8170.0,-4.590041314494101,0.0
11.848,8167.0,-5.772615434434783,0.0
11.856,8366.5,34.548320792390996,0.0
11.864,8141.0,47.84430134975128,0.0
11.872,8094.5,-7.116062691547995,0.0
11.88,8176.5,-31.287973016942715,0.0
11.888,8185.0,-22.350350318303754,0.0
11.896,8197.5,-9.385760758605556,0.0
11.904,8207.0,4.1990863837447705,0.0
11.912,8218.0,15.784678426326082,0.0
11.92,8236.0,26.1679588015636,0.0
11.928,8262.5,37.43262895187536,0.0
11.936,8269.0,45.16123512564832,0.0
11.944,8254.0,41.14838676446243,0.0
11.952,8200.0,18.439856855202606,0.0
11.96,8164.5,-16.070554024294324,1.0
11.968,8151.5,-43.95205842469409,0.0
11.976,8151.5,-56.43339403345999,0.0
11.984,8153.5,-54.850265041692865,0.0
11.992,8160.0,-43.86150055547296,0.0
12.0,8163.5,-28.669833909202907,0.0
12.008,8166.0,-14.113017129572427,0.0
12.016,8164.5,-3.1601388807300737,0.0
12.024,8170.5,4.715843322994942,0.0
12.032,8171.0,9.9866640607911,0.0
12.04,8175.5,12.611226728222391,0.0
12.048,8175.0,13.068581231827693,0.0
12.056,8184.0,13.094265768440664,0.0
12.064,8174.5,11.02205990060611,0.0
12.072,8165.0,4.243770725397098,0.0
12.08,8167.0,-1.940560233581209,0.0
12.088,8165.0,-5.303751530470663,0.0
12.096,8163.5,-7.2036788692414575,0.0
12.104,8207.5,1.4476550125900758,0.0
12.112,8432.5,61.301479757218885,0.0
12.12,8057.0,56.65763107746625,0.0
12.128,8160.5,-10.248523213661429,0.0
12.136,8180.0,-23.13391408363327,0.0
12.144,8188.5,-21.526515485280697,0.0
12.152,8198.0,-13.634813931578947,0.0
12.16,8205.5,-3.4273618997076483,0.0
12.168,8222.0,8.032156705902025,0.0
12.176,8245.0,21.661409913000853,0.0
12.184,8271.5,36.5504931706937,0.0
12.192,8270.5,45.0240572954026,0.0
12.2,8229.0,34.526345590293204,0.0
12.208,8176.0,3.7769867758104283,0.0
12.216,8153.0,-30.50763175725615,0.0
12.224,8151.0,-51.26570217320318,0.0
12.232,8154.0,-55.56520440839449,0.0
12.24,8152.5,-49.37713085503219,0.0
12.248,8155.5,-37.924907261584394,0.0
12.256,8162.0,-23.461359691274538,0.0
12.264,8165.5,-9.30761420510521,0.0
12.272,8164.5,0.9847837779502697,0.0
12.28,8164.5,6.718085308171339,0.0
12.288,8172.0,10.62246553402224,0.0
12.296,8167.0,11.831770466646503,0.0
12.304,8167.5,9.83376164207425,0.0
12.312,8175.5,8.897785186225065,0.0
12.32,8179.5,9.446850885901085,0.0
12.328,8185.5,10.38232157856055,0.0
12.336,8168.5,7.1141658379281125,0.0
12.344,8167.0,0.3232271583599413,0.0
12.352,8169.5,-3.537627009301559,0.0
12.36,8169.0,-4.875982139558573,0.0
12.368,8158.5,-7.175535778607127,0.0
12.376,8339.5,27.385698453771738,0.0
12.384,8194.0,50.92583953187659,0.0
12.392,8096.0,7.379231065315025,0.0
12.4,8175.0,-23.374655582601235,0.0
12.408,8186.5,-19.5293551577181,0.0
12.416,8192.5,-10.719105644446472,0.0
12.424,8200.5,-1.023384128315456,0.0
12.432,8214.0,9.258274427746983,0.0
12.44,8232.0,20.370642629884287,0.0
12.448,8260.0,33.25188691558583,0.0
12.456,8278.0,45.22629292381953,0.0
12.464,8270.0,47.494105304549976,0.0
12.472,8215.0,28.763666917372575,0.0
12.48,8168.0,-7.513078960228995,1.0
12.488,8153.0,-40.49466632220947,0.0
12.496,8147.0,-58.15077063282388,0.0
12.504,8153.0,-59.77621840533402,0.0
12.512,8154.0,-50.24461949101669,0.0
12.52,8155.5,-36.47921817034444,0.0
12.528,8160.5,-21.479747108943457,0.0
12.536,8161.5,-8.12669650825751,0.0
12.544,8167.0,2.330334074979646,0.0
12.552,8167.0,9.284953104291617,0.0
12.56,8166.5,11.88804443539425,0.0
12.568,8169.5,12.135892561296487,0.0
12.576,8168.0,10.748976212843218,0.0
12.584,8167.5,7.890482853132426,0.0
12.592,8168.0,5.003684257085297,0.0
12.6,8170.0,3.0485707930906756,0.0
12.608,8178.5,3.575279252885821,0.0
12.616,8192.5,7.941487778987266,0.0
12.624,8185.5,10.749738788869536,0.0
12.632,8169.5,6.081827562891021,0.0
12.64,8170.0,-0.7675070625011813,0.0
12.648,8171.5,-4.2932274896177205,0.0
12.656,8173.5,-5.012375890242765,0.0
12.664,8166.0,-5.801398254036485,0.0
12.672,8507.5,62.848010989040176,0.0
12.68,8079.5,76.24663684729921,0.0
12.688,8138.0,-2.8784826091430205,0.0
12.696,8180.0,-28.70430302815771,0.0
12.704,8189.5,-29.104247046534965,0.0
12.712,8196.5,-21.557262295283635,0.0
12.72,8206.5,-10.352538527746901,0.0
12.728,8223.0,3.2574555169219366,0.0
12.736,8244.5,18.575946175255694,0.0
12.744,8274.5,35.34043604715839,0.0
12.752,8279.0,46.945278913220136,0.0
12.76,8260.0,43.72854349957947,0.0
12.768,8201.5,19.363094252622204,0.0
12.776,8161.0,-18.208047509298922,0.0
12.784,8151.5,-47.882045101920994,0.0
12.792,8151.5,-60.11257297665611,0.0
12.8,8148.0,-58.94696428324255,0.0
12.808,8156.0,-48.40121595005235,0.0
12.816,8163.5,-31.659619354454662,0.0
12.824,8164.0,-15.324288146057825,0.0
12.832,8166.0,-2.8295051763498122,0.0
12.84,8169.5,6.112529789400696,0.0
12.848,8166.0,10.474102861154961,0.0
12.856,8168.5,11.261231536468586,0.0
12.864,8168.0,10.428004163429932,0.0
12.872,8166.5,7.945624702243094,0.0
12.88,8172.0,6.090102387732259,0.0
12.888,8168.0,4.37586938006325,0.0
12.896,8170.0,2.290039708343784,0.0
12.904,8177.5,2.650144259837134,0.0
12.912,8184.5,5.42367829958107,0.0
12.92,8187.5,8.284656352787579,0.0
12.928,8170.5,5.860370825849259,0.0
12.936,8167.0,-0.6500159261800036,0.0
12.944,8172.0,-4.0952465949990255,0.0
12.952,8175.5,-3.775305604247251,0.0
12.96,8162.0,-5.056720381456444,0.0
12.968,8439.5,48.88752914379893,0.0
12.976,8149.5,70.824382615986,0.0
12.984,8118.0,7.3772742035992,1.0
12.992,8177.0,-25.645450291007137,0.0
13.0,8188.0,-26.985824445348953,0.0
13.008,8195.5,-19.907584748594218,0.0
13.016,8209.0,-8.412983324313245,0.0
13.024,8223.0,5.278685250636272,0.0
13.032,8245.0,19.93043415776924,0.0
13.04,8265.5,34.25655027269022,0.0
13.048,8278.0,44.2772215593518,0.0
13.056,8263.5,43.081878976259986,0.0
13.064,8212.5,22.46152998304501,0.0
13.072,8167.0,-12.853773031267565,0.0
13.08,8152.0,-44.15060117258167,0.0
13.088,8149.0,-59.643156308647576,0.0
13.096,8153.0,-59.55852055807054,0.0
13.104,8158.5,-48.53783456992892,0.0
13.112,8166.5,-31.903249281428543,0.0
13.12,8169.0,-15.083515150271069,0.0
13.128,8169.0,-2.338761118747925,0.0
13.136,8169.5,5.655199607740087,0.0
13.144,8166.0,8.91251731811326,0.0
13.152,8169.5,9.487646817938412,0.0
13.16,8168.5,8.900090271954696,0.0
13.168,8170.0,7.305401974262168,0.0
13.176,8169.0,5.356871187755814,0.0
13.184,8167.5,2.881596330471666,0.0
13.192,8172.5,1.695891729123332,0.0
13.2,8183.5,4.006363967898096,0.0
13.208,8186.0,7.523422502379162,0.0
13.216,8171.0,5.90900516382635,0.0
13.224,8167.0,0.17665082001803967,0.0
13.232,8169.5,-3.5466876744062574,0.0
13.24,8170.5,-4.495891321991621,0.0
13.248,8160.5,-6.214326021477518,0.0
13.256,8373.0,35.08247662654094,0.0
13.264,8206.5,63.584257996849374,0.0
13.272,8094.5,13.902260916248224,0.0
13.28,8170.0,-25.044317188261857,0.0
13.288,8180.0,-26.81252469861215,0.0
13.296,8193.0,-19.09422552106753,0.0
13.304,8203.0,-6.935807185805061,0.0
13.312,8215.5,5.902980156023659,0.0
13.32,8241.0,20.36428768004589,0.0
13.328,8267.5,36.452857590854364,1.0
13.336,8274.5,47.28500544548615,0.0
13.344,8263.5,45.70495157886012,0.0
13.352,8215.0,25.685201144681514,0.0
13.36,8172.0,-8.742151349078995,0.0
13.368,8150.0,-41.05657110419611,0.0
13.376,8144.5,-59.560877552579996,0.0
13.384,8151.5,-61.167710581377605,0.0
13.392,8160.5,-49.575428881287735,0.0
13.4,8166.5,-32.139040049806454,0.0
13.408,8168.5,-15.320124022298842,0.0
13.416,8167.5,-2.8464323545704246,0.0
13.424,8168.5,4.962041076326841,0.0
13.432,8167.0,8.72550498167243,0.0
13.44,8170.0,9.934773020821012,0.0
13.448,8165.5,8.837252054352348,0.0
13.456,8166.5,6.133295357409224,0.0
13.464,8172.5,5.0344056243204705,0.0
13.472,8180.0,6.379309859743216,0.0
13.48,8187.5,9.272017699124262,0.0
13.488,8184.0,10.394216318427425,0.0
13.496,8165.5,4.987378715506566,0.0
13.504,8174.5,-0.9072194416532966,0.0
13.512,8175.0,-2.3148720674137166,0.0
13.52,8175.0,-2.6942431685342854,0.0
13.528,8184.5,-0.5692657156796486,0.0
13.536,8527.5,72.78979041435196,0.0
13.544,8068.5,81.43952825198039,0.0
13.552,8145.5,-3.8351396856944575,0.0
13.56,8185.5,-29.78178883272676,0.0
13.568,8193.0,-30.907034492810226,0.0
13.576,8202.0,-23.515668080724936,0.0
13.584,8218.5,-10.369502302805813,0.0
13.592,8234.5,5.617034200473199,0.0
13.6,8258.0,22.28971940766337,0.0
13.608,8280.0,38.06622089998109,0.0
13.616,8282.5,46.63049966673884,0.0
13.624,8250.0,38.49664113004587,0.0
13.632,8197.0,10.382024933918956,0.0
13.64,8161.0,-26.00172362134481,1.0
13.648,8153.5,-52.463930180111674,0.0
13.656,8155.0,-61.38528938732861,0.0
13.664,8159.0,-56.23097755040931,0.0
13.672,8165.0,-42.61443786704717,0.0
13.68,8170.0,-25.853477900273447,0.0
13.688,8173.0,-10.38697480316705,0.0
13.696,8173.0,0.9475800858028833,0.0
13.704,8173.5,7.609303247394109,0.0
13.712,8172.0,10.19107432983651,0.0
13.72,8169.0,9.253488623869771,0.0
13.728,8174.5,7.806815945144308,0.0
13.736,8183.0,8.627862203318273,0.0
13.744,8193.0,11.584907107627487,0.0
13.752,8174.5,9.84073292285575,0.0
13.76,8169.0,2.4140401363024466,0.0
13.768,8169.5,-3.3655948342354804,0.0
13.776,8173.5,-5.354043815576915,0.0
13.784,8168.0,-6.024724262687187,0.0
13.792,8341.0,28.71244380775738,0.0
13.8,8206.0,52.666233672534645,0.0
13.808,8086.5,6.853083054749504,0.0
13.816,8172.0,-28.22597500050665,0.0
13.824,8188.0,-23.955747461974624,0.0
13.832,8196.0,-12.895148076152054,0.0
13.84,8207.5,-0.4150051041685856,0.0
13.848,8222.0,12.340471978791811,0.0
13.856,8238.5,24.346404437877254,0.0
13.864,8268.0,37.15332873412285,0.0
13.872,8277.0,46.960021210615196,0.0
13.88,8265.5,45.129237406323,0.0
13.888,8217.0,24.946340352194966,0.0
13.896,8173.5,-9.567627178526664,0.0
13.904,8158.5,-40.48016368653248,0.0
13.912,8158.0,-55.791178970243436,0.0
13.92,8155.5,-57.000389378679756,0.0
13.928,8161.5,-48.358529703370095,0.0
13.936,8165.5,-33.87301599378543,0.0
13.944,8173.5,-17.719148131308657,0.0
13.952,8173.0,-3.947089122289526,0.0
13.96,8172.5,4.591808347015103,0.0
13.968,8174.0,9.149826712742879,0.0
13.976,8179.5,11.888315300610202,0.0
13.984,8186.5,14.259204317586182,0.0
13.992,8191.5,15.951090382516213,0.0
14.0,8165.0,10.140827709378982,0.0
14.008,8168.5,0.4682598066647188,0.0
14.016,8169.0,-4.505871321380482,0.0
14.024,8172.5,-5.947217695703102,0.0
14.032,8172.5,-5.182906279736699,0.0
14.04,8454.5,53.66772845259288,0.0
14.048,8072.0,59.80300287098953,0.0
14.056,8126.5,-12.646117441380966,1.0
14.064,8183.5,-30.795565172773877,0.0
14.072,8193.5,-23.171992237031645,0.0
14.08,8201.5,-11.47286140056167,0.0
14.088,8211.0,0.7606709221106485,0.0
14.096,8227.5,13.192056510988095,0.0
14.104,8246.0,25.69441482523621,0.0
14.112,8272.5,38.386249443590486,0.0
14.12,8274.0,45.792794086861704,0.0
14.128,8247.5,38.12276367342474,0.0
14.136,8199.5,12.58644796750309,0.0
14.144,8168.5,-20.563706237174756,0.0
14.152,8160.0,-45.12083475363511,0.0
14.16,8155.5,-55.45893965812115,0.0
14.168,8161.5,-52.85819675857056,0.0
14.176,8168.5,-40.650284440618634,0.0
14.184,8176.0,-24.305120333710192,0.0
14.192,8178.5,-8.910665857132472,0.0
14.2,8176.0,1.544551261745255,0.0
14.208,8173.5,6.472073105523805,0.0
14.216,8183.0,9.835064494790458,0.0
14.224,8191.0,13.908084618110479,0.0
14.232,8189.0,15.434037158268893,0.0
14.24,8166.0,8.888980158907998,0.0
14.248,8170.0,-0.21114573495287914,0.0
14.256,8170.0,-4.7437297032370225,0.0
14.264,8176.0,-5.479282028367152,0.0
14.272,8182.5,-2.5298023270117937,0.0
14.28,8442.0,53.942082262952,0.0
14.288,8063.5,54.849407243229734,0.0
14.296,8133.0,-16.05877451954393,0.0
14.304,8183.0,-31.14510804444376,0.0
14.312,8193.5,-22.984974949619982,0.0
14.32,8198.5,-11.507629408618186,0.0
14.328,8208.0,-0.012891776546666733,0.0
14.336,8226.0,12.405304322579468,0.0
14.344,8244.5,25.325594548953404,0.0
14.352,8268.5,37.809758857629504,0.0
14.36,8263.0,43.24003256869196,0.0
14.368,8241.5,34.379665913031204,0.0
14.376,8197.5,10.545592536574532,0.0
14.384,8166.0,-20.573387703216213,1.0
14.392,8158.5,-43.82566504876013,0.0
14.4,8157.0,-52.77124283950161,0.0
14.408,8162.5,-49.24369620170933,0.0
14.416,8163.5,-38.363629986917886,0.0
14.424,8174.0,-23.763338154873964,0.0
14.432,8176.0,-8.972186777525167,0.0
14.44,8173.0,0.9312643564660448,0.0
14.448,8180.0,7.4641616588817215,0.0
14.456,8186.5,12.954112470936934,0.0
14.464,8191.5,16.586323455806678,0.0
14.472,8169.0,12.644460206835674,0.0
14.48,8166.5,3.2886787565582836,0.0
14.488,8169.5,-2.640767074361065,0.0
14.496,8170.5,-4.929856807585111,0.0
14.504,8168.5,-5.740497044863105,0.0
14.512,8350.5,31.424567139077226,0.0
14.52,8137.5,42.30626397652691,0.0
14.528,8091.0,-10.688511338935314,0.0
14.536,8177.0,-32.339147052898625,0.0
14.544,8190.5,-19.912368895577174,0.0
14.552,8197.0,-5.458226134468305,0.0
14.56,8207.0,7.288425174302802,0.0
14.568,8218.0,18.012079769333468,0.0
14.576,8237.5,27.85436266086117,0.0
14.584,8254.5,36.90900246630349,0.0
14.592,8264.5,42.1841833475994,0.0
14.6,8245.5,37.06958909010973,0.0
14.608,8199.0,15.042935230571402,0.0
14.616,8167.5,-16.19974238404552,0.0
14.624,8156.5,-40.90332329277044,0.0
14.632,8154.0,-52.06961483149553,0.0
14.64,8155.5,-50.98327385235257,0.0
14.648,8164.0,-40.56813924956941,0.0
14.656,8168.0,-25.704276756999434,0.0
14.664,8174.0,-10.973732984392427,0.0
14.672,8174.0,0.6274387123298766,0.0
14.68,8172.5,7.086774176878862,0.0
14.688,8178.5,10.751729617345518,0.0
14.696,8184.0,13.638548584514638,0.0
14.704,8183.0,14.197397324200892,0.0
14.712,8165.5,8.595841285048891,0.0
14.72,8162.5,-0.20830761951742716,0.0
14.728,8162.5,-5.996387346182473,0.0
14.736,8164.5,-8.101723405829262,0.0
14.744,8164.0,-7.812047547407474,0.0
14.752,8418.5,45.43607426744143,0.0
14.76,8070.5,50.9361534894158,1.0
14.768,8125.0,-13.49592275072223,0.0
14.776,8176.0,-28.00106826495221,0.0
14.784,8187.5,-19.56529343132115,0.0
14.792,8195.0,-7.728345017649872,0.0
14.8,8205.0,4.018979511029784,0.0
14.808,8217.0,14.851621273467345,0.0
14.816,8236.0,25.339672220629836,0.0
14.824,8257.5,35.974678239579134,0.0
14.832,8258.5,41.40678596584053,0.0
14.84,8238.0,34.35770194966403,0.0
14.848,8192.0,11.393847311914215,0.0
14.856,8161.0,-19.64554367319147,0.0
14.864,8152.5,-43.09357458360796,0.0
14.872,8155.0,-51.65301179272137,0.0
14.88,8158.0,-47.760188040796265,0.0
14.888,8164.5,-36.276112417743434,0.0
14.896,8170.5,-21.430801896565754,0.0
14.904,8172.5,-7.7677406085381335,0.0
14.912,8172.5,1.8988541234343757,0.0
14.92,8171.5,7.123472789085326,0.0
14.928,8171.5,8.929000273805286,0.0
14.936,8178.0,9.970999774914162,0.0
14.944,8191.0,13.059381377591535,0.0
14.952,8180.5,13.416640863773637,0.0
14.96,8167.0,6.690582633825443,0.0
14.968,8165.5,-1.366080778678679,0.0
14.976,8167.5,-5.82151385592033,0.0
14.984,8171.0,-6.45018488428741,0.0
14.992,8199.5,0.6935706466063039,0.0
15.0,8465.5,64.97981515023821,0.0
15.008,8052.0,63.01251561886079,0.0
15.016,8155.0,-11.139789160214832,0.0
15.024,8185.0,-26.13240680221884,0.0
15.032,8191.0,-23.682205159706655,0.0
15.04,8194.5,-16.70180028242089,0.0
15.048,8209.0,-6.363995446442914,0.0
15.056,8225.5,7.047947670874464,0.0
15.064,8247.0,21.67462798577253,1.0
15.072,8264.5,35.00642531965468,0.0
15.08,8253.5,38.91139636623825,0.0
15.088,8220.0,26.229976145392584,0.0
15.096,8172.5,-1.794935623369156,0.0
15.104,8154.0,-31.580543218373123,0.0
15.112,8147.0,-49.617390353186465,0.0
15.12,8144.0,-54.8047782211454,0.0
15.128,8155.5,-47.82698258278742,0.0
15.136,8159.0,-33.38467829735964,0.0
15.144,8162.5,-18.35190629745398,0.0
15.152,8164.0,-5.657679987339634,0.0
15.16,8156.5,1.4816306452999015,0.0
15.168,8158.0,4.253369543557028,0.0
15.176,8157.5,5.452011155465016,0.0
15.184,8163.5,6.457951118488381,0.0
15.192,8171.0,8.83182186647332,0.0
15.2,8173.0,10.837574503000724,0.0
15.208,8149.5,5.988201367440979,0.0
15.216,8152.5,-1.975758817275846,0.0
15.224,8151.0,-6.079632147165057,0.0
15.232,8154.0,-7.278460838085948,0.0
15.24,8140.5,-9.029104230497978,0.0
15.248,8364.0,34.20766003251833,0.0
15.256,8127.5,51.93561539152597,0.0
15.264,8088.5,-1.739030444129412,0.0
15.272,8158.5,-26.885144408051474,0.0
15.28,8169.0,-21.234193163939153,0.0
15.288,8178.5,-10.586859107471128,0.0
15.296,8186.5,0.8903139279648258,0.0
15.304,8200.5,12.037531174178866,0.0
15.312,8223.5,24.364075764724703,0.0
15.32,8240.5,36.13212541941971,0.0
15.328,8248.0,42.619044081638094,0.0
15.336,8230.5,37.95083870566759,0.0
15.344,8185.5,16.66747312411985,0.0
15.352,8145.5,-15.812029918229655,0.0
15.36,8137.5,-42.42950366570744,0.0
15.368,8136.5,-53.57692760591067,0.0
15.376,8143.5,-50.820796181879814,0.0
15.384,8149.5,-38.82988132255082,0.0
15.392,8155.5,-23.399795815456628,0.0
15.4,8156.5,-9.296677670050258,0.0
15.408,8155.5,0.45336921858847745,0.0
15.416,8153.5,5.537892276827279,0.0
15.424,8153.0,7.1945089348485,0.0
15.432,8157.0,7.798509705646666,0.0
15.44,8164.0,9.220677712177121,0.0
15.448,8169.5,11.217542253229112,0.0
15.456,8175.5,13.047232318694114,0.0
15.464,8157.0,9.5974332810747,0.0
15.472,8154.0,1.7096759266662502,0.0
15.48,8158.0,-3.010036995264045,0.0
15.488,8160.5,-4.016954941051608,0.0
15.496,8150.5,-5.535682953358673,0.0
15.504,8356.5,34.448380242798066,0.0
15.512,8171.5,57.16242555426584,0.0
15.52,8084.0,6.257001454147257,0.0
15.528,8167.0,-25.716371420094447,0.0
15.536,8179.0,-21.317887668322328,0.0
15.544,8187.5,-11.296421335105379,0.0
15.552,8194.5,-0.49040907898734076,0.0
15.56,8210.0,10.57136910614372,0.0
15.568,8229.0,22.55892059138614,0.0
15.576,8253.5,35.11522599889645,0.0
15.584,8260.0,43.55044712685776,0.0
15.592,8242.0,39.58680168525984,0.0
15.6,8196.0,18.1656291531624,0.0
15.608,8162.5,-13.49885629634764,1.0
15.616,8147.5,-40.087184819765525,0.0
15.624,8144.0,-53.513353337900526,0.0
15.632,8149.5,-52.931709607147695,0.0
15.64,8153.0,-42.723947090584716,0.0
15.648,8165.5,-26.94082530816536,0.0
15.656,8164.5,-11.172706514659694,0.0
15.664,8159.0,-1.481508229111114,0.0
15.672,8163.0,4.168013358071221,0.0
15.68,8163.0,7.694414386015524,0.0
15.688,8164.0,8.817658922891269,0.0
15.696,8162.5,8.04293230636813,0.0
15.704,8171.5,7.897612972652041,0.0
15.712,8177.5,9.678812376863107,0.0
15.72,8181.0,11.205646398957242,0.0
15.728,8163.0,7.447343310515862,0.0
15.736,8160.5,-0.09258298858526359,0.0
15.744,8167.5,-3.6182925883258577,0.0
15.752,8168.0,-3.6225593860685876,0.0
15.76,8151.5,-6.344673190317735,0.0
15.768,8406.0,41.630996721814654,0.0
15.776,8138.5,61.036067605903554,0.0
15.784,8101.5,1.0488052495481952,0.0
15.792,8172.0,-27.74249645428381,0.0
15.8,8186.0,-23.30011524295537,0.0
15.808,8193.0,-12.850008514894398,0.0
15.816,8205.0,-0.839903996692783,0.0
15.824,8221.5,12.2127648677465,0.0
15.832,8240.5,25.333171671220953,0.0
15.84,8262.5,37.62808457605934,0.0
15.848,8266.5,44.506235466617454,0.0
15.856,8251.5,39.57898287182775,0.0
15.864,8204.5,17.997721730941976,0.0
15.872,8168.5,-14.451035995835127,0.0
15.88,8156.0,-41.358820169608634,0.0
15.888,8152.0,-54.372517655360525,0.0
15.896,8159.5,-53.110228547956694,0.0
15.904,8173.5,-39.91910759543157,0.0
15.912,8179.0,-22.08182644160911,0.0
15.92,8178.5,-7.163518121522202,0.0
15.928,8176.5,2.2344666655035326,0.0
15.936,8175.0,6.73859496902196,0.0
15.944,8178.0,8.687129722544569,0.0
15.952,8175.5,8.624568971343251,0.0
15.96,8173.5,6.360630480955933,0.0
15.968,8174.5,3.8530935073347337,0.0
15.976,8180.0,3.1139211774209343,0.0
15.984,8193.5,6.086384336236506,0.0
15.992,8188.5,8.658083448667867,0.0
16.0,8172.0,4.473846695336761,0.0
16.008,8173.5,-1.7435043528892038,0.0
16.016,8177.0,-4.1345955520780535,0.0
16.024,8179.0,-3.7981749233952087,0.0
16.032,8192.5,0.1432946084764808,0.0
16.04,8495.0,67.01160851658119,0.0
16.048,8069.0,71.16651650086101,0.0
16.056,8144.0,-8.875551009921764,0.0
16.064,8187.5,-30.657011803401474,0.0
16.072,8199.5,-27.551871210499257,0.0
16.08,8208.5,-17.247989989437883,0.0
16.088,8220.0,-4.351125855566352,0.0
16.096,8234.5,9.247561801330903,0.0
16.104,8260.5,24.161947124558992,0.0
16.112,8275.5,37.69538743421572,0.0
16.12,8276.5,43.25278923944006,0.0
16.128,8246.0,33.95491980647398,0.0
16.136,8202.0,8.087797113316583,0.0
16.144,8173.0,-23.350142283248715,1.0
16.152,8163.0,-46.37006277859473,0.0
16.16,8164.0,-54.79246438262294,0.0
16.168,8167.5,-50.54692075499793,0.0
16.176,8174.0,-38.32959519420592,0.0
16.184,8179.0,-22.94361046584777,0.0
16.192,8186.5,-7.81208199820162,0.0
16.2,8184.5,3.4447373659877485,0.0
16.208,8184.0,9.068986874675602,0.0
16.216,8184.0,10.918042894089922,0.0
16.224,8191.0,11.78637317216203,0.0
16.232,8203.0,14.394664635764684,0.0
16.24,8193.5,14.265554902257236,0.0
16.248,8178.0,6.918852504946017,0.0
16.256,8175.5,-2.1523697246823303,0.0
16.264,8182.0,-6.3735476435642795,0.0
16.272,8184.0,-6.1670832464478735,0.0
16.28,8199.0,-1.6368639161107694,0.0
16.288,8472.0,60.12910561616445,0.0
16.296,8070.0,61.186309691787756,0.0
16.304,8139.5,-15.395052400797113,0.0
16.312,8192.0,-33.42637146661605,0.0
16.32,8200.5,-26.559881091807256,0.0
16.328,8208.5,-15.101294930962013,0.0
16.336,8222.0,-1.6427036843692804,0.0
16.344,8237.5,12.490462163889788,0.0
16.352,8255.5,25.799169265799264,0.0
16.36,8271.0,36.60253573872046,0.0
16.368,8273.0,41.017516830632076,0.0
16.376,8243.5,31.791517000959402,0.0
16.384,8203.5,7.316399395187318,0.0
16.392,8174.5,-22.364154191117905,0.0
16.4,8169.0,-43.574893339002074,0.0
16.408,8168.0,-50.84037669575423,0.0
16.416,8170.0,-47.22486955072259,0.0
16.424,8176.0,-36.29241034996471,0.0
16.432,8181.5,-21.97515473694034,0.0
16.44,8183.5,-8.644004347338978,0.0
16.448,8185.5,1.367752400849895,0.0
16.456,8186.0,7.592073488895949,0.0
16.464,8187.5,10.53068041380493,0.0
16.472,8194.5,12.408549261836242,0.0
16.48,8195.5,13.272241865051456,0.0
16.488,8176.5,8.093384884028183,0.0
16.496,8175.5,-0.2824517611477404,0.0
16.504,8176.0,-5.295235135944722,0.0
16.512,8178.5,-6.844064338053158,0.0
16.52,8184.0,-5.08799184300733,0.0
16.528,8437.5,49.63585964863796,0.0
16.536,8074.0,52.000982331788464,0.0
16.544,8122.0,-18.941160792905976,1.0
16.552,8185.5,-35.244981824452,0.0
16.56,8196.5,-24.32306803591041,0.0
16.568,8206.5,-9.88588470603986,0.0
16.576,8214.0,3.726322948550205,0.0
16.584,8229.0,15.808374118589654,0.0
16.592,8246.5,27.19671994175542,0.0
16.6,8267.0,37.57185645126242,0.0
16.608,8269.0,42.60812670892142,0.0
16.616,8249.0,35.44925886619899,0.0
16.624,8204.5,12.663586990311842,0.0
16.632,8174.5,-17.952182465011447,0.0
16.64,8159.0,-42.632222793600704,0.0
16.648,8162.5,-53.21601966424987,0.0
16.656,8165.5,-50.07912761225293,0.0
16.664,8168.5,-39.40558302478826,0.0
16.672,8176.5,-24.8716057756194,0.0
16.68,8180.5,-10.053796692696324,0.0
16.688,8183.0,1.5616607765678054,0.0
16.696,8184.0,8.909309852945398,0.0
16.704,8188.5,13.02759540253328,0.0
16.712,8199.5,16.65466822992539,0.0
16.72,8184.0,15.355315124534172,0.0
16.728,8171.0,6.436259328652341,0.0
16.736,8174.5,-1.7551262803542613,0.0
16.744,8173.5,-5.82264830376198,0.0
16.752,8175.0,-7.2432415002203925,0.0
16.76,8260.5,10.78895464633888,0.0
16.768,8317.5,48.930300310805706,0.0
16.776,8063.5,23.821355795233103,0.0
16.784,8167.0,-25.38690536710851,0.0
16.792,8188.5,-25.10203234894084,0.0
16.8,8198.0,-14.794468967096691,0.0
16.808,8202.5,-3.595365314414039,0.0
16.816,8218.5,7.761032840548296,0.0
16.824,8233.0,19.53169894262669,0.0
16.832,8257.0,31.397197104267434,0.0
16.84,8266.5,40.498325092712776,0.0
16.848,8258.0,39.944993900357076,0.0
16.856,8219.5,23.95948343839973,0.0
16.864,8177.0,-5.675228357753667,1.0
16.872,8160.0,-34.49661549762891,0.0
16.88,8155.0,-50.80606038253018,0.0
16.888,8156.5,-53.463693642853514,0.0
16.896,8159.0,-46.11248326096893,0.0
16.904,8168.0,-32.42433333111467,0.0
16.912,8174.5,-16.246609599530757,0.0
16.92,8175.5,-2.6836964913347856,0.0
16.928,8180.0,6.867922559700446,0.0
16.936,8178.5,12.088378667197503,0.0
16.944,8185.0,14.364511033440522,0.0
16.952,8186.0,15.065038720883422,0.0
16.96,8188.5,13.910344835550177,0.0
16.968,8167.0,7.2367726462539395,0.0
16.976,8168.0,-1.9953139948115677,0.0
16.984,8169.0,-6.744040012468076,0.0
16.992,8170.5,-8.019200620830134,0.0
17.0,8164.0,-8.5790271553592,0.0
17.008,8438.0,47.04104463442991,0.0
17.016,8071.0,53.802709121478074,0.0
17.024,8138.0,-11.645826699827012,0.0
17.032,8181.5,-26.011097011994707,0.0
17.04,8190.5,-19.837311587983095,0.0
17.048,8198.0,-9.807610879485537,0.0
17.056,8208.0,1.186151582994171,0.0
17.064,8221.0,12.206928957199125,0.0
17.072,8242.0,23.820112039598826,0.0
17.08,8264.5,35.963805080865086,0.0
17.088,8264.5,42.2897963241046,0.0
17.096,8243.0,35.22687710471064,0.0
17.104,8193.5,11.20370942844579,0.0
17.112,8163.0,-21.04623286673359,0.0
17.12,8154.0,-44.997820811475776,0.0
17.128,8153.5,-54.281407500714295,0.0
17.136,8156.5,-51.031251216875944,0.0
17.144,8164.0,-39.22701546325152,0.0
17.152,8169.0,-23.744971036069728,0.0
17.16,8172.5,-9.252340596821568,0.0
17.168,8170.0,0.9256420209123917,0.0
17.176,8169.0,6.08949302040196,0.0
17.184,8175.0,9.241651090821051,0.0
17.192,8174.0,10.726192909581187,0.0
17.2,8178.5,10.69298392742121,0.0
17.208,8185.5,11.401621091840525,0.0
17.216,8189.0,12.237246261533983,0.0
17.224,8168.5,7.403008620932951,0.0
17.232,8170.0,-0.46005069983471003,0.0
17.24,8170.0,-4.734050666352232,0.0
17.248,8172.0,-6.135347592578455,0.0
17.256,8157.5,-8.587641474885004,0.0
17.264,8397.0,37.23174924510886,0.0
17.272,8145.0,56.13072842582301,0.0
17.28,8106.5,-0.5519168696280303,0.0
17.288,8174.5,-27.96338842148998,0.0
17.296,8190.5,-22.773638515704533,0.0
17.304,8197.0,-11.654908023507915,0.0
17.312,8205.5,-0.2477751515205,0.0
17.32,8217.5,10.724116958900595,0.0
17.328,8239.5,22.5332011781627,0.0
17.336,8266.0,36.00936482691759,1.0
17.344,8274.0,45.5680794870525,0.0
17.352,8256.5,42.371571035917896,0.0
17.36,8204.5,19.858223618119837,0.0
17.368,8167.0,-14.751797800614895,0.0
17.376,8151.5,-43.81150442846456,0.0
17.384,8153.5,-57.11308694916329,0.0
17.392,8154.5,-55.70770033579652,0.0
17.4,8157.5,-45.613408797188185,0.0
17.408,8167.5,-30.07221953656267,0.0
17.416,8172.0,-13.359520438345953,0.0
17.424,8169.5,-1.0415951084471544,0.0
17.432,8169.0,5.788221264295089,0.0
17.44,8168.5,8.745499918421501,0.0
17.448,8169.0,9.168508624205288,0.0
17.456,8169.0,8.13077155992005,0.0
17.464,8168.5,6.182184218947668,0.0
17.472,8180.5,6.4419602585612665,0.0
17.48,8184.5,8.887727356231153,0.0
17.488,8185.0,9.906019321806525,0.0
17.496,8165.5,5.124650395179287,0.0
17.504,8171.0,-1.3402123342405048,0.0
17.512,8172.0,-3.6323741274620716,0.0
17.52,8174.0,-3.824341567864167,0.0
17.528,8166.0,-4.583860419245411,0.0
17.536,8521.0,66.55431476140802,0.0
17.544,8079.5,80.86287329302559,0.0
17.552,8142.0,-0.3648472441498143,0.0
17.56,8179.5,-27.917389679068492,0.0
17.568,8195.0,-29.151368366557563,0.0
17.576,8201.5,-20.9668316616669,0.0
17.584,8215.0,-8.86167450010339,0.0
17.592,8226.5,4.748350548925146,0.0
17.6,8251.0,19.43222060999642,0.0
17.608,8273.0,34.67007147409436,0.0
17.616,8277.5,43.8392911352621,0.0
17.624,8252.0,38.32508122424338,0.0
17.632,8200.0,13.420138007710648,0.0
17.64,8168.0,-20.50452491965757,1.0
17.648,8157.0,-46.2437220891934,0.0
17.656,8155.5,-57.00850706015922,0.0
17.664,8160.0,-54.118718103624815,0.0
17.672,8166.5,-41.95735615825629,0.0
17.68,8173.0,-25.748005601023124,0.0
17.688,8175.0,-10.521563832691072,0.0
17.696,8175.0,0.48712364340030945,0.0
17.704,8174.0,6.719488749442917,0.0
17.712,8175.5,9.48869580291398,0.0
17.72,8175.5,9.994253242194645,0.0
17.728,8173.0,8.267240259168148,0.0
17.736,8176.5,6.196777247032969,0.0
17.744,8181.5,5.769361267438626,0.0
17.752,8185.0,6.378441901659471,0.0
17.76,8193.0,8.121063584008425,0.0
17.768,8178.0,6.490292307879145,0.0
17.776,8171.0,0.04723380720361092,0.0
17.784,8175.0,-4.383244043662216,0.0
17.792,8175.0,-5.521666508858061,0.0
17.8,8172.0,-5.9706803332933305,0.0
17.808,8294.0,18.980797336196474,0.0
17.816,8328.0,62.73027577027892,0.0
17.824,8084.5,36.29197225805365,0.0
17.832,8171.0,-16.921117633612994,0.0
17.84,8192.5,-23.761321082795348,0.0
17.848,8197.0,-18.892287951834305,0.0
17.856,8210.5,-9.47104109978136,0.0
17.864,8220.0,2.235509337451049,0.0
17.872,8241.0,15.05098950543379,0.0
17.88,8263.5,29.235221543277248,0.0
17.888,8283.0,41.77198294385926,0.0
17.896,8268.5,43.87458142083665,0.0
17.904,8229.0,27.43390576577349,0.0
17.912,8181.0,-4.324708768225037,0.0
17.92,8159.5,-36.64993143939,0.0
17.928,8155.0,-55.52227406489669,0.0
17.936,8157.5,-58.674115925426804,0.0
17.944,8165.0,-49.59941323003909,0.0
17.952,8168.0,-34.567633870438385,0.0
17.96,8173.0,-18.802596431313987,0.0
17.968,8174.5,-5.30052836720688,0.0
17.976,8175.5,3.998947152246501,0.0
17.984,8176.0,9.198805290040355,0.0
17.992,8173.5,10.470743711832256,0.0
18.0,8171.5,8.716123950367319,0.0
18.008,8170.5,5.744074971803229,0.0
18.016,8176.0,4.034894249200306,0.0
18.024,8178.5,4.0467565880712755,0.0
18.032,8183.0,4.870341661295697,0.0
18.04,8193.0,7.581369185398216,0.0
18.048,8176.5,6.707285980814731,0.0
18.056,8173.5,1.1895848168298926,0.0
18.064,8175.0,-2.5603808909786494,0.0
18.072,8177.5,-3.572717166723578,0.0
18.08,8173.0,-4.038346726919599,0.0
18.088,8304.0,22.142596023114265,0.0
18.096,8310.0,62.258096416089984,0.0
18.104,8080.0,30.779890292429627,0.0
18.112,8166.0,-21.92218229125706,0.0
18.12,8189.0,-27.497649690638127,0.0
18.128,8199.0,-19.88407645616803,0.0
18.136,8208.0,-8.485045443445188,0.0
18.144,8218.5,3.526621821107483,0.0
18.152,8239.5,16.531100509919725,0.0
18.16,8266.0,31.419906959870787,1.0
18.168,8279.0,43.531376349432094,0.0
18.176,8270.5,45.01356261284286,0.0
18.184,8230.5,29.156947738498957,0.0
18.192,8184.5,-2.2110364771574496,0.0
18.2,8158.5,-35.136450750796484,0.0
18.208,8155.5,-55.20610971014844,0.0
18.216,8157.5,-58.909675900334605,0.0
18.224,8159.0,-51.45350374926261,0.0
18.232,8167.0,-37.30211950214061,0.0
18.24,8172.5,-20.519511449273978,0.0
18.248,8179.0,-5.031694685834964,0.0
18.256,8176.5,5.707842217880625,0.0
18.264,8171.5,9.661554202693651,0.0
18.272,8170.5,9.309162349606822,0.0
18.28,8171.5,7.689379496007859,0.0
18.288,8175.5,6.587146015295957,0.0
18.296,8180.0,6.673154871386032,0.0
18.304,8195.5,9.798307808190657,0.0
18.312,8175.5,9.241625275764136,0.0
18.32,8168.0,1.8929920005066379,0.0
18.328,8171.5,-3.5571808318759395,0.0
18.336,8176.5,-4.504536452040156,0.0
18.344,8176.0,-3.4625063993441927,0.0
18.352,8265.5,15.86147865839007,0.0
18.36,8343.5,59.1052522491666,0.0
18.368,8070.0,35.777683620183325,0.0
18.376,8161.5,-20.625271169507187,0.0
18.384,8188.0,-26.74735381965138,0.0
18.392,8195.5,-19.366500829170036,0.0
18.4,8202.5,-9.102924468672882,0.0
18.408,8218.0,2.9438170127079957,0.0
18.416,8238.0,16.874601920803798,0.0
18.424,8261.0,31.339791763979747,0.0
18.432,8275.0,42.70212933925268,0.0
18.44,8268.0,44.37775597819996,0.0
18.448,8231.0,29.651290922931366,0.0
18.456,8184.0,-0.7146711660147957,0.0
18.464,8165.0,-32.048552903525206,0.0
18.472,8159.0,-50.827940609172856,0.0
18.48,8155.5,-56.1687816269166,0.0
18.488,8158.5,-50.91364633077001,0.0
18.496,8168.5,-37.43074752280472,0.0
18.504,8175.5,-20.308926245349085,0.0
18.512,8179.0,-4.958877779117074,0.0
18.52,8175.5,4.870939981003403,0.0
18.528,8175.0,9.128582706571478,0.0
18.536,8175.0,10.160394295884316,0.0
18.544,8177.5,9.740922326324608,0.0
18.552,8189.0,10.87622003389879,0.0
18.56,8190.5,12.554580608112474,0.0
18.568,8168.5,7.455570778771289,0.0
18.576,8170.5,-0.7763442457580823,0.0
18.584,8173.5,-4.505478147409576,0.0
18.592,8173.0,-5.517046060811481,0.0
18.6,8168.5,-6.300340475509984,0.0
18.608,8395.5,39.64855988776503,0.0
18.616,8134.0,53.76309570321678,0.0
18.624,8096.0,-7.228807862483563,1.0
18.632,8176.5,-33.5205614502097,0.0
18.64,8189.0,-24.987371742609866,0.0
18.648,8197.5,-11.862159613130643,0.0
18.656,8208.5,1.6823786878853753,0.0
18.664,8221.0,14.238597213636467,0.0
18.672,8240.0,25.941060712566014,0.0
18.68,8262.0,37.30524113084971,0.0
18.688,8271.0,44.70340936173375,0.0
18.696,8261.5,42.198958930028766,0.0
18.704,8214.0,22.674823820422716,0.0
18.712,8174.5,-10.083660142844337,0.0
18.72,8161.5,-38.65396492897571,0.0
18.728,8155.5,-53.57171440595698,0.0
18.736,8157.5,-55.0891459142656,0.0
18.744,8168.0,-45.0806273390981,0.0
18.752,8169.5,-29.875240849663896,0.0
18.76,8174.5,-15.025405845093474,0.0
18.768,8172.0,-3.4544569660133675,0.0
18.776,8175.0,4.0144699879854215,0.0
18.784,8181.0,9.661647459143296,0.0
18.792,8182.5,13.068815292107729,0.0
18.8,8192.5,15.451881555239652,0.0
18.808,8184.5,14.927137033507734,0.0
18.816,8170.0,7.756905275370855,0.0
18.824,8170.5,-0.5198079039068944,0.0
18.832,8173.5,-4.6207805343167365,0.0
18.84,8172.0,-6.039072880369304,0.0
18.848,8179.5,-4.73644895913435,0.0
18.856,8447.5,53.03689934384738,0.0
18.864,8074.5,57.71135577345126,0.0
18.872,8124.5,-14.263067379000177,0.0
18.88,8182.5,-32.601684181487826,0.0
18.888,8192.0,-24.714006150180467,0.0
18.896,8201.0,-12.522746073095504,0.0
18.904,8207.0,-0.34974648095840166,0.0
18.912,8223.0,11.396989238759716,0.0
18.92,8241.0,23.56229931129701,0.0
18.928,8266.0,35.96945638483953,1.0
18.936,8275.0,44.79986249748572,0.0
18.944,8247.0,39.34824650444989,0.0
18.952,8198.0,14.427347706587852,0.0
18.96,8166.5,-18.944403319144385,0.0
18.968,8157.0,-44.184540502472146,0.0
18.976,8160.0,-53.74057350858243,0.0
18.984,8161.0,-50.42708710786246,0.0
18.992,8166.0,-39.596350147032126,0.0
19.0,8166.0,-26.166291985757425,0.0
19.008,8174.5,-12.520102005294575,0.0
19.016,8176.0,-0.5085642602871303,0.0
19.024,8176.5,7.080745353166776,0.0
19.032,8176.0,10.495525973904478,0.0
19.04,8179.0,11.434528042860165,0.0
19.048,8189.5,13.014304028026345,0.0
19.056,8176.0,11.362556363712429,0.0
19.064,8167.0,4.066249308999659,0.0
19.072,8166.5,-2.806123876418269,0.0
19.08,8165.5,-6.751443783257173,0.0
19.088,8167.0,-7.958950491736232,0.0
19.096,8268.0,13.474437360138154,0.0
19.104,8284.0,48.01042029483301,0.0
19.112,8062.5,19.17217786632318,0.0
19.12,8161.0,-25.918441014885957,0.0
19.128,8181.5,-24.34361900763588,0.0
19.136,8194.0,-12.979564686110962,0.0
19.144,8200.0,-0.5114612352504082,0.0
19.152,8211.5,10.514962576203288,0.0
19.16,8225.0,20.549299608017463,0.0
19.168,8248.0,30.825053699322552,0.0
19.176,8266.5,40.70715995329465,0.0
19.184,8267.0,44.261451027214434,0.0
19.192,8221.5,30.459357400692625,0.0
19.2,8176.5,-0.8104007231822834,0.0
19.208,8156.5,-32.45997139064275,0.0
19.216,8156.5,-50.34217698870316,0.0
19.224,8159.0,-52.77446359407213,0.0
19.232,8163.0,-44.88372692190637,0.0
19.24,8163.0,-32.595052180287894,0.0
19.248,8164.0,-20.181454727595337,0.0
19.256,8174.5,-7.4308674317455825,0.0
19.264,8172.0,2.870822681484924,0.0
19.272,8174.0,8.425824214739578,0.0
19.28,8179.5,11.965844740845796,0.0
19.288,8187.5,15.003304870734155,0.0
19.296,8186.5,15.955081444602456,0.0
19.304,8167.0,9.910814970775846,0.0
19.312,8163.5,0.13473025223402146,0.0
19.32,8168.0,-5.46295600567646,0.0
19.328,8167.5,-7.127966520746895,0.0
19.336,8159.0,-8.870674553826802,0.0
19.344,8353.0,29.34139266325633,0.0
19.352,8140.0,43.60972909924635,0.0
19.36,8107.5,-4.719602298669315,0.0
19.368,8176.5,-25.12896170850422,0.0
19.376,8189.0,-16.73865883212511,0.0
19.384,8197.5,-4.948551979747208,0.0
19.392,8202.0,5.430267381699878,0.0
19.4,8214.5,14.218105423562747,0.0
19.408,8230.5,23.082159241223508,0.0
19.416,8261.5,34.42695700722879,0.0
19.424,8272.0,44.3952028715496,0.0
19.432,8260.0,43.25311903274587,0.0
19.44,8209.0,23.149057220060513,0.0
19.448,8168.0,-11.045797941827232,1.0
19.456,8156.0,-40.42184925207857,0.0
19.464,8158.5,-53.60722593366245,0.0
19.472,8159.5,-52.562494877752215,0.0
19.48,8162.5,-43.1583447130306,0.0
19.488,8167.0,-29.521175150243835,0.0
19.496,8171.5,-15.141709529215404,0.0
19.504,8173.0,-3.116250431760136,0.0
19.512,8174.0,4.97879866207677,0.0
19.52,8175.5,9.52210476713958,0.0
19.528,8175.0,10.969645855282579,0.0
19.536,8178.0,10.67334353757633,0.0
19.544,8183.0,10.514312566963781,0.0
19.552,8190.0,11.277777914180433,0.0
19.56,8187.0,10.836649110351345,0.0
19.568,8173.5,5.561838746844842,0.0
19.576,8173.5,-1.1589769371605598,0.0
19.584,8176.5,-4.345039196214884,0.0
19.592,8176.0,-5.059759874230622,0.0
19.6,8167.5,-6.554032603955875,0.0
19.608,8452.0,49.942953177115896,0.0
19.616,8072.5,56.37465791666,0.0
19.624,8145.5,-10.986908708573765,0.0
19.632,8185.5,-26.072689968604664,0.0
19.64,8195.0,-20.92857778499274,0.0
19.648,8199.5,-11.853127357902167,0.0
19.656,8211.5,-1.3178833206450236,0.0
19.664,8221.0,9.504917024044062,0.0
19.672,8242.0,20.695620834710553,0.0
19.68,8263.5,32.85886925337854,0.0
19.688,8276.5,42.11878032664754,0.0
19.696,8257.0,39.88141686617223,0.0
19.704,8205.0,17.904241330601053,0.0
19.712,8166.0,-16.398893378805496,0.0
19.72,8155.0,-44.41448610869156,0.0
19.728,8155.5,-56.39425977856081,0.0
19.736,8159.0,-54.111839449367835,0.0
19.744,8164.5,-42.719318842678604,0.0
19.752,8167.0,-27.87064137036532,0.0
19.76,8169.5,-13.842135669195386,0.0
19.768,8170.5,-2.7320164871646284,0.0
19.776,8169.0,4.150545215524062,0.0
19.784,8175.0,8.510962923732905,0.0
19.792,8172.0,10.412246802531627,0.0
19.8,8174.0,9.753742613768964,0.0
19.808,8169.5,7.3747697531198355,0.0
19.816,8177.0,5.462649455747851,0.0
19.824,8180.0,5.648781183636629,0.0
19.832,8189.5,7.456197581737115,0.0
19.84,8175.0,6.373148975954564,0.0
19.848,8167.5,0.27177307136366835,0.0
19.856,8172.0,-3.990677058264964,0.0
19.864,8172.0,-4.987095582620896,0.0
19.872,8170.5,-5.126724536311258,0.0
19.88,8240.0,9.460427135940563,0.0
19.888,8377.5,58.94320279698445,0.0
19.896,8070.0,44.539609336088915,0.0
19.904,8167.0,-13.736706103497681,0.0
19.912,8184.0,-22.828282223759743,0.0
19.92,8193.0,-19.432166882988668,0.0
19.928,8201.0,-11.004449989692375,0.0
19.936,8211.0,-0.6744927663767157,0.0
19.944,8226.0,10.644408577764807,0.0
19.952,8250.0,23.69230233868666,1.0
19.96,8269.5,36.70385836922242,0.0
19.968,8266.0,42.10294618189164,0.0
19.976,8231.0,31.047072475687628,0.0
19.984,8178.0,1.8230718035722475,0.0
19.992,8154.5,-31.365366278182364,0.0
20.0,8149.5,-52.060167589820594,0.0
20.008,8151.5,-57.019005543621006,0.0
20.016,8154.0,-50.38754616236065,0.0
20.024,8156.0,-37.90701156135924,0.0
20.032,8164.5,-22.633734931541767,0.0
20.04,8164.0,-8.535196345521172,0.0
20.048,8167.5,1.7095951152252837,0.0
20.056,8166.5,8.019905157666699,0.0
20.064,8168.0,10.638050241108658,0.0
20.072,8169.5,11.186465417602221,0.0
20.08,8165.5,9.304044991673436,0.0
20.088,8166.0,6.065128729316029,0.0
20.096,8169.0,3.945146771546888,0.0
20.104,8170.0,2.9104654169311743,0.0
20.112,8178.0,3.6960030774864663,0.0
20.12,8186.5,6.971174663640113,0.0
20.128,8184.0,9.076998322971122,0.0
20.136,8172.0,5.983836925226342,0.0
20.144,8171.0,0.5914153501687451,0.0
20.152,8171.0,-2.8916202515113127,0.0
20.16,8171.5,-4.410927590773099,0.0
20.168,8160.5,-6.785853414613484,0.0
20.176,8400.0,39.52117319536728,0.0
20.184,8139.5,56.62487873694022,0.0
20.192,8112.0,-0.6836553881137206,0.0
20.2,8179.5,-26.300144792435276,0.0
20.208,8191.5,-21.220366479368522,0.0
20.216,8195.0,-11.83227315062004,0.0
20.224,8204.5,-1.8303472457726002,0.0
20.232,8219.5,9.367647687441831,0.0
20.24,8235.0,20.801052610899887,0.0
20.248,8263.5,33.3983006022745,0.0
20.256,8274.5,43.85459826919623,0.0
20.264,8260.5,42.776658264125444,0.0
20.272,8214.5,23.39567055827729,0.0
20.28,8173.0,-9.48959555250326,1.0
20.288,8153.0,-40.06365371428433,0.0
20.296,8149.0,-56.97419829666228,0.0
20.304,8156.5,-57.62205264377326,0.0
20.312,8160.0,-47.02170024822249,0.0
20.32,8166.5,-31.58061629728877,0.0
20.328,8169.5,-15.719932682446824,0.0
20.336,8169.5,-3.343720723217075,0.0
20.344,8167.0,3.9717460944445975,0.0
20.352,8171.0,8.002388758266534,0.0
20.36,8167.0,9.17284759300719,0.0
20.368,8167.5,7.759290166653727,0.0
20.376,8169.5,6.257666720022144,0.0
20.384,8166.0,4.114421715862363,0.0
20.392,8167.0,1.7123631964207107,0.0
20.4,8176.0,2.0751835186522385,0.0
20.408,8184.0,5.448246556380354,0.0
20.416,8184.5,8.35360899643888,0.0
20.424,8171.0,6.149419112354735,0.0
20.432,8169.5,0.8490279623031256,0.0
20.44,8168.0,-3.027239759073609,0.0
20.448,8172.0,-4.349940758913135,0.0
20.456,8157.0,-6.7199906534608544,0.0
20.464,8399.5,39.37563317676495,0.0
20.472,8151.5,59.543043824261304,0.0
20.48,8106.5,2.582447454805333,0.0
20.488,8177.5,-26.183663417009257,0.0
20.496,8188.5,-22.473473937998733,0.0
20.504,8196.0,-13.092464833158147,0.0
20.512,8207.5,-1.6778636471392474,0.0
20.52,8218.0,9.821714744283327,0.0
20.528,8241.5,22.079686587401284,0.0
20.536,8262.5,35.07287650467333,0.0
20.544,8275.0,44.28364315540557,0.0
20.552,8259.5,42.40404989177523,0.0
20.56,8211.0,21.788254300540757,0.0
20.568,8169.0,-12.196474353087524,0.0
20.576,8152.5,-42.397455600496414,0.0
20.584,8152.0,-57.303425427753155,0.0
20.592,8152.0,-57.53306614753319,0.0
20.6,8161.0,-47.10747595402631,0.0
20.608,8167.0,-30.735237350315856,0.0
20.616,8168.5,-14.860641484291818,0.0
20.624,8169.0,-2.8107813552087464,0.0
20.632,8168.0,4.639483278003354,0.0
20.64,8163.5,7.218502538967414,0.0
20.648,8167.0,7.445019265529254,0.0
20.656,8167.0,7.165280971503307,0.0
20.664,8169.0,6.322104683721136,0.0
20.672,8166.5,4.762795512200228,0.0
20.68,8174.5,4.242181155319713,0.0
20.688,8179.5,5.947036663236531,0.0
20.696,8188.5,8.913855986369526,0.0
20.704,8168.0,6.9675227815348535,0.0
20.712,8166.0,0.16333729152529486,0.0
20.72,8168.0,-3.885410651224902,0.0
20.728,8169.5,-4.975706508687381,0.0
20.736,8158.5,-6.806987674851825,0.0
20.744,8365.5,33.184976902976814,0.0
20.752,8197.0,59.670506362656624,0.0
20.76,8090.5,10.104525054755868,0.0
20.768,8170.0,-26.256802099119568,0.0
20.776,8185.0,-24.473562016590677,0.0
20.784,8192.5,-15.111707350160259,0.0
20.792,8203.5,-3.504443479939482,0.0
20.8,8219.5,9.40751048943389,0.0
20.808,8241.0,23.278610060042865,0.0
20.816,8264.0,37.04403010603801,1.0
20.824,8274.0,46.310491817225056,0.0
20.832,8265.0,44.9737456367468,0.0
20.84,8218.5,26.02594971583312,0.0
20.848,8175.0,-7.512660914959724,0.0
20.856,8150.0,-40.20293834461745,0.0
20.864,8150.5,-58.44604473136678,0.0
20.872,8154.0,-59.55667422817146,0.0
20.88,8156.0,-50.0603493594233,0.0
20.888,8167.5,-34.09643751082194,0.0
20.896,8174.0,-15.808569141284579,0.0
20.904,8168.5,-2.3920874348084453,0.0
20.912,8170.5,5.190013532985631,0.0
20.92,8167.5,8.682887409403293,0.0
20.928,8165.5,8.410634920578559,0.0
20.936,8171.0,7.689526603921649,0.0
20.944,8173.0,7.629497520256109,0.0
20.952,8175.5,7.3566282498609326,0.0
20.96,8189.0,9.34871532557213,0.0
20.968,8173.5,8.700855098735701,0.0
20.976,8167.5,2.6060915729242424,0.0
20.984,8168.5,-2.414959893295645,0.0
20.992,8170.5,-4.405362555074134,0.0
21.0,8167.0,-5.221029682398921,0.0
21.008,8291.0,19.706405177520992,0.0
21.016,8326.5,64.04670690527519,0.0
21.024,8074.0,36.22597263412081,0.0
21.032,8167.5,-18.20327985588824,0.0
21.04,8180.5,-25.87478017035187,0.0
21.048,8191.5,-21.585550939813402,0.0
21.056,8206.5,-10.464462105371695,0.0
21.064,8216.0,2.7044376645999364,0.0
21.072,8236.0,16.109352923456527,0.0
21.08,8259.0,30.379565103614368,0.0
21.088,8276.5,42.487227791189525,0.0
21.096,8272.0,45.86202502988135,0.0
21.104,8226.5,30.689609012483515,0.0
21.112,8179.0,-1.9362164371077597,0.0
21.12,8157.0,-35.13642984396938,0.0
21.128,8151.5,-55.06215649094656,0.0
21.136,8150.0,-59.928231301861615,0.0
21.144,8160.5,-51.88148527756357,0.0
21.152,8163.5,-36.498746266876424,0.0
21.16,8170.0,-19.92692119911021,0.0
21.168,8169.5,-5.879409767911511,0.0
21.176,8168.0,2.911051603427495,0.0
21.184,8169.5,7.668366182882664,0.0
21.192,8169.0,9.523520179891648,0.0
21.2,8172.5,9.789679598341309,0.0
21.208,8174.0,9.484358981806508,0.0
21.216,8189.0,11.23681570348731,0.0
21.224,8170.0,9.752378528299914,0.0
21.232,8165.0,2.49268935011537,0.0
21.24,8164.5,-3.302254523053307,0.0
21.248,8169.0,-5.411510715133318,0.0
21.256,8168.0,-5.123419565728682,0.0
21.264,8268.0,16.04950955111167,0.0
21.272,8373.5,68.12166923092946,0.0
21.28,8064.5,47.01379174666113,0.0
21.288,8161.0,-16.011143117647862,1.0
21.296,8183.0,-26.64685973016435,0.0
21.304,8190.0,-22.97210263549755,0.0
21.312,8202.5,-13.33214936395325,0.0
21.32,8215.0,-0.5022650748614979,0.0
21.328,8235.5,13.903383858082861,0.0
21.336,8261.5,29.81493211674183,0.0
21.344,8281.0,44.000387402175875,0.0
21.352,8271.0,47.6595220151778,0.0
21.36,8234.0,32.99564336541289,0.0
21.368,8183.5,1.444598583200559,0.0
21.376,8158.5,-32.85836771709273,0.0
21.384,8154.5,-54.08809295117362,0.0
21.392,8153.5,-59.46442825808981,0.0
21.4,8160.5,-52.40266993873388,0.0
21.408,8171.5,-36.6040795771255,0.0
21.416,8175.0,-18.748846811363364,0.0
21.424,8176.0,-4.4273914023970065,0.0
21.432,8173.0,4.304936862699606,0.0
21.44,8172.5,8.10148927591922,0.0
21.448,8179.0,10.344287659970178,0.0
21.456,8189.0,13.473322420013119,0.0
21.464,8188.5,15.22197153856996,0.0
21.472,8169.5,9.964423113244493,0.0
21.48,8170.0,1.5648282337929231,0.0
21.488,8172.5,-3.0270222880863003,0.0
21.496,8175.5,-4.160048274700557,0.0
21.504,8168.5,-5.0166088510204645,0.0
21.512,8451.0,51.52227684620925,0.0
21.52,8100.0,63.15328886131283,0.0
21.528,8106.5,-9.924567798735325,0.0
21.536,8179.0,-35.49824500892828,0.0
21.544,8193.0,-27.568501302394225,0.0
21.552,8200.0,-14.408836435550029,0.0
21.56,8210.5,-0.8664182251484362,0.0
21.568,8225.0,12.381425415627518,0.0
21.576,8247.5,25.89813856667365,0.0
21.584,8270.5,39.2611244515449,0.0
21.592,8277.5,47.340547118205905,0.0
21.6,8256.0,41.978956685236426,0.0
21.608,8211.0,18.857610795413393,0.0
21.616,8173.5,-14.530169432600815,1.0
21.624,8161.5,-42.18559322677038,0.0
21.632,8159.5,-55.005342936456145,0.0
21.64,8159.0,-54.758214597681445,0.0
21.648,8165.5,-45.08426668968741,0.0
21.656,8173.5,-29.56544091198907,0.0
21.664,8177.0,-13.555703634840711,0.0
21.672,8180.5,-0.6022609572858073,0.0
21.68,8183.0,8.375498502864275,0.0
21.688,8188.0,13.947362396114613,0.0
21.696,8194.5,17.477428229706675,0.0
21.704,8173.5,13.952956977713939,0.0
21.712,8166.5,4.0327344381657895,0.0
21.72,8165.0,-4.18203596488479,0.0
21.728,8169.5,-7.793289150652754,0.0
21.736,8171.0,-7.521618762291837,0.0
21.744,8320.0,24.526686900278264,0.0
21.752,8225.0,50.79371131234052,0.0
21.76,8070.0,7.551853993641771,0.0
21.768,8169.0,-30.607105500435182,0.0
21.776,8188.0,-24.426355504944013,0.0
21.784,8195.0,-11.755924905040729,0.0
21.792,8206.0,1.1970986770020318,0.0
21.8,8215.5,12.864168077861905,0.0
21.808,8232.0,23.1255153965501,0.0
21.816,8258.5,34.472893633382455,0.0
21.824,8268.0,43.31204651550797,0.0
21.832,8263.0,42.8922431828405,0.0
21.84,8217.0,25.721659800768975,0.0
21.848,8177.0,-5.902573024463891,0.0
21.856,8161.5,-35.04888818888071,0.0
21.864,8159.0,-50.649560615889186,0.0
21.872,8155.5,-53.422506285711506,0.0
21.88,8166.5,-45.430683077146114,0.0
21.888,8170.5,-30.75199184813323,0.0
21.896,8169.5,-16.795770637243322,0.0
21.904,8179.0,-4.259090337791349,0.0
21.912,8181.0,6.150269570042383,0.0
21.92,8189.0,13.416902640309218,0.0
21.928,8190.5,17.621074482837912,0.0
21.936,8166.0,12.73693293914721,0.0
21.944,8165.0,2.7077192889451,0.0
21.952,8164.5,-3.9405145707605698,0.0
21.96,8164.5,-7.376991006578464,0.0
21.968,8165.5,-8.086577770340455,0.0
21.976,8373.5,35.4186667058284,0.0
21.984,8117.0,45.86911865186107,0.0
21.992,8091.0,-12.61978396317636,1.0
22.0,8174.0,-33.65156935367554,0.0
22.008,8185.5,-21.681329544858272,0.0
22.016,8194.5,-7.126837083947066,0.0
22.024,8203.5,6.2385932236443296,0.0
22.032,8215.5,17.487359613839317,0.0
22.04,8232.0,27.311144875819764,0.0
22.048,8256.5,37.35655715106236,0.0
22.056,8266.0,44.5799304348036,0.0
22.064,8249.0,40.56072165222599,0.0
22.072,8201.5,18.85688087709582,0.0
22.08,8164.5,-14.101080147356924,0.0
22.088,8154.0,-41.15876292492612,0.0
22.096,8153.0,-53.26993711600244,0.0
22.104,8156.0,-51.94751268052346,0.0
22.112,8160.5,-41.75732078390433,0.0
22.12,8164.0,-27.765548789194554,0.0
22.128,8171.5,-13.033943904745684,0.0
22.136,8176.0,0.10601257073926718,0.0
22.144,8181.0,9.801746241613955,0.0
22.152,8192.0,17.3185399141164,0.0
22.16,8177.0,18.32106093276343,0.0
22.168,8163.0,10.2115372161918,0.0
22.176,8164.0,1.211477970105534,0.0
22.184,8166.5,-3.57976370539086,0.0
22.192,8164.0,-5.8705617020582395,0.0
22.2,8214.5,3.471150152778364,0.0
22.208,8395.0,55.66304622155417,0.0
22.216,8051.5,44.789038327706976,0.0
22.224,8153.0,-17.873178371119593,0.0
22.232,8179.0,-26.17337011693735,0.0
22.24,8185.0,-20.576271607738136,0.0
22.248,8197.5,-10.36698588004515,0.0
22.256,8205.5,1.430693192275612,0.0
22.264,8221.5,13.094130954096727,0.0
22.272,8243.0,25.6679249204999,0.0
22.28,8261.0,37.282368114348856,0.0
22.288,8262.5,42.482549677948555,0.0
22.296,8223.0,31.353641185470224,0.0
22.304,8179.0,2.9593221355303285,0.0
22.312,8156.5,-27.867704321704423,1.0
22.32,8152.0,-47.389806292332196,0.0
22.328,8153.5,-52.363193688349384,0.0
22.336,8157.0,-46.34406444308365,0.0
22.344,8162.0,-34.02149713358608,0.0
22.352,8167.0,-19.532882361499787,0.0
22.36,8170.5,-6.266366942842069,0.0
22.368,8168.5,2.8359348344392856,0.0
22.376,8178.5,9.42346649908768,0.0
22.384,8184.5,15.159426303272994,0.0
22.392,8187.5,18.09202293242538,0.0
22.4,8164.5,12.997375032980244,0.0
22.408,8163.0,3.008482999780199,0.0
22.416,8165.5,-3.150751989972605,0.0
22.424,8165.0,-5.907020568701228,0.0
22.432,8155.0,-8.786657875761875,0.0
22.44,8346.0,27.82093961359692,0.0
22.448,8164.0,47.09133700710072,0.0
22.456,8096.0,0.27300964981509424,0.0
22.464,8171.0,-26.02655767983606,0.0
22.472,8184.0,-19.65567255468227,0.0
22.48,8193.0,-8.413291495636258,0.0
22.488,8202.5,3.2905536748314717,0.0
22.496,8209.0,12.982114825422968,0.0
22.504,8231.5,22.670170175515523,0.0
22.512,8255.0,34.36044267031389,0.0
22.52,8266.5,43.2151307203178,0.0
22.528,8251.5,41.18480184441364,0.0
22.536,8207.5,21.68621797742435,0.0
22.544,8165.5,-10.702969884002641,0.0
22.552,8150.5,-39.88033260691395,0.0
22.56,8150.5,-54.15396003433807,0.0
22.568,8155.5,-53.3634760959535,0.0
22.576,8160.0,-42.864594516694524,0.0
22.584,8162.5,-28.72668900931194,0.0
22.592,8168.0,-14.37584327712375,0.0
22.6,8168.0,-2.585574710593619,0.0
22.608,8171.5,5.494227212144779,0.0
22.616,8170.0,9.848220701169339,0.0
22.624,8169.0,10.419306710338333,0.0
22.632,8178.0,10.811762747788862,0.0
22.64,8182.0,12.060580468334592,0.0
22.648,8180.5,11.48135491449193,0.0
22.656,8164.5,5.822828526718695,0.0
22.664,8163.0,-1.981688609858793,0.0
22.672,8166.5,-5.888218145238625,0.0
22.68,8167.0,-6.488606602718846,0.0
22.688,8155.0,-8.209385477067144,0.0
22.696,8434.5,46.66805897141512,0.0
22.704,8090.5,58.869657394706564,0.0
22.712,8124.0,-6.275078285938207,1.0
22.72,8174.5,-26.6889223927451,0.0
22.728,8184.5,-22.355080616384384,0.0
22.736,8196.0,-12.010291923152636,0.0
22.744,8205.0,0.11666797244947702,0.0
22.752,8217.0,11.561161130791106,0.0
22.76,8235.0,22.705631756976118,0.0
22.768,8260.0,34.63894697778892,0.0
22.776,8271.5,43.90159679139674,0.0
22.784,8253.0,41.29340658581236,0.0
22.792,8199.5,18.780700004500204,0.0
22.8,8161.5,-16.074178774849315,0.0
22.808,8148.5,-44.66960342911352,0.0
22.816,8147.5,-57.6686628311536,0.0
22.824,8151.5,-56.000132682718004,0.0
22.832,8153.0,-45.39943105932821,0.0
22.84,8157.5,-31.021299030272303,0.0
22.848,8158.5,-16.691245826411887,0.0
22.856,8163.5,-4.460081158445064,0.0
22.864,8161.5,4.062512882849887,0.0
22.872,8158.5,7.46533192222023,0.0
22.88,8156.5,7.324416934469127,0.0
22.888,8159.0,6.232762394360634,0.0
22.896,8159.0,5.152951412572293,0.0
22.904,8165.0,4.958909667057924,0.0
22.912,8175.0,7.361137649585089,0.0
22.92,8164.0,7.461475139178447,0.0
22.928,8151.0,1.486347079489633,0.0
22.936,8153.5,-4.417840220870403,0.0
22.944,8152.0,-7.035469309020073,0.0
22.952,8154.5,-7.3125698218148045,0.0
22.96,8175.5,-1.5667053384975134,0.0
22.968,8460.0,64.48282228991025,0.0
22.976,8035.5,65.16593165769473,0.0
22.984,8130.5,-11.627124618859852,0.0
22.992,8160.0,-29.844149541699835,0.0
23.0,8168.5,-28.329511389957588,0.0
23.008,8173.0,-20.482757854837473,0.0
23.016,8185.0,-9.365809290924744,0.0
23.024,8197.0,3.5319227831435,0.0
23.032,8223.5,18.489720821223955,0.0
23.04,8240.0,33.317413447024364,0.0
23.048,8246.0,41.63194182801362,0.0
23.056,8213.5,34.82327457865449,0.0
23.064,8159.5,7.844999228515462,0.0
23.072,8131.0,-26.1541208232004,1.0
23.08,8123.5,-49.650700619399686,0.0
23.088,8123.5,-57.551163092098705,0.0
23.096,8128.0,-52.578694236095544,0.0
23.104,8129.5,-40.44062874913584,0.0
23.112,8136.0,-25.49651357837206,0.0
23.12,8138.0,-11.056459090842736,0.0
23.128,8143.0,0.5897608000786931,0.0
23.136,8143.0,8.40940546658976,0.0
23.144,8144.0,11.963266126277858,0.0
23.152,8142.0,12.046940284401217,0.0
23.16,8143.5,10.167816288583708,0.0
23.168,8146.0,8.332147787699569,0.0
23.176,8146.0,6.494036570423532,0.0
23.184,8153.5,5.954664212835269,0.0
23.192,8163.5,8.308147334644445,0.0
23.2,8162.5,10.279087590715562,0.0
23.208,8144.5,6.0045517394835315,0.0
23.216,8148.5,-0.2939741744003186,0.0
23.224,8151.0,-2.646386703411281,0.0
23.232,8151.5,-3.023473661190792,0.0
23.24,8159.0,-1.1536813774309849,0.0
23.248,8496.0,70.50865638234973,0.0
23.256,8039.5,77.78575173252489,0.0
23.264,8125.0,-5.499429994389857,0.0
23.272,8162.5,-28.79136927524314,0.0
23.28,8170.0,-29.007535253078913,0.0
23.288,8182.0,-20.753624648149753,0.0
23.296,8192.0,-8.231162927704872,0.0
23.304,8208.0,5.734363177176419,0.0
23.312,8230.5,20.989736884534977,0.0
23.32,8252.5,35.920834562946084,0.0
23.328,8256.0,44.51470962389476,0.0
23.336,8231.0,38.45569003750961,0.0
23.344,8182.0,13.923798324460904,0.0
23.352,8148.5,-19.55015217126902,0.0
23.36,8139.0,-45.16749292534632,0.0
23.368,8138.0,-55.61477960898196,0.0
23.376,8144.0,-52.33992657256931,0.0
23.384,8152.0,-39.60762168430074,0.0
23.392,8162.5,-22.293209359518187,0.0
23.4,8161.5,-6.732722948165019,0.0
23.408,8163.5,3.694784155231673,0.0
23.416,8163.0,9.607873012623031,0.0
23.424,8166.0,12.158949120340594,0.0
23.432,8166.5,12.539264005332143,0.0
23.44,8164.0,10.454479522669317,0.0
23.448,8168.0,7.9429701582575944,0.0
23.456,8173.0,7.092127048705379,0.0
23.464,8174.5,6.841645022062266,0.0
23.472,8186.5,8.414297351994492,0.0
23.48,8176.5,8.477256199356589,0.0
23.488,8167.0,3.2453717831594986,0.0
23.496,8171.0,-1.464447237925242,0.0
23.504,8175.0,-2.3933923611512,0.0
23.512,8168.0,-3.1928049161783747,0.0
23.52,8268.0,15.818467388090994,0.0
23.528,8354.5,62.76553984997122,0.0
23.536,8068.0,40.153799554363104,0.0
23.544,8171.0,-16.795737604517853,0.0
23.552,8186.5,-23.71952024479947,0.0
23.56,8199.0,-18.497651561500334,0.0
23.568,8212.0,-7.395313698081736,0.0
23.576,8221.5,4.888576004786728,0.0
23.584,8236.5,16.417452494697272,0.0
23.592,8262.0,29.02071484734347,0.0
23.6,8276.0,40.144263068764076,0.0
23.608,8275.0,43.292277741621774,0.0
23.616,8240.5,31.33770886185721,0.0
23.624,8189.5,2.0489094997763004,0.0
23.632,8165.0,-31.007789256510023,1.0
23.64,8159.5,-51.985344281838024,0.0
23.648,8164.5,-56.611994351681005,0.0
23.656,8172.0,-48.2113807099347,0.0
23.664,8180.5,-32.66504408535343,0.0
23.672,8184.0,-16.066950099401538,0.0
23.68,8183.0,-3.3041733381219274,0.0
23.688,8183.0,4.540362652254544,0.0
23.696,8184.0,8.695536558632284,0.0
23.704,8183.5,9.936703988982117,0.0
23.712,8179.0,8.14270262726427,0.0
23.72,8180.5,5.234300876179759,0.0
23.728,8188.5,4.661552910481305,0.0
23.736,8193.5,6.271994979965484,0.0
23.744,8205.0,9.64446289555758,0.0
23.752,8188.0,9.053065914221406,0.0
23.76,8178.5,1.9167912202740354,0.0
23.768,8182.5,-3.717852576296764,0.0
23.776,8187.0,-4.74994428762443,0.0
23.784,8181.5,-4.844474828658804,0.0
23.792,8314.0,21.780304216997365,0.0
23.8,8322.0,62.92826926265457,0.0
23.808,8085.0,30.93755079706102,0.0
23.816,8179.5,-21.785072697709666,0.0
23.824,8197.5,-26.678428419725833,0.0
23.832,8209.5,-19.398561551018474,0.0
23.84,8215.5,-8.474794547541705,0.0
23.848,8227.0,2.8456465600479532,0.0
23.856,8248.5,15.851030363087602,0.0
23.864,8273.0,30.537027521098935,0.0
23.872,8290.5,43.17316283446985,0.0
23.88,8279.5,45.42854670588895,0.0
23.888,8240.5,29.659831899017718,0.0
23.896,8195.5,-1.3238098875606283,0.0
23.904,8171.0,-33.645686644855914,0.0
23.912,8166.5,-53.58443194668712,0.0
23.92,8167.0,-58.06934397890973,0.0
23.928,8174.5,-50.28330899946195,0.0
23.936,8179.0,-35.6035076951307,0.0
23.944,8183.0,-19.787428386740203,0.0
23.952,8182.0,-6.820914981468832,0.0
23.96,8179.0,1.0643875942757859,0.0
23.968,8181.5,5.464218402945562,0.0
23.976,8181.0,7.646432731595041,0.0
23.984,8181.5,7.777701231394758,0.0
23.992,8184.5,7.391194780260321,0.0
24.0,8199.0,9.617287557061218,0.0
24.008,8187.0,9.986452905040096,0.0
24.016,8177.0,4.196094413402307,0.0
24.024,8176.0,-2.11180056142166,0.0
24.032,8181.0,-4.704902061442226,0.0
24.04,8182.0,-4.299334381070366,0.0
24.048,8266.5,14.060067993397979,0.0
24.056,8394.5,66.20004118872725,0.0
24.064,8070.0,46.85371576891748,0.0
24.072,8169.0,-17.761081416791512,0.0
24.08,8189.0,-28.969578271488217,0.0
24.088,8204.0,-24.055605974951504,0.0
24.096,8211.5,-12.905608507729085,0.0
24.104,8220.5,-0.9839122057917393,0.0
24.112,8240.5,12.140455941744904,0.0
24.12,8264.0,26.948635064120026,1.0
24.128,8283.0,40.3032216539043,0.0
24.136,8281.0,45.5637720391519,0.0
24.144,8242.0,33.390513416291014,0.0
24.152,8191.0,2.7417981906507976,0.0
24.16,8166.5,-31.224202669415263,0.0
24.168,8164.5,-51.99165374696577,0.0
24.176,8161.0,-57.514596220584735,0.0
24.184,8166.0,-51.7545123989446,0.0
24.192,8174.5,-37.743352232236475,0.0
24.2,8179.5,-20.976776379392277,0.0
24.208,8181.0,-6.552768805547657,0.0
24.216,8181.0,3.277493826991531,0.0
24.224,8178.5,8.083436130970085,0.0
24.232,8183.0,10.108719804998145,0.0
24.24,8192.0,12.531929118560356,0.0
24.248,8193.0,14.108030980052263,0.0
24.256,8175.0,9.428076989148167,0.0
24.264,8171.0,0.7363340240997331,0.0
24.272,8173.0,-4.924187014170002,0.0
24.28,8173.0,-7.116643301813156,0.0
24.288,8171.0,-7.742892858786718,0.0
24.296,8450.0,49.6519864672382,0.0
24.304,8082.0,57.88462290243615,0.0
24.312,8116.5,-14.156926457784948,0.0
24.32,8180.0,-34.594342048373164,0.0
24.328,8190.0,-26.4199747615653,0.0
24.336,8200.5,-13.39192050497445,0.0
24.344,8212.0,0.8378406586336951,0.0
24.352,8221.5,13.416588728627858,0.0
24.36,8242.0,24.950551115311328,0.0
24.368,8266.5,37.18245649720075,0.0
24.376,8270.0,44.49950896787527,0.0
24.384,8252.0,39.117788975547455,0.0
24.392,8207.0,17.1333781790579,0.0
24.4,8170.0,-15.218456080389842,0.0
24.408,8162.5,-41.13536663513196,0.0
24.416,8158.0,-52.67758758014611,0.0
24.424,8161.0,-51.82354519939031,0.0
24.432,8167.0,-41.62269737469569,0.0
24.44,8174.0,-26.623529858047277,0.0
24.448,8180.5,-10.958544411716275,0.0
24.456,8180.5,1.2951021955796023,0.0
24.464,8181.5,8.549836642514265,0.0
24.472,8186.5,12.769823427312076,0.0
24.48,8197.5,16.598273883740376,0.0
24.488,8178.0,14.609361927499776,0.0
24.496,8166.5,4.8848454127899,0.0
24.504,8171.0,-3.036923614982925,0.0
24.512,8172.0,-6.1377567582496795,0.0
24.52,8172.0,-6.836727171452139,0.0
24.528,8328.0,25.657360005653572,0.0
24.536,8186.0,43.84456250984272,0.0
24.544,8081.5,-2.407062297181028,0.0
24.552,8171.0,-32.459770266160604,0.0
24.56,8188.0,-23.55357011579008,0.0
24.568,8197.5,-9.30148694221316,0.0
24.576,8205.5,4.112651186182575,0.0
24.584,8218.0,15.61039079552802,0.0
24.592,8228.0,24.64018409065966,0.0
24.6,8253.5,33.497325473672845,0.0
24.608,8262.0,40.60306238535827,0.0
24.616,8253.0,38.54732955353029,0.0
24.624,8212.0,21.272301178219323,0.0
24.632,8177.5,-7.593966303616071,0.0
24.64,8158.5,-34.44418847669772,0.0
24.648,8157.5,-49.1872365564941,0.0
24.656,8159.5,-50.244584419058356,0.0
24.664,8167.5,-41.20921790036164,0.0
24.672,8169.5,-27.574904948370886,0.0
24.68,8175.5,-13.696507081907612,0.0
24.688,8176.5,-1.98218755355947,0.0
24.696,8183.0,6.778420915338984,0.0
24.704,8189.5,13.587652417338631,0.0
24.712,8183.5,15.656722626126339,0.0
24.72,8164.5,9.399102775219944,0.0
24.728,8165.0,0.4937765393854079,0.0
24.736,8170.0,-3.7240265331586215,0.0
24.744,8168.5,-4.938769052868338,0.0
24.752,8182.5,-2.3546297896095894,0.0
24.76,8425.5,52.03592742454748,0.0
24.768,8048.0,48.83469162214351,0.0
24.776,8134.5,-19.913969494044295,1.0
24.784,8180.0,-30.584912702166775,0.0
24.792,8187.5,-21.430713461607183,0.0
24.8,8197.0,-9.294671991649466,0.0
24.808,8204.5,2.764858922637586,0.0
24.816,8217.0,13.563676862396733,0.0
24.824,8241.0,25.350646565174657,0.0
24.832,8259.0,37.05861839107888,0.0
24.84,8258.5,41.939434083955575,0.0
24.848,8232.0,32.95130494404043,0.0
24.856,8188.0,8.236725306041308,0.0
24.864,8169.0,-20.49917305667077,0.0
24.872,8158.5,-40.41249369441448,0.0
24.88,8156.5,-48.615947942410685,0.0
24.888,8162.5,-45.27950241820963,0.0
24.896,8167.0,-34.29626835857448,0.0
24.904,8175.5,-19.945172028567868,0.0
24.912,8175.5,-6.697476809865975,0.0
24.92,8182.0,3.480560198124067,0.0
24.928,8185.5,11.015148739404594,0.0
24.936,8193.0,16.048374482601275,0.0
24.944,8178.5,15.1617871211472,0.0
24.952,8169.5,7.537685556861106,0.0
24.96,8169.0,-0.0548554712920577,0.0
24.968,8171.0,-4.230303744891216,0.0
24.976,8168.0,-6.262593814554975,0.0
24.984,8267.5,13.20002587629233,0.0
24.992,8276.5,44.87554678297215,0.0
25.0,8069.5,16.353171835894727,0.0
25.008,8170.5,-24.650134936158565,0.0
25.016,8188.0,-20.95252386999914,0.0
25.024,8195.0,-10.583742654780735,0.0
25.032,8203.0,0.21747013779918234,0.0
25.04,8214.5,10.556184610508126,0.0
25.048,8230.5,20.688313786933804,0.0
25.056,8249.0,30.592224152367635,0.0
25.064,8263.5,38.553165340844316,0.0
25.072,8253.0,38.233341205621855,0.0
25.08,8215.0,22.33898194780909,0.0
25.088,8178.0,-5.77033107716602,0.0
25.096,8163.0,-32.14292502148237,0.0
25.104,8161.0,-46.33950078401358,0.0
25.112,8162.5,-47.81186741178976,0.0
25.12,8166.0,-40.412275040949226,0.0
25.128,8174.0,-27.559730930991464,0.0
25.136,8176.0,-13.73736878042223,0.0
25.144,8178.5,-2.5607456270195144,0.0
25.152,8176.0,4.437330142861356,0.0
25.16,8189.0,10.048387645730827,0.0
25.168,8194.0,15.520718466985954,0.0
25.176,8192.0,17.01682424792989,0.0
25.184,8171.5,10.724898779949854,0.0
25.192,8167.5,0.3724729896196095,0.0
25.2,8170.5,-6.01070668176817,0.0
25.208,8175.5,-7.240007941547674,0.0
25.216,8181.5,-4.622034951482647,0.0
25.224,8474.0,58.61078106718378,0.0
25.232,8050.0,60.25491959899091,0.0
25.24,8147.0,-14.714466158470941,1.0
25.248,8184.0,-29.44404009321738,0.0
25.256,8193.5,-24.191033485048592,0.0
25.264,8202.0,-13.739352985164714,0.0
25.272,8211.0,-1.8999338583066674,0.0
25.28,8223.5,9.782399216035628,0.0
25.288,8240.5,21.235058866133386,0.0
25.296,8264.0,33.0628407149743,0.0
25.304,8264.0,39.846123863445655,0.0
25.312,8235.5,31.99403014166751,0.0
25.32,8192.5,7.892133311991984,0.0
25.328,8165.0,-21.96143741651872,0.0
25.336,8159.0,-43.13125440925228,0.0
25.344,8161.0,-49.92904530839155,0.0
25.352,8164.0,-45.357910912963234,0.0
25.36,8169.5,-34.04119788569642,0.0
25.368,8174.5,-20.042306399162044,0.0
25.376,8176.5,-7.2946290635898094,0.0
25.384,8176.0,1.6567294012800176,0.0
25.392,8176.5,6.6993683077967034,0.0
25.4,8171.5,7.746519623194672,0.0
25.408,8180.5,8.008542671284658,0.0
25.416,8185.5,9.809524612582209,0.0
25.424,8195.0,12.34974459820387,0.0
25.432,8176.5,10.140952040238972,0.0
25.44,8169.5,2.087516715475431,0.0
25.448,8175.5,-3.1960646570034896,0.0
25.456,8177.0,-4.3039486612592555,0.0
25.464,8169.0,-5.634575374285532,0.0
25.472,8304.0,20.37896700173019,0.0
25.48,8234.5,46.055345128606405,0.0
25.488,8085.5,9.618048778673256,0.0
25.496,8177.5,-25.03426491846176,0.0
25.504,8190.5,-20.28050950671536,0.0
25.512,8199.5,-9.899763637003844,0.0
25.52,8205.5,0.8048257400962484,0.0
25.528,8219.0,10.99734724203995,0.0
25.536,8234.0,21.180433498677985,0.0
25.544,8258.0,31.95922234967111,0.0
25.552,8266.5,40.128161757996395,0.0
25.56,8258.0,38.87535608261942,0.0
25.568,8219.0,22.536196871016045,0.0
25.576,8180.0,-6.478972696413393,0.0
25.584,8163.0,-34.097053569833406,0.0
25.592,8157.5,-49.85759382914625,0.0
25.6,8162.0,-51.823652462761856,0.0
25.608,8169.0,-42.779839405602615,0.0
25.616,8175.0,-28.28950395280799,0.0
25.624,8180.0,-13.183611673885935,0.0
25.632,8175.0,-2.2512207415622925,0.0
25.64,8176.0,3.7382855721091346,0.0
25.648,8177.5,7.224453574981226,0.0
25.656,8172.5,7.475802263928472,0.0
25.664,8175.0,5.980277539813869,0.0
25.672,8179.5,5.619251790523322,0.0
25.68,8182.0,5.983902629558088,0.0
25.688,8193.5,8.152537805335669,0.0
25.696,8181.5,8.096893701387444,0.0
25.704,8171.0,2.2396326667037556,0.0
25.712,8170.5,-3.811205667941067,0.0
25.72,8174.5,-6.096784833864831,0.0
25.728,8171.0,-6.421977628392597,0.0
25.736,8309.0,21.83781236751929,0.0
25.744,8247.5,50.86874852404594,0.0
25.752,8082.5,14.051156898498903,0.0
25.76,8177.5,-24.154085030615306,0.0
25.768,8189.5,-21.226369529477324,0.0
25.776,8202.5,-11.169234635705834,0.0
25.784,8207.0,0.04719059204785481,0.0
25.792,8220.0,10.24867575482449,0.0
25.8,8237.0,20.857021776536612,0.0
25.808,8259.0,31.93634158596865,0.0
25.816,8271.5,40.695085150109435,0.0
25.824,8262.5,40.42018928727248,0.0
25.832,8221.5,23.914397317651492,0.0
25.84,8179.0,-6.5319245770701855,1.0
25.848,8160.5,-36.00986256883016,0.0
25.856,8160.0,-51.8652619546815,0.0
25.864,8160.0,-53.48088352191144,0.0
25.872,8169.0,-44.48931883252567,0.0
25.88,8171.5,-30.077156955831924,0.0
25.888,8176.5,-15.46151999021913,0.0
25.896,8174.5,-3.8608049810673037,0.0
25.904,8177.0,3.687332768583019,0.0
25.912,8172.5,7.183644170215757,0.0
25.92,8175.5,7.855780484523166,0.0
25.928,8173.5,7.266552570082467,0.0
25.936,8175.0,5.714238600559611,0.0
25.944,8175.0,4.236307894880156,0.0
25.952,8181.0,3.9457927778553312,0.0
25.96,8193.0,6.853168694817896,0.0
25.968,8186.0,8.555068875190727,0.0
25.976,8174.0,4.38280475341071,0.0
25.984,8173.5,-1.3029106064964253,0.0
25.992,8178.0,-3.6506933728576314,0.0
26.0,8178.0,-3.566326314794651,0.0
26.008,8212.0,3.9704934148203392,0.0
26.016,8466.0,66.66441990889143,0.0
26.024,8064.5,63.500020166159175,0.0
26.032,8158.5,-10.821256675087625,0.0
26.04,8186.0,-28.31155688008016,0.0
26.048,8195.5,-26.803794889998017,0.0
26.056,8205.5,-17.864469177741285,0.0
26.064,8218.0,-5.272533752027812,0.0
26.072,8228.5,7.67261340958521,0.0
26.08,8252.0,21.111321369425468,0.0
26.088,8269.5,34.23455939163068,0.0
26.096,8266.0,39.66546897275771,0.0
26.104,8239.0,30.632371517958745,0.0
26.112,8193.0,5.73202331078096,0.0
26.12,8166.0,-24.777004133826722,0.0
26.128,8160.5,-45.703283175766956,0.0
26.136,8157.0,-52.988600333932254,0.0
26.144,8168.0,-47.73117144836124,0.0
26.152,8168.5,-35.035868208268084,0.0
26.16,8176.5,-20.4794786297482,0.0
26.168,8175.5,-7.335817371360463,0.0
26.176,8175.5,1.3452179055152556,0.0
26.184,8178.5,6.888119416883001,0.0
26.192,8170.5,8.100357903850636,0.0
26.2,8172.0,6.26120851802375,0.0
26.208,8175.5,5.245769609438412,0.0
26.216,8174.5,4.360672182619737,0.0
26.224,8184.0,4.912654656166524,0.0
26.232,8188.0,7.252340876820654,0.0
26.24,8192.5,9.273043977332236,0.0
26.248,8175.5,6.508421234811749,0.0
26.256,8175.0,0.31140999622425625,0.0
26.264,8177.5,-2.992104016426538,0.0
26.272,8180.0,-3.4706543497256916,0.0
26.28,8164.0,-5.985537190764489,0.0
26.288,8475.0,53.70338649990026,0.0
26.296,8102.5,68.29674959310273,0.0
26.304,8127.0,-4.524039765775569,0.0
26.312,8180.5,-30.968772416935963,0.0
26.32,8192.0,-28.63335869307184,0.0
26.328,8198.5,-19.23362887862322,0.0
26.336,8212.5,-6.570432103004578,0.0
26.344,8228.0,7.941590971127653,0.0
26.352,8245.0,21.959715352830244,0.0
26.36,8270.0,35.50129357412038,1.0
26.368,8275.5,44.35852060633806,0.0
26.376,8258.5,40.52193528323619,0.0
26.384,8210.0,18.727677368019158,0.0
26.392,8171.0,-14.87706989989374,0.0
26.4,8156.5,-43.42541673549658,0.0
26.408,8156.5,-56.68741819381785,0.0
26.416,8160.0,-55.22100940094401,0.0
26.424,8168.5,-43.53001094194087,0.0
26.432,8172.0,-27.56470037140957,0.0
26.44,8175.0,-12.615752726992696,0.0
26.448,8175.0,-1.2493702389317605,0.0
26.456,8177.0,6.070710549612386,0.0
26.464,8176.0,9.683703709586098,0.0
26.472,8172.5,9.432904414962877,0.0
26.48,8173.0,7.241540002358761,0.0
