Time_Seconds,ECG_Raw,ECG_Filtered,R_Peak_Marker
0.0,8145.0,10.255947322905968,0.0
0.008,8153.0,26.656728909082403,0.0
0.016,8166.0,36.6049666665474,0.0
0.024,8173.0,41.024609549302795,0.0
0.032,8179.5,40.17662515149118,0.0
0.04,8176.0,34.19678045288106,0.0
0.048,8177.0,24.964922538352994,0.0
0.056,8177.5,16.026691294220655,0.0
0.064,8169.0,6.676393906807107,0.0
0.072,8179.0,0.4408745623463801,0.0
0.08,8170.0,-3.1093422612891572,0.0
0.088,8168.5,-6.882680305205213,0.0
0.096,8170.5,-7.9685802177070855,0.0
0.104,8172.0,-6.687595932777413,0.0
0.112,8171.0,-4.813955046091451,0.0
0.12,8303.5,23.889523887264886,0.0
0.128,8252.5,53.89329738771903,0.0
0.136,8078.0,17.396783679940427,0.0
0.144,8176.0,-22.453765165964796,0.0
0.152,8192.0,-19.32676425402019,0.0
0.16,8196.5,-10.359128587887426,0.0
0.168,8200.5,-1.7485604648261415,0.0
0.176,8222.0,8.818488752973508,0.0
0.184,8240.5,21.902870227812855,0.0
0.192,8271.5,36.43310900752772,0.0
0.2,8280.0,47.57246146443208,0.0
0.208,8272.5,47.1520102891825,0.0
0.216,8238.0,31.173920219415322,0.0
0.224,8191.0,0.3476526474159982,0.0
0.232,8167.5,-32.33886753248862,0.0
0.24,8158.5,-53.40644444078839,0.0
0.248,8160.0,-59.30098351589959,0.0
0.256,8160.5,-53.38767350007538,0.0
0.264,8165.5,-40.67269570923531,0.0
0.272,8168.5,-25.3522114627076,0.0
0.28,8169.0,-11.73295494975605,0.0
0.288,8170.5,-1.4910929921220486,0.0
0.296,8172.0,5.404897055464289,0.0
0.304,8179.0,10.400285017267151,0.0
0.312,8179.0,13.207849024490088,0.0
0.32,8177.0,12.457170290621889,1.0
0.328,8184.5,11.248220604715016,0.0
0.336,8161.5,5.661223965159934,0.0
0.344,8170.0,-1.4635869643175283,0.0
0.352,8174.5,-2.799380626941911,0.0
0.36,8177.0,-1.7348418812709951,0.0
0.368,8181.5,0.587852854379662,0.0
0.376,8503.5,68.57658439445527,0.0
0.384,8059.5,73.46328794037731,0.0
0.392,8142.5,-8.537222784799269,0.0
0.4,8192.5,-28.565836266603128,0.0
0.408,8199.0,-24.536810733530956,0.0
0.416,8195.5,-17.8210790758651,0.0
0.424,8207.5,-9.41096350002067,0.0
0.432,8239.5,5.978814404470995,0.0
0.44,8256.0,24.0824348296685,0.0
0.448,8272.0,37.77748151672972,0.0
0.456,8272.5,43.52016104737231,0.0
0.464,8255.5,36.94723854967492,0.0
0.472,8215.5,15.813238565721576,0.0
0.48,8172.5,-16.03981621786761,0.0
0.488,8160.0,-43.78453058843479,0.0
0.496,8163.5,-55.39316469925575,0.0
0.504,8158.5,-54.166685410774335,0.0
0.512,8167.0,-44.51398583326636,0.0
0.52,8180.0,-27.66408182221312,0.0
0.528,8183.5,-10.133911431421893,0.0
0.536,8181.0,1.9741238500866984,0.0
0.544,8184.0,8.937645889219084,0.0
0.552,8187.0,12.926613676839679,0.0
0.56,8190.0,14.551660383695207,0.0
0.568,8191.0,14.12371014999485,0.0
0.576,8184.0,10.503494973946317,0.0
0.584,8198.0,8.20015764146342,0.0
0.592,8187.0,6.20762952444079,0.0
0.6,8169.5,-1.7344717191272139,0.0
0.608,8180.0,-7.5985566859149,0.0
0.616,8176.0,-8.586580626852538,0.0
0.624,8177.5,-8.379821442923003,0.0
0.632,8322.5,22.94300619931255,0.0
0.64,8323.0,67.71461421684376,0.0
0.648,8083.5,35.098237597331035,1.0
0.656,8179.0,-18.931659564128495,0.0
0.664,8207.0,-22.78343682138211,0.0
0.672,8217.5,-13.74155185994141,0.0
0.68,8220.5,-3.5527534121597455,0.0
0.688,8222.5,4.033028666209475,0.0
0.696,8245.0,12.91316312725121,0.0
0.704,8256.0,23.05114967152622,0.0
0.712,8278.5,32.39598944057798,0.0
0.72,8267.5,35.36035736919689,0.0
0.728,8224.5,20.72018761075401,0.0
0.736,8176.5,-9.67078467186434,0.0
0.744,8171.5,-37.00569416005578,0.0
0.752,8176.5,-47.561014536689754,0.0
0.76,8194.0,-41.99583387030657,0.0
0.768,8210.0,-25.49345347352437,0.0
0.776,8211.5,-8.293600029597428,0.0
0.784,8200.5,1.194914768362878,0.0
0.792,8222.0,8.770402249231893,0.0
0.8,8214.5,14.781048094488824,0.0
0.808,8221.0,15.890451955109256,0.0
0.816,8212.5,13.728769841817893,0.0
0.824,8193.5,4.75063838034157,0.0
0.832,8189.5,-5.978185576015903,0.0
0.84,8207.0,-8.658769751537648,0.0
0.848,8194.5,-7.909786994348451,0.0
0.856,8156.5,-16.584814382391414,0.0
0.864,8129.5,-32.48031123878127,0.0
0.872,8127.5,-42.88120721479254,0.0
0.88,8127.0,-43.04173484794592,0.0
0.888,8114.5,-39.26694629659323,0.0
0.896,8437.5,32.35419591965183,0.0
0.904,8062.0,59.07975008266021,0.0
0.912,8076.5,-7.824586276197124,0.0
0.92,8126.0,-33.13014810832851,0.0
0.928,8153.5,-27.34173068197265,0.0
0.936,8165.5,-11.703258500215725,0.0
0.944,8192.0,7.185242029757774,0.0
0.952,8228.0,30.035304119844568,0.0
0.96,8249.5,50.74238394112558,1.0
0.968,8264.0,62.650202142759326,0.0
0.976,8252.5,60.80685853412729,0.0
0.984,8248.0,47.22885748829458,0.0
0.992,8213.0,23.968515234909773,0.0
1.0,8188.5,-5.577421693903943,0.0
1.008,8180.0,-28.947164324329606,0.0
1.016,8169.5,-42.26097546168876,0.0
1.024,8166.5,-46.48553984099135,0.0
1.032,8174.5,-40.9146795981319,0.0
1.04,8181.5,-28.35242130777533,0.0
1.048,8182.0,-15.092304555484816,0.0
1.056,8173.0,-6.698678863163423,0.0
1.064,8182.5,-0.616953270986869,0.0
1.072,8177.5,3.9926603253138637,0.0
1.08,8177.0,4.989789240531763,0.0
1.088,8162.0,1.6563159147685838,0.0
1.096,8167.5,-2.5070695883316603,0.0
1.104,8172.0,-2.5461793263864365,0.0
1.112,8152.5,-5.247790285863175,0.0
1.12,8157.0,-9.114403968442275,0.0
1.128,8145.5,-11.449367472692984,0.0
1.136,8159.5,-10.583649727786224,0.0
1.144,8147.5,-8.058457809525862,0.0
1.152,8407.5,45.323298276070545,0.0
1.16,8176.5,75.94635773367804,0.0
1.168,8068.0,13.182290498648854,0.0
1.176,8146.5,-32.06389095667191,0.0
1.184,8168.5,-33.42891090002536,0.0
1.192,8163.5,-25.694849961392492,0.0
1.2,8188.5,-13.139280044069665,0.0
1.208,8196.5,3.020060451628524,0.0
1.216,8222.0,18.96286858288022,0.0
1.224,8249.0,36.2422175992931,0.0
1.232,8255.5,47.810525762864245,0.0
1.24,8263.0,50.263575643636614,0.0
1.248,8210.5,34.90021685323518,0.0
1.256,8159.5,-0.622068341124077,0.0
1.264,8141.0,-35.73448362879776,0.0
1.272,8141.5,-54.75955347188642,0.0
1.28,8138.0,-58.321656226059986,0.0
1.288,8163.0,-47.193558718036,0.0
1.296,8163.5,-28.247648628421985,0.0
1.304,8164.0,-12.556090858965263,0.0
1.312,8146.5,-4.84559189663878,0.0
1.32,8147.5,-2.9219301964674287,0.0
1.328,8157.0,0.8038779235223501,0.0
1.336,8155.0,4.417693503810369,0.0
1.344,8159.0,6.293725249556246,0.0
1.352,8161.5,7.776959653473341,0.0
1.36,8179.5,11.663230054252836,0.0
1.368,8151.0,10.04812196438047,0.0
1.376,8153.0,2.155563966215368,0.0
1.384,8141.0,-4.8818990056440725,0.0
1.392,8141.0,-10.755299384226191,0.0
1.4,8142.0,-12.3938875244055,0.0
1.408,8355.5,32.33864060287965,0.0
1.416,8270.5,80.14312029023768,0.0
1.424,8067.5,37.42533036530472,0.0
1.432,8147.5,-18.641023392878196,1.0
1.44,8153.5,-31.402502509467922,0.0
1.448,8173.0,-28.97895916178959,0.0
1.456,8182.0,-17.32955386761182,0.0
1.464,8198.5,-2.60307884696158,0.0
1.472,8209.5,12.119064349001064,0.0
1.48,8222.0,23.789391732872218,0.0
1.488,8245.5,34.439281198674735,0.0
1.496,8237.0,38.58071910303329,0.0
1.504,8211.0,28.132287811280776,0.0
1.512,8172.5,4.510512712401351,0.0
1.52,8134.5,-25.772226164085396,0.0
1.528,8125.0,-49.47830347753984,0.0
1.536,8121.5,-58.652454411808094,0.0
1.544,8129.0,-54.36842446119431,0.0
1.552,8143.5,-39.097343191961045,0.0
1.56,8137.5,-22.40187518640323,0.0
1.568,8147.0,-8.416761348859382,0.0
1.576,8136.0,0.8236410498409441,0.0
1.584,8155.5,7.900083096272283,0.0
1.592,8175.5,18.957215970362085,0.0
1.6,8166.5,24.869557488533474,0.0
1.608,8157.5,20.91817321550093,0.0
1.616,8145.5,11.119571793838077,0.0
1.624,8133.0,-1.366533461809695,0.0
1.632,8127.0,-12.323178172305461,0.0
1.64,8140.5,-15.402324341501298,0.0
1.648,8151.0,-9.984932355400815,0.0
1.656,8150.0,-3.3264042331363726,0.0
1.664,8407.5,53.51892189899786,0.0
1.672,8129.5,74.83488689117189,0.0
1.68,8082.5,9.697493384258905,0.0
1.688,8163.0,-23.45083059727358,0.0
1.696,8184.5,-18.660587953213508,0.0
1.704,8180.5,-9.423216532025435,0.0
1.712,8181.0,-3.2466323343944623,0.0
1.72,8195.0,3.860779113146009,0.0
1.728,8212.5,13.914226807246905,0.0
1.736,8244.0,27.760998569967796,1.0
1.744,8263.0,42.05825313043488,0.0
1.752,8262.5,47.9166635486049,0.0
1.76,8219.0,35.1273497655593,0.0
1.768,8175.0,4.361727703317229,0.0
1.776,8157.0,-27.160950974041725,0.0
1.784,8150.5,-46.690860609696756,0.0
1.792,8136.0,-55.45224869881713,0.0
1.8,8127.5,-56.92542269779892,0.0
1.808,8155.0,-45.28437371180189,0.0
1.816,8161.5,-24.588002939171247,0.0
1.824,8163.0,-6.985965320502601,0.0
1.832,8152.0,2.542147678830588,0.0
1.84,8144.0,3.9099227425995196,0.0
1.848,8178.5,9.540004065913308,0.0
1.856,8195.0,21.842589696517052,0.0
1.864,8200.5,30.301342274626677,0.0
1.872,8157.0,22.946362130930538,0.0
1.88,8138.5,2.451048546966149,0.0
1.888,8149.5,-11.57371019086031,0.0
1.896,8172.0,-11.269140698229648,0.0
1.904,8175.5,-4.068662625757042,0.0
1.912,8491.5,66.08065887793578,0.0
1.92,8047.5,71.39773858948092,0.0
1.928,8127.5,-10.647989191515535,0.0
1.936,8171.0,-32.324184694808764,0.0
1.944,8184.0,-28.699726469764755,0.0
1.952,8195.0,-17.3017907783194,0.0
1.96,8221.5,-0.2766337865866717,0.0
1.968,8236.0,18.210290734237788,0.0
1.976,8246.5,31.490053005840537,0.0
1.984,8280.0,43.55865506181317,0.0
1.992,8280.0,50.93607778473779,0.0
2.0,8250.5,41.54968848906469,0.0
2.008,8196.5,12.640051299414381,0.0
2.016,8169.0,-23.02395862805497,0.0
2.024,8152.0,-49.71627809415418,0.0
2.032,8159.0,-60.007505480669806,0.0
2.04,8152.5,-56.8937238510066,0.0
2.048,8158.5,-46.52862886147159,0.0
2.056,8151.0,-33.650890674248785,0.0
2.064,8177.0,-17.153580067457142,0.0
2.072,8169.0,-1.1189977246435774,0.0
2.08,8169.0,6.899074506987745,0.0
2.088,8177.5,12.331525084436862,0.0
2.096,8180.5,16.02412212184163,0.0
2.104,8177.0,15.676321456048527,0.0
2.112,8158.0,8.497148801169942,0.0
2.12,8158.5,-0.816435375006904,0.0
2.128,8157.0,-6.404993287095522,0.0
2.136,8157.5,-8.943285463823258,0.0
2.144,8171.0,-6.228308094172007,0.0
2.152,8380.0,41.7785434758714,0.0
2.16,8096.0,48.513034204947644,0.0
2.168,8101.0,-11.859277667842207,0.0
2.176,8186.0,-27.37828271746548,0.0
2.184,8191.5,-13.916101301239905,0.0
2.192,8192.0,-2.6189392440630854,0.0
2.2,8193.5,4.867847522620195,0.0
2.208,8210.0,12.2349125691901,0.0
2.216,8219.5,20.048646964254885,0.0
2.224,8237.0,27.146187336454204,0.0
2.232,8233.5,30.088190132301406,0.0
2.24,8226.0,25.01905189911099,0.0
2.248,8167.5,4.744133921587036,0.0
2.256,8132.0,-27.169963329069105,1.0
2.264,8119.0,-51.83321066748613,0.0
2.272,8107.5,-63.56585812990238,0.0
2.28,8102.0,-64.3403061195163,0.0
2.288,8109.0,-54.73711230065305,0.0
2.296,8111.0,-38.920299576558364,0.0
2.304,8121.5,-21.111725492911773,0.0
2.312,8141.5,-1.1478022215253532,0.0
2.32,8136.0,13.795211405826421,0.0
2.328,8142.5,20.74526897376836,0.0
2.336,8135.5,21.608143506807437,0.0
2.344,8141.0,18.53594523991387,0.0
2.352,8123.0,11.355023859067387,0.0
2.36,8118.0,0.6877641882597345,0.0
2.368,8118.5,-6.644462473302838,0.0
2.376,8125.5,-8.441094112107066,0.0
2.384,8141.5,-3.5249306408491066,0.0
2.392,8306.5,36.895350621183525,0.0
2.4,8214.0,70.01787743701539,0.0
2.408,8081.5,33.023263049022034,0.0
2.416,8200.0,3.2777810817101454,0.0
2.424,8216.5,12.770013064010755,0.0
2.432,8235.0,23.598147548959105,0.0
2.44,8242.5,31.735952155401947,0.0
2.448,8266.0,38.07041699579236,0.0
2.456,8274.0,42.48016044519545,0.0
2.464,8283.0,42.120695727499196,0.0
2.472,8266.5,33.98985806107726,0.0
2.48,8242.5,15.753847005103353,0.0
2.488,8225.0,-5.89785323402748,0.0
2.496,8191.5,-28.227790934334962,0.0
2.504,8174.5,-47.47120461273016,0.0
2.512,8181.5,-53.69754103611331,0.0
2.52,8177.0,-48.72785303291744,0.0
2.528,8167.5,-41.26128160342637,0.0
2.536,8189.5,-28.036105948207478,0.0
2.544,8203.0,-8.7114750209455,0.0
2.552,8217.5,9.758265370074241,0.0
2.56,8215.0,21.653381068188082,0.0
2.568,8216.0,25.09877349029557,0.0
2.576,8215.5,23.433252987007563,0.0
2.584,8228.0,21.34711905217023,0.0
2.592,8210.0,15.753253130228131,0.0
2.6,8200.0,4.3362478480109985,0.0
2.608,8207.0,-3.686079083250206,0.0
2.616,8217.0,-4.398502894129706,0.0
2.624,8219.5,-1.5992039012728583,0.0
2.632,8296.0,16.438520215489007,0.0
2.64,8395.0,60.468521489556906,0.0
2.648,8106.0,38.52289344179462,1.0
2.656,8212.5,-17.5811405905431,0.0
2.664,8234.5,-21.842809469517533,0.0
2.672,8239.0,-15.63755383822945,0.0
2.68,8243.0,-7.860381142018014,0.0
2.688,8254.5,1.097415306642688,0.0
2.696,8271.5,12.051233737312486,0.0
2.704,8285.0,22.933369758922026,0.0
2.712,8311.0,33.96196007282856,0.0
2.72,8306.0,39.62553349695577,0.0
2.728,8284.5,31.55329104204725,0.0
2.736,8239.0,8.307373573640689,0.0
2.744,8205.0,-22.94163511542888,0.0
2.752,8191.5,-47.64831381683007,0.0
2.76,8193.5,-57.38521555868283,0.0
2.768,8207.5,-51.17451398427215,0.0
2.776,8217.0,-34.94178558412091,0.0
2.784,8208.0,-19.942039228468275,0.0
2.792,8188.5,-13.870338922546807,0.0
2.8,8196.0,-10.628248164222214,0.0
2.808,8198.5,-5.056504919734152,0.0
2.816,8216.0,3.0912571656281216,0.0
2.824,8230.0,13.8766351220886,0.0
2.832,8224.5,19.887785194330036,0.0
2.84,8206.0,15.524326673487394,0.0
2.848,8188.5,3.2352836583968383,0.0
2.856,8199.0,-5.9530490812994685,0.0
2.864,8198.0,-8.543603577440308,0.0
2.872,8206.0,-7.350236319041642,0.0
2.88,8206.5,-3.793541298983655,0.0
2.888,8511.0,61.1967793217741,0.0
2.896,8067.5,61.955979136429505,0.0
2.904,8186.5,-13.283906562978927,0.0
2.912,8238.0,-20.93336335073309,0.0
2.92,8232.5,-12.885656595962473,0.0
2.928,8220.0,-9.850053290615733,0.0
2.936,8236.5,-5.744214859445265,0.0
2.944,8261.0,5.931195790542915,0.0
2.952,8283.5,21.538913852421274,1.0
2.96,8309.0,37.31017857574466,0.0
2.968,8283.0,40.878464658724624,0.0
2.976,8258.0,26.371743376134873,0.0
2.984,8220.0,0.9232728205288367,0.0
2.992,8197.5,-26.62708963927753,0.0
3.0,8199.5,-43.07151439520112,0.0
3.008,8192.0,-47.39022464349523,0.0
3.016,8186.5,-45.415296055272165,0.0
3.024,8192.0,-37.361831603914425,0.0
3.032,8202.0,-23.76786855718956,0.0
3.04,8203.0,-9.877622738429181,0.0
3.048,8189.5,-2.7191503670458133,0.0
3.056,8184.0,-1.9551019787168116,0.0
3.064,8187.0,-1.7175805452554869,0.0
3.072,8185.0,-1.1124044527095975,0.0
3.08,8187.5,-0.48370025185613486,0.0
3.088,8193.0,1.5958556379723632,0.0
3.096,8184.0,1.8686981264552287,0.0
3.104,8158.0,-5.403788819269721,0.0
3.112,8168.0,-12.15426062987899,0.0
3.12,8168.5,-12.158590500725495,0.0
3.128,8171.5,-9.602712460663497,0.0
3.136,8158.5,-8.67829409001206,0.0
3.144,8482.5,56.72169358582323,0.0
3.152,8109.5,76.78871982761689,0.0
3.16,8127.5,4.487457138544869,0.0
3.168,8181.5,-24.242082540031106,0.0
3.176,8188.5,-25.094948806281536,0.0
3.184,8199.5,-18.117227226145815,0.0
3.192,8204.0,-8.077165916808553,0.0
3.2,8222.5,3.7840224399783438,0.0
3.208,8249.5,19.520694718979485,0.0
3.216,8268.5,35.265606947737524,0.0
3.224,8273.5,44.13365959608245,0.0
3.232,8254.0,39.724665634905705,0.0
3.24,8200.5,16.180505501789185,0.0
3.248,8157.5,-19.911657151210193,0.0
3.256,8158.0,-46.920445424587115,0.0
3.264,8149.5,-57.414111526634315,0.0
3.272,8147.0,-57.1627004335337,0.0
3.28,8173.0,-43.54640685244112,0.0
3.288,8169.5,-24.294835452035613,0.0
3.296,8158.5,-12.188465998403899,0.0
3.304,8157.5,-5.632473642122022,0.0
3.312,8141.5,-4.374435097043488,0.0
3.32,8136.5,-7.257534491558999,0.0
3.328,8156.0,-4.899904875017455,0.0
3.336,8162.5,2.549098240164767,0.0
3.344,8179.5,11.369022391690805,0.0
3.352,8173.0,17.006591661007405,0.0
3.36,8163.0,14.391277199191336,0.0
3.368,8161.0,8.211087156045323,0.0
3.376,8172.5,5.252093051852626,0.0
3.384,8176.0,5.770381881742651,0.0
3.392,8314.0,34.11060567596314,0.0
3.4,8366.5,84.61870389130536,0.0
3.408,8090.5,55.99868137265503,0.0
3.416,8185.0,-6.497813447346061,0.0
3.424,8207.0,-18.671946205783343,0.0
3.432,8214.5,-17.013946493394087,0.0
3.44,8221.0,-10.593681544624587,0.0
3.448,8238.5,-0.28740049078055563,0.0
3.456,8255.5,12.899668878607372,0.0
3.464,8282.5,27.731974169789282,0.0
3.472,8281.0,37.50895146838616,0.0
3.48,8268.0,34.64187799363003,0.0
3.488,8224.0,16.049030883934392,0.0
3.496,8171.5,-17.095000305827398,1.0
3.504,8135.0,-52.28729524618939,0.0
3.512,8126.5,-74.36612641845181,0.0
3.52,8118.5,-79.5196918319873,0.0
3.528,8125.5,-70.7156788555028,0.0
3.536,8132.5,-51.9274569502827,0.0
3.544,8141.5,-29.674504903061234,0.0
3.552,8141.5,-10.176433124371215,0.0
3.56,8133.5,1.2631551655097155,0.0
3.568,8130.0,5.487540108673102,0.0
3.576,8145.5,9.60546843883958,0.0
3.584,8150.5,14.772668969431606,0.0
3.592,8158.0,18.142592163778318,0.0
3.6,8138.0,14.83116776389852,0.0
3.608,8127.5,4.393041599588514,0.0
3.616,8133.0,-3.467590086826249,0.0
3.624,8144.0,-4.219663519411142,0.0
3.632,8147.0,-1.1644761711468163,0.0
3.64,8292.5,31.157577330830463,0.0
3.648,8309.0,78.64566353144528,0.0
3.656,8045.0,44.2419745240411,0.0
3.664,8136.5,-18.053808175541917,0.0
3.672,8174.0,-25.80345461145089,0.0
3.68,8172.5,-19.119644773318896,0.0
3.688,8168.5,-13.391741361806226,0.0
3.696,8190.5,-4.29650783036459,0.0
3.704,8216.0,11.43808874077854,0.0
3.712,8256.0,32.39105794229431,0.0
3.72,8274.5,51.82334089556548,0.0
3.728,8277.0,59.74884813324684,0.0
3.736,8219.0,44.03865367809999,0.0
3.744,8168.5,5.904251433970558,0.0
3.752,8142.0,-33.274688863987876,0.0
3.76,8139.5,-57.324937881850246,0.0
3.768,8135.0,-64.28718405567975,0.0
3.776,8128.5,-60.90525811740986,0.0
3.784,8140.0,-48.64973254735719,0.0
3.792,8154.0,-28.816290220105884,0.0
3.8,8162.0,-8.223317260946487,0.0
3.808,8156.0,5.610686606568834,0.0
3.816,8156.5,11.81779283828223,0.0
3.824,8167.5,16.0464078248624,0.0
3.832,8179.0,20.71114747381148,0.0
3.84,8164.0,19.614759506379414,0.0
3.848,8151.0,10.27210532610843,0.0
3.856,8150.5,0.4314415042026667,0.0
3.864,8159.0,-3.8193158868916726,0.0
3.872,8148.5,-6.162755079143835,0.0
3.88,8137.5,-11.006782464597563,0.0
3.888,8464.5,52.35628634427553,0.0
3.896,8121.0,78.52030618075219,0.0
3.904,8105.0,8.642912812851364,1.0
3.912,8165.5,-24.9014433424627,0.0
3.92,8171.5,-27.378162721299987,0.0
3.928,8166.0,-24.589887440749408,0.0
3.936,8190.0,-15.433223604965406,0.0
3.944,8203.5,-0.016847932769223917,0.0
3.952,8228.0,16.86635689320451,0.0
3.96,8250.0,33.793905937007366,0.0
3.968,8258.5,44.91245065043404,0.0
3.976,8239.0,42.43137295515703,0.0
3.984,8175.0,17.471851889883283,0.0
3.992,8135.0,-21.185392422086807,0.0
4.0,8112.5,-53.6040689442259,0.0
4.008,8120.0,-67.71392359240826,0.0
4.016,8117.0,-64.8728845844737,0.0
4.024,8124.5,-52.437850061290874,0.0
4.032,8149.0,-30.595967749093916,0.0
4.04,8145.0,-8.851837810635061,0.0
4.048,8155.5,6.677603240048256,0.0
4.056,8156.0,17.096594672786978,0.0
4.064,8158.5,21.27922595068503,0.0
4.072,8176.0,24.61266185608133,0.0
4.08,8191.0,29.49225709254233,0.0
4.088,8192.5,31.277630985578526,0.0
4.096,8174.5,24.220476519544718,0.0
4.104,8177.0,13.208114100029206,0.0
4.112,8174.0,4.590764708795632,0.0
4.12,8178.5,-0.8950843949785394,0.0
4.128,8168.0,-5.2295060973963245,0.0
4.136,8548.0,68.48913348316523,0.0
4.144,8052.5,78.10570914622895,0.0
4.152,8129.0,-13.650856667450398,0.0
4.16,8181.0,-39.593251498864674,0.0
4.168,8188.5,-36.77683772259138,0.0
4.176,8193.0,-27.08380267372536,0.0
4.184,8211.5,-12.546214598621646,0.0
4.192,8218.0,3.0609658518687866,0.0
4.2,8227.5,15.095761275919358,0.0
4.208,8237.0,23.80613951901387,1.0
4.216,8255.5,31.06857418627169,0.0
4.224,8246.5,32.59406134280516,0.0
4.232,8203.0,17.82879423383929,0.0
4.24,8164.0,-10.461234044669936,0.0
4.248,8147.5,-36.94455931823518,0.0
4.256,8154.0,-49.04853120088728,0.0
4.264,8161.5,-45.91025240445447,0.0
4.272,8154.0,-37.093743333121665,0.0
4.28,8176.0,-23.29346312662392,0.0
4.288,8166.5,-9.046675906163046,0.0
4.296,8167.0,-1.088274000386491,0.0
4.304,8170.0,4.498359835385372,0.0
4.312,8189.5,11.717049975180771,0.0
4.32,8197.0,19.725850601118736,0.0
4.328,8186.5,20.858667830431386,0.0
4.336,8160.5,10.909213737530536,0.0
4.344,8171.5,0.3066450559524583,0.0
4.352,8158.5,-6.418789241491595,0.0
4.36,8166.0,-10.546690318088167,0.0
4.368,8147.0,-13.738380949195289,0.0
4.376,8461.5,46.82785276661093,0.0
4.384,8050.5,55.831938780974724,0.0
4.392,8088.5,-23.512047988187533,0.0
4.4,8159.5,-44.602457109395345,0.0
4.408,8157.0,-36.318424867815565,0.0
4.416,8162.5,-25.30005749083557,0.0
4.424,8176.0,-11.06631018314215,0.0
4.432,8195.0,5.66906454326886,0.0
4.44,8224.5,24.61543044567975,0.0
4.448,8244.0,42.099030592982444,0.0
4.456,8258.5,53.00232097021217,0.0
4.464,8235.0,49.57602403494184,0.0
4.472,8187.5,25.52804873779428,0.0
4.48,8157.5,-8.39755159896049,0.0
4.488,8144.0,-36.07501362274911,0.0
4.496,8144.0,-49.732082286973764,0.0
4.504,8147.5,-49.55382660895248,0.0
4.512,8146.0,-41.526859825124575,0.0
4.52,8166.5,-26.60204713011285,0.0
4.528,8165.0,-9.860637504190436,0.0
4.536,8161.5,0.5136894625750301,0.0
4.544,8177.0,9.022777833356713,0.0
4.552,8181.5,16.773095534113054,0.0
4.56,8181.0,19.630824678630006,0.0
4.568,8187.5,19.570421196076722,0.0
4.576,8175.5,15.443937290182248,0.0
4.584,8174.0,7.903997197834542,0.0
4.592,8177.0,2.553001024218929,0.0
4.6,8178.5,-0.079280671398692,0.0
4.608,8178.5,-1.3175366045843475,0.0
4.616,8499.5,63.73047957906556,0.0
4.624,8055.5,67.40847477783745,0.0
4.632,8154.0,-11.222220151254305,1.0
4.64,8187.0,-29.15730407013848,0.0
4.648,8194.5,-27.069308293363974,0.0
4.656,8201.0,-18.870232843952408,0.0
4.664,8223.5,-5.235639202056291,0.0
4.672,8233.0,10.159248079123245,0.0
4.68,8250.0,23.13746895795589,0.0
4.688,8274.5,35.78333820176567,0.0
4.696,8275.5,43.04657900520942,0.0
4.704,8261.5,38.159767450003756,0.0
4.712,8216.5,17.430495355775747,0.0
4.72,8188.0,-12.487541408829202,0.0
4.728,8173.0,-37.17484621166432,0.0
4.736,8166.5,-50.53119981707118,0.0
4.744,8159.0,-53.629210524354676,0.0
4.752,8168.0,-47.02409638643712,0.0
4.76,8177.5,-32.208869465127236,0.0
4.768,8171.5,-17.84887101580489,0.0
4.776,8181.5,-5.8330887849317605,0.0
4.784,8179.0,3.689646309929003,0.0
4.792,8190.5,10.600689633324237,0.0
4.8,8201.0,17.57529772248199,0.0
4.808,8198.5,20.669853458207854,0.0
4.816,8173.5,13.747902190073319,0.0
4.824,8167.0,1.13445141118018,0.0
4.832,8161.5,-8.948728700918991,0.0
4.84,8170.0,-12.942269426050416,0.0
4.848,8223.0,-0.7773413239706315,0.0
4.856,8440.0,61.69605378160418,0.0
4.864,8041.5,52.20826706194134,0.0
4.872,8160.5,-18.42026427982546,0.0
4.88,8202.5,-24.504699076876022,0.0
4.888,8203.5,-15.602886719555954,0.0
4.896,8205.0,-7.462035711298768,0.0
4.904,8222.5,2.365498507439952,0.0
4.912,8241.0,15.17367822271035,0.0
4.92,8270.0,30.152195024364346,0.0
4.928,8284.0,43.22397194590212,0.0
4.936,8292.5,48.99810347397943,0.0
4.944,8249.0,37.8336956555454,0.0
4.952,8200.5,6.6993726114028505,0.0
4.96,8181.0,-26.621574725004848,1.0
4.968,8171.0,-48.318257408362115,0.0
4.976,8161.5,-57.807887705690064,0.0
4.984,8164.5,-55.98363666691034,0.0
4.992,8176.5,-43.35248512554631,0.0
5.0,8189.5,-24.202173865326586,0.0
5.008,8197.5,-4.917058819277372,0.0
5.016,8202.0,9.787370884626853,0.0
5.024,8198.0,17.101815830868645,0.0
5.032,8202.5,18.936879784865823,0.0
5.04,8207.5,19.09193691651035,0.0
5.048,8210.5,17.923481055255706,0.0
5.056,8190.5,11.041932884840207,0.0
5.064,8189.5,1.007791972988116,0.0
5.072,8198.0,-3.546919396288331,0.0
5.08,8216.5,-0.1866910886308233,0.0
5.088,8202.5,2.748200674834152,0.0
5.096,8569.0,76.0832717305118,0.0
5.104,8098.5,86.67110408426811,0.0
5.112,8173.5,-1.0086077266992106,0.0
5.12,8225.5,-26.763123220311854,0.0
5.128,8228.5,-26.700150509839204,0.0
5.136,8234.5,-20.77614316221161,0.0
5.144,8238.0,-12.181928618280153,0.0
5.152,8252.5,-1.5749853004374472,0.0
5.16,8285.5,14.641019007226078,0.0
5.168,8302.5,32.226427139725956,0.0
5.176,8293.0,39.27275796211484,0.0
5.184,8269.5,30.743805530029704,0.0
5.192,8226.0,7.350518092414632,0.0
5.2,8197.5,-22.308318186067936,0.0
5.208,8188.5,-44.12758162423415,0.0
5.216,8178.5,-54.2229114791171,0.0
5.224,8187.0,-52.27889074973177,0.0
5.232,8195.0,-39.832139584254264,0.0
5.24,8198.5,-24.08266946674462,0.0
5.248,8205.5,-8.972083198410019,0.0
5.256,8195.0,0.6095134389227042,0.0
5.264,8197.5,4.549237867898228,0.0
5.272,8187.0,4.555059648185761,0.0
5.28,8190.0,2.3356456490143955,0.0
5.288,8192.5,1.7926309533645508,0.0
5.296,8184.5,0.0760544121210387,0.0
5.304,8162.5,-7.079681600013146,0.0
5.312,8169.5,-13.302721149758327,0.0
5.32,8177.0,-12.003804983218515,0.0
5.328,8185.5,-6.14689639288531,0.0
5.336,8219.0,6.8294463602267115,0.0
5.344,8547.5,87.4251077889187,0.0
5.352,8067.5,90.8829959457023,0.0
5.36,8161.0,0.1867817886368357,1.0
5.368,8193.0,-27.839374616173018,0.0
5.376,8189.0,-34.47279643654542,0.0
5.384,8186.0,-34.599414096887585,0.0
5.392,8204.0,-26.364103637667313,0.0
5.4,8231.5,-8.20095780373208,0.0
5.408,8256.0,14.407701565120078,0.0
5.416,8269.5,33.35747914844842,0.0
5.424,8267.5,41.856418277095145,0.0
5.432,8237.0,33.89697301479737,0.0
5.44,8193.0,8.83017758723804,0.0
5.448,8157.0,-23.67710899648796,0.0
5.456,8140.5,-50.03792877037881,0.0
5.464,8127.0,-64.17035823232777,0.0
5.472,8134.0,-64.12722533430315,0.0
5.48,8131.0,-53.56206902773556,0.0
5.488,8138.0,-38.37600782557024,0.0
5.496,8134.5,-22.861687624820206,0.0
5.504,8138.5,-10.118292131652652,0.0
5.512,8147.0,1.5059437761269692,0.0
5.52,8164.5,13.464000308247478,0.0
5.528,8170.5,23.29574322966164,0.0
5.536,8178.5,28.438521680705435,0.0
5.544,8175.5,28.189840939679698,0.0
5.552,8163.0,20.602196158306924,0.0
5.56,8164.5,10.744030361252271,0.0
5.568,8163.5,3.387155953575302,0.0
5.576,8165.5,-1.2729194410394484,0.0
5.584,8188.5,1.271629872825315,0.0
5.592,8533.5,77.76638138622911,0.0
5.6,8044.5,81.79563129127882,0.0
5.608,8126.5,-11.373095623900781,0.0
5.616,8154.5,-42.27554091189813,0.0
5.624,8149.0,-49.54495656227232,0.0
5.632,8156.5,-45.9238751275966,0.0
5.64,8186.0,-29.260641507222545,0.0
5.648,8202.0,-5.674086479831885,0.0
5.656,8223.5,16.796502674083058,0.0
5.664,8242.5,35.813207376405444,1.0
5.672,8236.0,44.183710531711995,0.0
5.68,8216.0,37.02126841639347,0.0
5.688,8172.0,14.09729793075553,0.0
5.696,8127.5,-19.677840135916995,0.0
5.704,8122.0,-46.88404949041137,0.0
5.712,8126.0,-56.172032789630975,0.0
5.72,8139.5,-49.57332317944088,0.0
5.728,8140.0,-35.29474472307561,0.0
5.736,8143.5,-20.682113765905797,0.0
5.744,8138.5,-9.21102657701681,0.0
5.752,8149.0,0.09311036007238727,0.0
5.76,8151.5,8.23735569215296,0.0
5.768,8148.5,11.702818190460903,0.0
5.776,8139.0,9.424241323484011,0.0
5.784,8172.0,11.448937868465237,0.0
5.792,8157.5,14.690111198730392,0.0
5.8,8153.5,10.60017626125159,0.0
5.808,8147.5,4.53127539880461,0.0
5.816,8133.0,-3.933024299449471,0.0
5.824,8138.0,-10.283362110462122,0.0
5.832,8174.5,-4.001378138941618,0.0
5.84,8542.5,82.9601164108085,0.0
5.848,8043.5,95.04786007414737,0.0
5.856,8127.5,3.001312182187803,0.0
5.864,8144.0,-31.35766600367674,0.0
5.872,8160.0,-40.28353997332147,0.0
5.88,8186.0,-30.874192357569427,0.0
5.888,8197.5,-12.967346794539253,0.0
5.896,8202.0,2.857548172771658,0.0
5.904,8233.0,19.035806198186492,0.0
5.912,8257.0,36.95409375119789,0.0
5.92,8255.5,46.54503121741709,0.0
5.928,8225.0,38.62269332017672,0.0
5.936,8174.0,11.431262378832798,0.0
5.944,8140.5,-23.64623901065852,0.0
5.952,8135.0,-48.773698709592736,0.0
5.96,8136.5,-57.05657182424261,0.0
5.968,8150.5,-50.13793679824494,0.0
5.976,8152.0,-35.278101652938176,0.0
5.984,8154.5,-20.324239734067078,0.0
5.992,8147.0,-9.420659929415024,0.0
6.0,8156.0,-1.2375663303466808,0.0
6.008,8149.0,4.19813304535046,0.0
6.016,8132.0,1.8730903894138464,0.0
6.024,8139.0,-1.828926859248213,0.0
6.032,8144.5,-1.1872465536571326,0.0
6.04,8157.5,3.151807961915665,0.0
6.048,8139.5,4.218562238253526,0.0
6.056,8138.5,0.3281394679229379,0.0
6.064,8133.0,-3.3503553191715127,0.0
6.072,8141.0,-4.507105598928774,0.0
6.08,8143.0,-2.4648671560635194,0.0
6.088,8401.5,52.336976977280074,0.0
6.096,8143.5,76.91394419574658,0.0
6.104,8057.5,9.508176740199815,0.0
6.112,8131.5,-34.248644722741574,0.0
6.12,8151.5,-35.72958052129752,0.0
6.128,8186.0,-20.05398244659864,0.0
6.136,8211.5,4.515010315517884,0.0
6.144,8218.5,25.000320063707704,0.0
6.152,8239.5,39.04537794486828,0.0
6.16,8256.5,49.195293177042686,0.0
6.168,8262.5,52.43826815019975,0.0
6.176,8256.0,46.30374738560886,0.0
6.184,8219.0,26.768521413102235,0.0
6.192,8145.0,-11.520394326300902,1.0
6.2,8118.5,-52.950001053115784,0.0
6.208,8124.5,-73.61172391513514,0.0
6.216,8142.5,-69.76740675014912,0.0
6.224,8144.0,-52.93245548171558,0.0
6.232,8153.0,-32.805949362740876,0.0
6.24,8147.0,-15.316495204153398,0.0
6.248,8151.5,-2.9575506235678404,0.0
6.256,8151.0,5.617111707527556,0.0
6.264,8173.5,14.331150572269053,0.0
6.272,8179.0,23.032270287226083,0.0
6.28,8190.0,28.05709770663657,0.0
6.288,8178.5,26.67283476290163,0.0
6.296,8157.0,15.0683401560525,0.0
6.304,8169.5,4.082215531648217,0.0
6.312,8159.0,-2.6252708698073093,0.0
6.32,8161.5,-7.828451812890762,0.0
6.328,8173.0,-6.858507206714421,0.0
6.336,8510.0,65.95378434970439,0.0
6.344,8041.0,72.04777253909651,0.0
6.352,8109.0,-17.19617616744199,0.0
6.36,8168.0,-41.42155233716744,0.0
6.368,8182.0,-34.554443439611305,0.0
6.376,8200.0,-18.716758693259408,0.0
6.384,8213.5,-0.0772205381904314,0.0
6.392,8238.0,18.72131046603522,0.0
6.4,8243.5,33.12938379656089,0.0
6.408,8263.0,41.73500959327316,0.0
6.416,8270.0,45.91081427381255,0.0
6.424,8238.5,36.414386731376226,0.0
6.432,8192.5,9.444050410656473,0.0
6.44,8150.0,-26.0186144915192,0.0
6.448,8147.5,-52.23998407750969,0.0
6.456,8141.5,-61.56361762931715,0.0
6.464,8144.5,-58.356730516773496,0.0
6.472,8141.0,-47.714764019068525,0.0
6.48,8151.0,-32.8590457935577,0.0
6.488,8164.0,-14.392660374101752,0.0
6.496,8166.0,1.774939079851947,0.0
6.504,8181.0,14.540443041162689,0.0
6.512,8175.5,21.82629607676654,0.0
6.52,8168.5,20.27225313549752,0.0
6.528,8183.0,17.811938025967038,0.0
6.536,8156.0,11.102651375067353,0.0
6.544,8143.0,-2.7205356596457477,0.0
6.552,8137.5,-14.262645614847997,0.0
6.56,8153.0,-16.883236747075443,0.0
6.568,8153.0,-12.706689274045402,0.0
6.576,8253.5,12.222030935218072,0.0
6.584,8298.5,54.837600752985736,0.0
6.592,8053.5,30.866186078876353,1.0
6.6,8151.0,-18.124518762112075,0.0
6.608,8183.5,-17.790542703351775,0.0
6.616,8193.5,-6.212988516033647,0.0
6.624,8194.0,3.721078992603225,0.0
6.632,8216.0,13.628679189728018,0.0
6.64,8233.0,25.389481129448086,0.0
6.648,8259.0,37.28039042939372,0.0
6.656,8280.5,48.364796513146985,0.0
6.664,8267.5,49.3239789799627,0.0
6.672,8222.5,30.563692692550376,0.0
6.68,8184.0,-2.2240450885585688,0.0
6.688,8170.0,-32.00326094730917,0.0
6.696,8166.0,-48.4399828403441,0.0
6.704,8154.5,-53.983222688377055,0.0
6.712,8174.0,-47.44258525250234,0.0
6.72,8182.5,-30.661184063915016,0.0
6.728,8168.0,-17.313898600098582,0.0
6.736,8175.0,-8.327600771500556,0.0
6.744,8187.0,2.131159182783449,0.0
6.752,8175.0,7.993343690242227,0.0
6.76,8178.5,8.51178768435193,0.0
6.768,8190.5,10.694569902821058,0.0
6.776,8187.5,12.202748096666937,0.0
6.784,8178.5,8.792991656271624,0.0
6.792,8176.5,3.1960369285245633,0.0
6.8,8180.0,-0.29209855656836226,0.0
6.808,8172.5,-3.127893840158549,0.0
6.816,8172.0,-5.965159464007229,0.0
6.824,8408.0,41.37411903061434,0.0
6.832,8150.0,58.60306735087488,0.0
6.84,8125.5,2.1923393889467206,0.0
6.848,8195.5,-22.205569151900363,0.0
6.856,8183.5,-21.418377844897122,0.0
6.864,8202.5,-16.275449541089756,0.0
6.872,8220.5,-3.207249464501956,0.0
6.88,8237.5,12.158048242557243,0.0
6.888,8259.0,27.267338090081694,0.0
6.896,8285.0,41.77318604727111,0.0
6.904,8292.0,50.760539743318304,0.0
6.912,8258.0,42.86362667080493,0.0
6.92,8219.0,16.78081338174843,0.0
6.928,8182.0,-16.715551424612613,1.0
6.936,8166.0,-44.8189151393708,0.0
6.944,8156.0,-59.95594298693072,0.0
6.952,8154.0,-62.2695375475605,0.0
6.96,8166.5,-52.051838012423104,0.0
6.968,8180.0,-32.80561288534909,0.0
6.976,8184.0,-12.874444515730602,0.0
6.984,8175.5,-0.05462035809523513,0.0
6.992,8189.0,8.556787726460016,0.0
7.0,8186.5,14.59955931906211,0.0
7.008,8192.5,16.674831843603215,0.0
7.016,8192.5,16.599848210723394,0.0
7.024,8207.0,17.001132041622213,0.0
7.032,8192.0,14.558727935614343,0.0
7.04,8189.5,7.331754750039863,0.0
7.048,8182.0,-0.09685408078712499,0.0
7.056,8190.0,-4.373286462517854,0.0
7.064,8178.5,-6.954372560314141,0.0
7.072,8517.0,59.379911888700235,0.0
7.08,8087.0,70.91367739818747,0.0
7.088,8180.5,-1.7638505922777767,0.0
7.096,8209.0,-19.553099695645415,0.0
7.104,8215.5,-19.958622729179297,0.0
7.112,8223.5,-14.210123643525321,0.0
7.12,8233.0,-5.080783862840008,0.0
7.128,8237.0,3.846660565372531,0.0
7.136,8239.0,9.768942282569014,0.0
7.144,8257.0,15.876299455174149,0.0
7.152,8281.5,25.763931058362914,0.0
7.16,8251.0,26.479539089648142,0.0
7.168,8205.5,7.361275176291656,0.0
7.176,8160.0,-23.65266580034222,0.0
7.184,8156.0,-48.521126848278755,0.0
7.192,8157.0,-56.4848206388142,0.0
7.2,8172.5,-49.25980689079415,0.0
7.208,8169.5,-34.96481720623137,0.0
7.216,8174.0,-20.903253642355367,0.0
7.224,8185.0,-6.251425372777476,0.0
7.232,8186.0,5.813041477479146,0.0
7.24,8202.5,15.641886006431378,0.0
7.248,8198.0,21.534763801481404,0.0
7.256,8201.5,21.55057681288804,0.0
7.264,8195.0,17.679704312401554,0.0
7.272,8199.5,12.30142319288234,0.0
7.28,8190.0,6.234171528390334,0.0
7.288,8172.5,-3.815287348195625,0.0
7.296,8173.0,-12.653192177746405,0.0
7.304,8180.0,-14.429285055771288,0.0
7.312,8178.0,-12.270509404150289,0.0
7.32,8336.0,22.737469608383435,0.0
7.328,8273.5,59.50459062918321,0.0
7.336,8080.5,20.028146477722657,0.0
7.344,8179.5,-25.55893840447652,0.0
7.352,8194.0,-25.45588494450635,0.0
7.36,8201.0,-17.14305895030816,0.0
7.368,8211.0,-6.154663264282362,0.0
7.376,8228.5,6.895248094475846,0.0
7.384,8244.0,20.309470360873547,0.0
7.392,8266.0,32.82474477681535,0.0
7.4,8289.5,44.545326185259,0.0
7.408,8289.5,49.52433083952019,0.0
7.416,8237.0,34.234639593577185,0.0
7.424,8190.0,-0.32596607055006643,1.0
7.432,8169.5,-34.50593662012329,0.0
7.44,8170.5,-53.472273646413896,0.0
7.448,8167.0,-57.09265831332277,0.0
7.456,8172.5,-50.16922529627527,0.0
7.464,8169.0,-38.05987004941085,0.0
7.472,8167.5,-26.149595903307954,0.0
7.48,8179.5,-12.996133358471752,0.0
7.488,8178.5,-0.9995210103186309,0.0
7.496,8178.5,6.042494113439716,0.0
7.504,8185.5,10.721122588255412,0.0
7.512,8171.5,10.432501254121235,0.0
7.52,8188.5,9.293023215975836,0.0
7.528,8194.0,11.806974320036261,0.0
7.536,8168.0,7.315477290113677,0.0
7.544,8170.0,-1.3531191371164368,0.0
7.552,8173.0,-5.253059818935753,0.0
7.56,8176.5,-5.435097077872797,0.0
7.568,8158.5,-7.681090695033845,0.0
7.576,8541.5,66.72497726502525,0.0
7.584,8065.5,81.61233239102353,0.0
7.592,8120.0,-8.069500672676895,0.0
7.6,8171.0,-38.330020383251394,0.0
7.608,8194.0,-35.29649733693668,0.0
7.616,8190.5,-24.167245117063885,0.0
7.624,8201.5,-12.389127902524251,0.0
7.632,8222.5,2.9923956030986574,0.0
7.64,8241.0,19.70520331210946,0.0
7.648,8268.0,35.897276332207184,0.0
7.656,8279.0,47.79422214098713,0.0
7.664,8261.0,46.15378229455405,0.0
7.672,8222.5,26.643174130110992,0.0
7.68,8183.5,-4.768100936494648,0.0
7.688,8170.0,-33.34757011988631,0.0
7.696,8165.5,-48.870950668938576,0.0
7.704,8167.5,-51.15279142624058,0.0
7.712,8181.0,-41.58023855085594,0.0
7.72,8196.0,-23.792418113623853,0.0
7.728,8195.0,-6.8053074726867635,0.0
7.736,8203.5,5.804862876770812,0.0
7.744,8186.5,10.645854096100038,0.0
7.752,8193.5,9.851762940339086,0.0
7.76,8194.5,9.522901787600631,0.0
7.768,8186.0,6.352373347475805,0.0
7.776,8186.0,1.7776762688306462,0.0
7.784,8177.0,-3.0360161654409694,0.0
7.792,8152.5,-12.26660766305963,0.0
7.8,8148.0,-21.79052565162192,0.0
7.808,8148.0,-25.038607865629274,0.0
7.816,8164.5,-19.79240623631449,0.0
7.824,8148.5,-13.586898424941637,0.0
7.832,8430.0,46.38483168981611,0.0
7.84,8142.5,73.59372107822173,0.0
7.848,8075.5,6.102694414613097,1.0
7.856,8155.0,-32.18286769098722,0.0
7.864,8167.5,-31.1499075554882,0.0
7.872,8185.5,-19.585147830663345,0.0
7.88,8181.5,-6.916216870996095,0.0
7.888,8198.5,4.2806588414628095,0.0
7.896,8218.0,17.710454358593324,0.0
7.904,8248.0,33.08059016430593,0.0
7.912,8263.5,46.45074271152657,0.0
7.92,8254.0,48.541152956609494,0.0
7.928,8205.5,30.56855857752703,0.0
7.936,8163.0,-3.286333415433546,0.0
7.944,8147.0,-34.76141201251903,0.0
7.952,8153.0,-50.1484894815585,0.0
7.96,8151.5,-50.72592508856155,0.0
7.968,8149.5,-44.091823454175255,0.0
7.976,8151.0,-33.58573622447966,0.0
7.984,8159.0,-20.339601686400556,0.0
7.992,8160.0,-7.583428445886966,0.0
8.0,8154.5,0.1909349325489984,0.0
8.008,8151.5,3.023175621714472,0.0
8.016,8156.5,4.648410636433482,0.0
8.024,8164.5,7.560728740810646,0.0
8.032,8176.0,12.120639220388966,0.0
8.04,8175.5,15.227039856408055,0.0
8.048,8156.5,10.771695023312077,0.0
8.056,8151.0,1.498325129812656,0.0
8.064,8163.0,-2.8851389542869583,0.0
8.072,8162.0,-2.7927821996127022,0.0
8.08,8165.0,-1.9061421725696164,0.0
8.088,8352.5,37.826515959366134,0.0
8.096,8253.0,73.56787071007602,0.0
8.104,8061.0,23.997801146958636,0.0
8.112,8158.0,-28.364784491202045,0.0
8.12,8181.0,-30.515396264788706,0.0
8.128,8185.5,-21.54249759256595,0.0
8.136,8191.0,-10.926834956237599,0.0
8.144,8205.5,1.0939040658604426,0.0
8.152,8227.5,15.494080624841672,0.0
8.16,8253.0,31.36552494927537,1.0
8.168,8256.0,41.81906064522855,0.0
8.176,8242.5,39.51584256303363,0.0
8.184,8199.5,20.619658456651223,0.0
8.192,8158.0,-10.945116930564382,0.0
8.2,8136.5,-40.82401607072097,0.0
8.208,8136.5,-56.69741278484776,0.0
8.216,8138.0,-57.182465191739084,0.0
8.224,8135.0,-49.106238947277916,0.0
8.232,8138.0,-36.884886612254604,0.0
8.24,8143.5,-22.328457802756247,0.0
8.248,8158.0,-6.248535560327355,0.0
8.256,8163.5,8.29447217584152,0.0
8.264,8168.5,17.782801745127244,0.0
8.272,8177.5,23.558313106778996,0.0
8.28,8180.0,25.751682147126985,0.0
8.288,8178.0,23.24672842098812,0.0
8.296,8175.5,17.321470786938562,0.0
8.304,8162.5,8.024480989096446,0.0
8.312,8152.5,-3.3892684439142613,0.0
8.32,8150.5,-12.07709783225414,0.0
8.328,8152.5,-15.384035226703418,0.0
8.336,8143.0,-16.539607406817822,0.0
8.344,8169.5,-11.242297168291088,0.0
8.352,8506.0,67.75618754347306,0.0
8.36,8043.0,78.35906910123572,0.0
8.368,8130.5,-3.965523534987824,0.0
8.376,8168.0,-26.5133286873006,0.0
8.384,8180.5,-25.613288688716466,0.0
8.392,8168.0,-21.197729626417186,0.0
8.4,8179.5,-15.576850082595456,0.0
8.408,8193.5,-4.681365833873542,0.0
8.416,8221.5,11.052590525916003,0.0
8.424,8246.0,29.407716471180038,0.0
8.432,8261.0,43.87423332461276,0.0
8.44,8241.0,44.75635178043194,0.0
8.448,8210.5,28.175252343524335,0.0
8.456,8197.5,5.210430794006925,1.0
8.464,8171.0,-17.230772179966152,0.0
8.472,8163.0,-34.938452615135475,0.0
8.48,8159.5,-42.46312329955754,0.0
8.488,8157.5,-41.598944966303634,0.0
8.496,8164.0,-33.86162654648069,0.0
8.504,8168.0,-22.006808264387473,0.0
8.512,8171.0,-10.229290616490516,0.0
8.52,8169.5,-1.4067536608913542,0.0
8.528,8171.0,4.024160609379351,0.0
8.536,8172.0,7.136636168711448,0.0
8.544,8166.5,6.975997093658862,0.0
8.552,8180.0,7.457758503520154,0.0
8.56,8163.0,5.896934305452305,0.0
8.568,8154.0,-1.2320008289214002,0.0
8.576,8153.0,-7.304263690075004,0.0
8.584,8160.0,-8.562172398537086,0.0
8.592,8161.5,-6.271414129400455,0.0
8.6,8243.5,13.09327576997157,0.0
8.608,8357.5,62.603387861833426,0.0
8.616,8066.5,46.230928092232034,0.0
8.624,8170.0,-8.767276564407894,0.0
8.632,8197.0,-13.30264394562414,0.0
8.64,8198.5,-8.145441405767997,0.0
8.648,8215.5,-0.08097001470559917,0.0
8.656,8218.5,8.786637566838863,0.0
8.664,8234.0,16.478333353014023,0.0
8.672,8253.0,25.577258160921474,0.0
8.68,8270.0,34.43536272899087,0.0
8.688,8271.0,38.13063855792393,0.0
8.696,8237.5,27.895186922059793,0.0
8.704,8194.0,1.8815546302207622,0.0
8.712,8178.0,-25.944029557769227,0.0
8.72,8169.0,-43.57413367019808,0.0
8.728,8170.5,-48.9264513690764,0.0
8.736,8173.5,-43.75462199346157,0.0
8.744,8168.5,-34.470895124943354,0.0
8.752,8167.5,-24.980124728676174,0.0
8.76,8157.0,-17.92947648119798,0.0
8.768,8163.0,-11.960768176071042,0.0
8.776,8154.5,-7.128242351101562,0.0
8.784,8153.0,-5.232577109686645,0.0
8.792,8141.5,-5.974074074606506,0.0
8.8,8133.0,-9.592870498707043,0.0
8.808,8130.5,-12.5259374084917,0.0
8.816,8124.5,-14.09802538935719,0.0
8.824,8137.0,-11.562373216871038,0.0
8.832,8135.0,-6.164641791362328,0.0
8.84,8144.5,-0.5055436830205053,0.0
8.848,8146.5,5.2673434776304475,0.0
8.856,8447.5,69.78597774608511,0.0
8.864,8057.0,79.0768899689856,0.0
8.872,8114.0,4.448205335319699,1.0
8.88,8172.5,-16.764730950561898,0.0
8.888,8176.0,-14.10164429762176,0.0
8.896,8187.0,-7.426361565203251,0.0
8.904,8194.0,1.3247285454140183,0.0
8.912,8211.5,11.30463452125673,0.0
8.92,8226.5,22.132595224891702,0.0
8.928,8241.5,31.309695385488112,0.0
8.936,8233.0,33.31805326549397,0.0
8.944,8219.5,24.959764526388653,0.0
8.952,8187.5,6.936803925818822,0.0
8.96,8176.5,-13.558582059131595,0.0
8.968,8178.5,-25.46258588212254,0.0
8.976,8174.5,-29.05076720004581,0.0
8.984,8178.5,-26.768372508546236,0.0
8.992,8170.0,-22.279520528072908,0.0
9.0,8195.5,-12.773868566289593,0.0
9.008,8198.0,0.5048506639420793,0.0
9.016,8187.5,6.646915411351074,0.0
9.024,8191.0,7.8414657740154325,0.0
9.032,8206.0,11.138627370851964,0.0
9.04,8204.0,14.055726635525389,0.0
9.048,8200.0,12.424075321400323,0.0
9.056,8194.0,7.532474715216949,0.0
9.064,8192.5,1.9653219225826888,0.0
9.072,8199.0,-0.6035449405544568,0.0
9.08,8198.0,-0.907609497813155,0.0
9.088,8182.0,-4.422942475987611,0.0
9.096,8181.5,-9.20229791941756,0.0
9.104,8469.0,48.00071270841045,0.0
9.112,8084.0,54.6336738978589,0.0
9.12,8152.0,-14.490074922939357,0.0
9.128,8206.0,-28.248179061968358,0.0
9.136,8207.0,-20.86539645927519,0.0
9.144,8202.5,-14.050843497005417,0.0
9.152,8215.0,-6.256047792310028,0.0
9.16,8235.5,6.0441994272498505,0.0
9.168,8258.5,21.289259236055614,0.0
9.176,8263.0,32.69573215486753,0.0
9.184,8255.5,33.87154004360082,0.0
9.192,8247.5,26.264922841524367,0.0
9.2,8214.0,9.305825439974114,0.0
9.208,8166.0,-18.785146962746694,1.0
9.216,8169.5,-41.641438402778476,0.0
9.224,8188.5,-44.24850935735299,0.0
9.232,8176.5,-37.65162474715544,0.0
9.24,8159.0,-34.06868164960588,0.0
9.248,8179.0,-26.273768680998955,0.0
9.256,8186.0,-12.164334292225249,0.0
9.264,8195.0,1.2930317933582955,0.0
9.272,8182.0,8.238453731212985,0.0
9.28,8184.0,8.849608919721959,0.0
9.288,8191.0,9.708047341017618,0.0
9.296,8208.5,13.749242037943986,0.0
9.304,8233.5,22.737435570407115,0.0
9.312,8225.0,27.976738395363554,0.0
9.32,8215.0,23.054084435587356,0.0
9.328,8207.5,13.072299255337612,0.0
9.336,8212.5,4.676421029337234,0.0
9.344,8225.0,2.5773762871328927,0.0
9.352,8332.0,25.35919252384315,0.0
9.36,8326.5,55.72410184146452,0.0
9.368,8089.5,15.690477682448773,0.0
9.376,8191.5,-37.94481454504671,0.0
9.384,8203.0,-40.723612621554366,0.0
9.392,8207.0,-33.02614609277316,0.0
9.4,8209.0,-22.24091856104542,0.0
9.408,8224.5,-8.915302580146772,0.0
9.416,8231.5,4.913878391768776,0.0
9.424,8249.5,17.454951862253438,0.0
9.432,8267.0,29.47802456878526,0.0
9.44,8263.0,34.87729460657465,0.0
9.448,8231.5,25.529925207500355,0.0
9.456,8186.5,0.5022552927835022,0.0
9.464,8170.5,-26.837565547208442,0.0
9.472,8153.0,-45.781476420187346,0.0
9.48,8140.0,-56.275037015011776,0.0
9.488,8148.5,-54.86830530815769,0.0
9.496,8167.5,-40.09941110638806,0.0
9.504,8175.0,-19.87159554351001,0.0
9.512,8175.5,-3.2617237345930334,0.0
9.52,8182.0,8.485948658087864,0.0
9.528,8179.5,14.964136060878673,0.0
9.536,8178.0,15.709382458155915,0.0
9.544,8189.5,15.811400385983461,0.0
9.552,8186.0,15.108945286780227,0.0
9.56,8202.0,14.95658035944507,0.0
9.568,8191.0,13.620381992041303,0.0
9.576,8186.5,7.5984830259722,0.0
9.584,8182.5,1.1485651833738757,0.0
9.592,8184.0,-3.350793695007951,0.0
9.6,8178.5,-6.320890540076107,0.0
9.608,8372.0,31.28947566503325,0.0
9.616,8225.0,58.288318728961485,0.0
9.624,8104.5,10.767722382496913,0.0
9.632,8196.0,-24.893117668724926,0.0
9.64,8210.5,-20.552901844915596,0.0
9.648,8220.0,-9.966823063501579,0.0
9.656,8218.5,-0.5607389104434333,0.0
9.664,8233.0,7.7429291041921715,0.0
9.672,8254.0,18.73246449563385,0.0
9.68,8270.5,30.05287579438209,0.0
9.688,8284.5,38.422552816079815,0.0
9.696,8270.5,37.54705348201696,0.0
9.704,8230.0,20.202313201371226,0.0
9.712,8191.5,-9.258011864540322,1.0
9.72,8177.5,-36.002968940629444,0.0
9.728,8167.5,-51.264637195452224,0.0
9.736,8176.5,-52.72233936572411,0.0
9.744,8180.0,-43.037332767804855,0.0
9.752,8176.5,-30.78466819495452,0.0
9.76,8185.0,-17.849639380497138,0.0
9.768,8196.0,-3.5098025726667856,0.0
9.776,8200.5,8.669543549347964,0.0
9.784,8201.5,15.681638167887513,0.0
9.792,8186.5,14.59084638091781,0.0
9.8,8171.5,5.604584653383199,0.0
9.808,8172.5,-3.419808444738919,0.0
9.816,8172.0,-8.136185907363597,0.0
9.824,8163.5,-11.530609363241638,0.0
9.832,8149.5,-16.386657865064308,0.0
9.84,8165.0,-16.467654955108173,0.0
9.848,8182.0,-7.379088844172202,0.0
9.856,8181.0,2.3834443268690393,0.0
9.864,8241.5,19.95153110269962,0.0
9.872,8396.0,71.24105827121912,0.0
9.88,8054.5,52.56836061284298,0.0
9.888,8155.0,-15.681124612940721,0.0
9.896,8171.5,-29.763117633165166,0.0
9.904,8178.5,-28.777675777377453,0.0
9.912,8177.5,-22.606046818324558,0.0
9.92,8202.5,-10.625592315788026,0.0
9.928,8234.5,9.715740925097634,0.0
9.936,8267.5,33.55210444482191,0.0
9.944,8281.0,52.061983798550045,0.0
9.952,8285.0,58.69074910217887,0.0
9.96,8261.0,49.626763170054346,0.0
9.968,8212.5,21.930524006232872,0.0
9.976,8177.0,-14.935181712108033,0.0
9.984,8168.5,-43.462385731771064,0.0
9.992,8165.5,-56.093375954503244,0.0
10.0,8164.5,-55.87610815468042,0.0
10.008,8172.5,-45.84603303762833,0.0
10.016,8167.0,-32.452711337371966,0.0
10.024,8165.5,-21.041814640766916,0.0
10.032,8160.5,-12.431197038348273,0.0
10.04,8159.0,-6.78213113939978,0.0
10.048,8170.0,-0.47217391553476773,0.0
10.056,8165.0,4.556916468748341,0.0
10.064,8178.5,8.576786913506794,0.0
10.072,8173.5,11.390346541977578,0.0
10.08,8175.0,10.612317201369024,0.0
10.088,8157.0,5.172275781122607,0.0
10.096,8159.0,-2.0979469943904405,0.0
10.104,8157.5,-5.977320818577709,0.0
10.112,8162.5,-6.650290828378502,0.0
10.12,8144.5,-8.695932312516334,0.0
10.128,8491.5,58.62765586176761,0.0
10.136,8093.0,79.03257782833884,0.0
10.144,8105.0,0.15547479016254329,1.0
10.152,8161.5,-32.521279258544155,0.0
10.16,8180.5,-31.49093569776369,0.0
10.168,8184.5,-21.40827570148076,0.0
10.176,8196.0,-9.032997136977883,0.0
10.184,8224.0,7.725113750732589,0.0
10.192,8235.0,24.432346622229943,0.0
10.2,8270.0,40.0065823822456,0.0
10.208,8277.0,51.7323242499167,0.0
10.216,8259.0,48.576368614766125,0.0
10.224,8188.5,21.26456785267351,0.0
10.232,8152.0,-19.97173377410195,0.0
10.24,8135.5,-52.15880768594957,0.0
10.248,8135.5,-66.65726283453182,0.0
10.256,8135.5,-65.12559747439741,0.0
10.264,8143.0,-52.81370763798668,0.0
10.272,8149.0,-34.767233695034065,0.0
10.28,8153.5,-16.67829709921193,0.0
10.288,8163.5,-0.4895411634672655,0.0
10.296,8164.5,11.405991694110526,0.0
10.304,8159.0,15.792353534619224,0.0
10.312,8160.5,15.174930198086713,0.0
10.32,8152.0,11.07898274975173,0.0
10.328,8151.0,5.0360837952109705,0.0
10.336,8162.0,2.7418018121970817,0.0
10.344,8152.0,1.1735785365874563,0.0
10.352,8160.0,-0.34039613028267013,0.0
10.36,8162.5,0.9610084740295406,0.0
10.368,8172.5,4.138717087377472,0.0
10.376,8153.0,3.449672530009366,0.0
10.384,8402.5,49.508351230139624,0.0
10.392,8164.0,71.48863653141484,0.0
10.4,8087.5,9.29446025501943,0.0
10.408,8165.5,-28.589771706600004,0.0
10.416,8177.5,-28.272822996425248,0.0
10.424,8173.0,-22.266630185767553,0.0
10.432,8181.5,-14.521490402449444,0.0
10.44,8210.5,-0.07811724296129796,0.0
10.448,8227.0,17.771200833956982,0.0
10.456,8264.5,36.66517882216772,0.0
10.464,8276.0,52.290912760637184,0.0
10.472,8265.5,53.80832728672226,0.0
10.48,8216.0,34.289696736075484,0.0
10.488,8161.0,-3.8017480951916696,1.0
10.496,8147.5,-39.74718235033697,0.0
10.504,8128.0,-61.72103811201487,0.0
10.512,8122.5,-70.4662228905463,0.0
10.52,8133.0,-63.93309549346259,0.0
10.528,8140.5,-46.69898797463361,0.0
10.536,8141.0,-27.79224081860707,0.0
10.544,8136.0,-13.316543676522542,0.0
10.552,8141.5,-2.634544636375267,0.0
10.56,8149.0,6.738110765170177,0.0
10.568,8157.5,14.528319781582695,0.0
10.576,8167.5,20.712337036998406,0.0
10.584,8163.0,22.352974408231148,0.0
10.592,8172.0,20.853623591180167,0.0
10.6,8160.0,16.192352035322756,0.0
10.608,8146.0,5.668910595428997,0.0
10.616,8147.5,-3.967869386020311,0.0
10.624,8151.0,-8.043965224791918,0.0
10.632,8157.0,-7.294143678339196,0.0
10.64,8167.5,-2.373858573112784,0.0
10.648,8530.0,77.10010236998914,0.0
10.656,8056.5,89.73419478541291,0.0
10.664,8142.5,4.43464369045364,0.0
10.672,8187.5,-19.92030654655082,0.0
10.68,8197.0,-20.169235439530894,0.0
10.688,8205.0,-13.683292991563349,0.0
10.696,8216.5,-3.789102518822574,0.0
10.704,8228.0,7.335697040513423,0.0
10.712,8251.0,19.851085339877727,0.0
10.72,8271.0,33.02794194290345,0.0
10.728,8277.5,41.227259215587765,0.0
10.736,8254.0,36.35266879827054,0.0
10.744,8194.0,10.899231555126107,0.0
10.752,8163.0,-24.397716431774143,0.0
10.76,8159.5,-48.62166993020128,0.0
10.768,8163.0,-55.576057027614524,0.0
10.776,8159.5,-51.26288385620364,0.0
10.784,8159.5,-41.655074965771064,0.0
10.792,8155.5,-30.474834885290647,0.0
10.8,8164.5,-18.221010534475,0.0
10.808,8167.0,-5.862139267398334,0.0
10.816,8163.5,2.1313455073425303,0.0
10.824,8163.5,5.820489203820216,0.0
10.832,8161.0,6.609035777962163,0.0
10.84,8161.5,5.664771439803644,0.0
10.848,8171.0,6.290497095689261,0.0
10.856,8171.0,7.647694438448752,0.0
10.864,8147.5,2.4897885922089245,0.0
10.872,8160.0,-3.185378827962495,0.0
10.88,8169.0,-1.666254732863763,0.0
10.888,8173.0,2.1406873535449904,0.0
10.896,8192.0,8.766472115886017,0.0
10.904,8505.5,79.28587373332448,0.0
10.912,8042.0,78.32513363995918,0.0
10.92,8130.5,-10.730870348312692,1.0
10.928,8163.5,-36.948967530388245,0.0
10.936,8178.5,-37.04596781057876,0.0
10.944,8177.0,-28.728666497190716,0.0
10.952,8181.5,-18.84132080047698,0.0
10.96,8206.0,-4.212670324662895,0.0
10.968,8228.5,14.679518737399803,0.0
10.976,8246.0,31.798772865164437,0.0
10.984,8243.0,40.06436418358544,0.0
10.992,8201.5,29.7870040724506,0.0
11.0,8157.0,1.6230579487144041,0.0
11.008,8129.5,-29.98878745012985,0.0
11.016,8129.5,-49.7555992227085,0.0
11.024,8136.5,-52.47201721635224,0.0
11.032,8148.5,-42.241409515819214,0.0
11.04,8156.5,-25.7007322240147,0.0
11.048,8171.0,-7.425300032823088,0.0
11.056,8170.0,7.266584693510367,0.0
11.064,8180.0,16.692348507852785,0.0
11.072,8163.5,18.408017268926642,0.0
11.08,8175.0,15.610284127787736,0.0
11.088,8187.5,16.492225814345602,0.0
11.096,8194.0,18.39510423653246,0.0
11.104,8182.5,15.710044348471683,0.0
11.112,8170.0,6.837056417761687,0.0
11.12,8183.0,0.655157941766447,0.0
11.128,8183.0,-0.4442255866626965,0.0
11.136,8179.0,-1.8442526477901993,0.0
11.144,8180.0,-3.005518346566987,0.0
11.152,8470.5,56.31707337405783,0.0
11.16,8050.5,56.40506651099372,0.0
11.168,8121.5,-23.395556032365675,0.0
11.176,8175.0,-41.60701757648167,0.0
11.184,8182.0,-33.708931068222455,0.0
11.192,8186.5,-21.57788441621051,0.0
11.2,8203.0,-6.841824143704798,0.0
11.208,8221.5,10.060887755552585,0.0
11.216,8242.0,26.49950651751601,0.0
11.224,8272.0,42.520832205552324,0.0
11.232,8273.5,51.98463371433877,0.0
11.24,8240.5,43.26455028889063,0.0
11.248,8206.0,17.75778519104665,0.0
11.256,8174.0,-13.605168291800965,1.0
11.264,8167.0,-38.058195323026666,0.0
11.272,8170.5,-47.46465645126045,0.0
11.28,8179.0,-43.3798099976475,0.0
11.288,8165.5,-35.40865143274959,0.0
11.296,8169.5,-27.267009727350114,0.0
11.304,8182.0,-14.947092124087476,0.0
11.312,8185.5,-2.1261443817422787,0.0
11.32,8187.5,6.902146094268346,0.0
11.328,8188.5,11.807917853458548,0.0
11.336,8201.0,15.677024591228246,0.0
11.344,8211.0,20.185154512740155,0.0
11.352,8201.5,19.893097849331298,0.0
11.36,8169.5,8.22586337003463,0.0
11.368,8169.5,-6.458884224665553,0.0
11.376,8169.0,-14.266327069320823,0.0
11.384,8188.5,-12.838976658690399,0.0
11.392,8186.5,-6.47303914776171,0.0
11.4,8461.0,53.945129562272086,0.0
11.408,8102.5,64.33634730927656,0.0
11.416,8148.5,-3.1164608842998405,0.0
11.424,8215.5,-19.449455046197272,0.0
11.432,8219.0,-11.756785797691919,0.0
11.44,8240.5,-0.31736578093659773,0.0
11.448,8248.0,12.420728661054454,0.0
11.456,8262.5,22.565505775886777,0.0
11.464,8274.0,30.455734641782556,0.0
11.472,8302.5,38.676587102145504,0.0
11.48,8321.0,47.27669731371975,0.0
11.488,8286.5,41.92626978396538,0.0
11.496,8240.5,15.95930203261787,0.0
11.504,8200.5,-19.387009339513497,0.0
11.512,8194.0,-46.851448493116095,0.0
11.52,8189.5,-58.23794899665768,0.0
11.528,8189.5,-57.061699854123844,0.0
11.536,8192.5,-47.10193835343625,0.0
11.544,8202.5,-31.41463128490659,0.0
11.552,8196.0,-16.65930195711985,0.0
11.56,8203.0,-5.305127291858071,0.0
11.568,8191.5,1.2946790936948673,0.0
11.576,8192.5,2.856346422201341,0.0
11.584,8197.5,4.572663019105676,0.0
11.592,8198.0,6.0180746716500835,0.0
11.6,8206.0,7.6970345922131855,0.0
11.608,8200.0,7.931609073989421,0.0
11.616,8187.0,2.9860948179455136,0.0
11.624,8187.5,-2.9451616843418833,0.0
11.632,8188.0,-5.802074902742561,0.0
11.64,8186.0,-6.918436866762477,0.0
11.648,8225.0,1.0293956978375718,0.0
11.656,8475.5,64.71875087043236,0.0
11.664,8063.5,59.57782085879171,0.0
11.672,8172.0,-14.500517717211096,1.0
11.68,8196.5,-28.939865751152865,0.0
11.688,8197.0,-27.984126527435137,0.0
11.696,8215.0,-19.396614785195197,0.0
11.704,8230.5,-4.533141135318374,0.0
11.712,8248.5,11.788447994265653,0.0
11.72,8261.5,25.987066590483664,0.0
11.728,8269.0,34.63232708586429,0.0
11.736,8271.0,36.43530815318627,0.0
11.744,8247.0,27.482947270239492,0.0
11.752,8197.5,3.005686016497748,0.0
11.76,8164.5,-28.78064141814275,0.0
11.768,8146.0,-53.7370305610134,0.0
11.776,8166.5,-59.94042819180936,0.0
11.784,8173.5,-48.90315823644096,0.0
11.792,8177.0,-32.81628031003311,0.0
11.8,8173.0,-18.429342196297057,0.0
11.808,8171.0,-8.352629852766995,0.0
11.816,8177.0,-0.30971821236425967,0.0
11.824,8181.5,6.638962064118914,0.0
11.832,8182.5,10.865509645961765,0.0
11.84,8177.0,10.798389695557944,0.0
11.848,8155.0,3.50325906294961,0.0
11.856,8155.5,-5.734672313437613,0.0
11.864,8163.0,-8.694119093611562,0.0
11.872,8144.5,-11.373509032381662,0.0
11.88,8153.5,-13.174595439575569,0.0
11.888,8152.5,-10.607924202508912,0.0
11.896,8160.5,-6.051606774785796,0.0
11.904,8161.0,-0.7029561359972831,0.0
11.912,8476.5,67.12586396041775,0.0
11.92,8092.5,83.06803658359127,0.0
11.928,8115.0,6.047368368806701,0.0
11.936,8173.0,-23.973163905585125,0.0
11.944,8177.5,-25.323841067374815,0.0
11.952,8175.5,-21.772484038318453,0.0
11.96,8202.5,-11.263731167484138,0.0
11.968,8227.5,7.282485415330484,0.0
11.976,8246.0,26.033662436589793,0.0
11.984,8265.0,40.837348012031725,1.0
11.992,8275.0,49.32552317957743,0.0
12.0,8269.0,47.68428775080338,0.0
12.008,8217.0,27.634715151379396,0.0
12.016,8169.5,-8.740250050593886,0.0
12.024,8158.0,-40.98096806400349,0.0
12.032,8156.5,-56.4907877847636,0.0
12.04,8142.5,-60.26526215918079,0.0
12.048,8143.5,-56.01646571485276,0.0
12.056,8145.0,-44.500225050342806,0.0
12.064,8156.5,-28.28686921633971,0.0
12.072,8153.0,-12.775287454591762,0.0
12.08,8148.0,-3.401436208785526,0.0
12.088,8153.0,2.6579418422568324,0.0
12.096,8146.0,5.429871027320814,0.0
12.104,8155.0,6.654554487092128,0.0
12.112,8164.0,10.047336096501795,0.0
12.12,8175.0,14.616543287291279,0.0
12.128,8157.5,13.774769040863703,0.0
12.136,8149.0,5.876706130774664,0.0
12.144,8153.0,-0.6045269778137481,0.0
12.152,8159.0,-2.302855884912333,0.0
12.16,8144.0,-4.796812085559395,0.0
12.168,8252.0,13.455496320047587,0.0
12.176,8415.0,77.57539274203782,0.0
12.184,8066.5,65.83664567154597,0.0
12.192,8159.5,-3.2861031869604176,0.0
12.2,8178.0,-20.887428966031393,0.0
12.208,8182.0,-23.533274692031227,0.0
12.216,8198.0,-17.444084788780856,0.0
12.224,8211.5,-5.171344447038564,0.0
12.232,8223.5,8.080441835868442,0.0
12.24,8258.0,24.192424367054173,0.0
12.248,8274.5,40.472509224440955,0.0
12.256,8254.0,43.14721115799057,0.0
12.264,8212.5,25.52074786691378,0.0
12.272,8170.0,-5.934029315709495,0.0
12.28,8151.5,-36.099014081056794,0.0
12.288,8156.5,-51.223560840939626,0.0
12.296,8147.5,-53.21929971825102,0.0
12.304,8135.5,-50.62121970062594,0.0
12.312,8130.5,-44.88305906174287,0.0
12.32,8143.0,-33.152462607902635,0.0
12.328,8155.0,-16.183332363293175,0.0
12.336,8155.5,-1.1404722024105922,0.0
12.344,8164.0,9.767466963187644,0.0
12.352,8169.0,17.495602049300487,0.0
12.36,8166.5,19.924220679849213,0.0
12.368,8157.0,15.888144812485962,0.0
12.376,8160.0,9.764430551608484,0.0
12.384,8174.0,8.135587120583068,0.0
12.392,8154.5,4.815186231480766,0.0
12.4,8151.0,-2.577451407833678,0.0
12.408,8158.5,-5.74146976671409,0.0
12.416,8167.0,-3.4733772332385797,0.0
12.424,8167.0,0.13113094490222466,0.0
12.432,8280.0,25.32894328594307,0.0
12.44,8373.0,78.47669099754262,0.0
12.448,8071.5,55.413466855526394,0.0
12.456,8162.5,-9.632745041821863,1.0
12.464,8186.0,-23.248085292138285,0.0
12.472,8179.5,-24.302376918403525,0.0
12.48,8197.5,-18.891896575364626,0.0
12.488,8205.5,-7.5160914776092795,0.0
12.496,8242.0,9.442455768386935,0.0
12.504,8276.5,32.54548342886869,0.0
12.512,8278.0,48.629126136907416,0.0
12.52,8258.0,46.98865115450485,0.0
12.528,8212.0,25.41058840633491,0.0
12.536,8176.5,-7.853704645365724,0.0
12.544,8163.0,-36.34617878210361,0.0
12.552,8155.5,-51.97638860970051,0.0
12.56,8148.0,-56.40434728319906,0.0
12.568,8144.0,-52.82092940696202,0.0
12.576,8150.0,-42.28482396552704,0.0
12.584,8166.5,-25.04614160962933,0.0
12.592,8172.5,-6.457154037847204,0.0
12.6,8158.0,3.778766328711754,0.0
12.608,8147.5,4.151846573049397,0.0
12.616,8155.5,3.23226460706087,0.0
12.624,8157.0,4.139233712875921,0.0
12.632,8171.5,7.3168702474285965,0.0
12.64,8170.5,10.844856489380845,0.0
12.648,8173.0,11.593544722332581,0.0
12.656,8162.5,8.644192890624936,0.0
12.664,8167.5,4.465734872297844,0.0
12.672,8166.0,2.032596456101601,0.0
12.68,8159.0,-1.451080212955958,0.0
12.688,8161.0,-4.31282408527818,0.0
12.696,8232.5,9.66473093019863,0.0
12.704,8438.0,73.0570749677222,0.0
12.712,8051.0,62.39028822012415,0.0
12.72,8153.5,-11.500720506746347,0.0
12.728,8189.0,-25.26258252037087,0.0
12.736,8201.5,-19.764779764730974,0.0
12.744,8205.5,-10.145850772415542,0.0
12.752,8216.0,0.04336066158498397,0.0
12.76,8241.5,13.417499192420337,0.0
12.768,8269.0,30.12063510821281,0.0
12.776,8281.5,43.60423131354855,0.0
12.784,8286.5,48.542756157121175,0.0
12.792,8240.0,35.6252525930156,0.0
12.8,8200.0,4.912632184264112,0.0
12.808,8169.5,-28.39878203104854,1.0
12.816,8161.5,-51.659088656196445,0.0
12.824,8153.5,-60.851881239277645,0.0
12.832,8155.0,-58.39057551627525,0.0
12.84,8154.5,-47.8779620853154,0.0
12.848,8161.0,-33.17615070922943,0.0
12.856,8166.5,-17.00001776594081,0.0
12.864,8163.5,-4.345323997961486,0.0
12.872,8166.5,3.7974434418874807,0.0
12.88,8169.5,9.263130378637925,0.0
12.888,8172.5,12.316933665598754,0.0
12.896,8168.5,12.05125454442009,0.0
12.904,8182.5,12.110028157577517,0.0
12.912,8197.5,16.23348747114619,0.0
12.92,8200.5,19.888321036518846,0.0
12.928,8173.0,14.029109165988075,0.0
12.936,8128.0,-6.37480737827309,0.0
12.944,8143.5,-23.502028258093105,0.0
12.952,8167.5,-21.997971001155292,0.0
12.96,8155.5,-15.321712071180627,0.0
12.968,8311.0,20.266737139999577,0.0
12.976,8279.0,63.47216256515139,0.0
12.984,8061.0,28.32544482126741,0.0
12.992,8153.0,-22.49664174489817,0.0
13.0,8184.5,-23.9108317267212,0.0
13.008,8185.5,-14.482240240176452,0.0
13.016,8197.5,-4.054597501984745,0.0
13.024,8206.0,6.915184960148508,0.0
13.032,8231.5,19.300500586523867,0.0
13.04,8266.5,36.05917199785654,0.0
13.048,8280.5,50.513966934577866,0.0
13.056,8260.5,50.17819025669837,0.0
13.064,8218.5,29.705355456570715,0.0
13.072,8183.0,-2.739241689514074,0.0
13.08,8161.5,-33.15676856595087,0.0
13.088,8160.5,-50.715454881495816,0.0
13.096,8158.0,-54.12562432781829,0.0
13.104,8182.0,-43.54384167552621,0.0
13.112,8188.0,-24.555007764563243,0.0
13.12,8220.0,-1.8387823597590796,0.0
13.128,8208.5,16.06250390257196,0.0
13.136,8223.0,24.82693237400167,0.0
13.144,8189.5,22.364429269360926,0.0
13.152,8186.0,9.958267038702388,0.0
13.16,8173.0,-2.25947127785048,0.0
13.168,8173.5,-11.6962193645154,0.0
13.176,8176.0,-14.890909240982865,0.0
13.184,8181.5,-12.888199367394009,0.0
13.192,8159.5,-13.120760501180257,0.0
13.2,8174.5,-12.69914037989588,0.0
13.208,8180.0,-6.336288461556933,0.0
13.216,8187.5,1.0432585100259075,0.0
13.224,8169.5,3.1041814637496827,0.0
13.232,8340.0,35.00825305671037,0.0
13.24,8301.5,75.53631282502397,0.0
13.248,8083.5,35.649182509385355,1.0
13.256,8195.0,-15.102875241864922,0.0
13.264,8212.5,-16.472978038320434,0.0
13.272,8213.0,-11.108341827044342,0.0
13.28,8211.0,-6.558000314307492,0.0
13.288,8244.5,3.562810374909759,0.0
13.296,8277.5,22.594081840938088,0.0
13.304,8302.5,42.27306272470173,0.0
13.312,8323.5,56.89992221642001,0.0
13.32,8308.5,58.14932792713239,0.0
13.328,8257.0,36.48609511099653,0.0
13.336,8184.5,-7.190529957108083,0.0
13.344,8144.0,-55.01663794829187,0.0
13.352,8144.0,-83.23393105198966,0.0
13.36,8148.5,-86.38299156827134,0.0
13.368,8175.0,-68.81533407178404,0.0
13.376,8171.0,-43.39586493850925,0.0
13.384,8177.5,-21.272755392338922,0.0
13.392,8178.5,-3.431727886802719,0.0
13.4,8178.5,7.844017645487156,0.0
13.408,8176.0,12.812477241634951,0.0
13.416,8182.0,14.52334615929567,0.0
13.424,8178.0,13.7418421616037,0.0
13.432,8169.5,8.642476208855896,0.0
13.44,8188.0,6.359426429732821,0.0
13.448,8176.5,5.475176214239582,0.0
13.456,8167.0,-0.16818655590054732,0.0
13.464,8171.0,-4.603817461102153,0.0
13.472,8168.5,-6.222597961271504,0.0
13.48,8165.5,-7.360177314811608,0.0
13.488,8216.0,2.7872390417530823,0.0
13.496,8547.0,86.30659047871268,0.0
13.504,8040.5,86.7599047297972,0.0
13.512,8123.5,-12.647230685743807,0.0
13.52,8168.5,-43.368471724213805,0.0
13.528,8163.0,-46.89190825552146,0.0
13.536,8184.5,-38.59748284373404,0.0
13.544,8194.5,-21.404863380523693,0.0
13.552,8221.5,-0.43281613444150935,0.0
13.56,8255.0,24.39583793724364,0.0
13.568,8273.0,45.90225848729551,0.0
13.576,8284.0,57.58651985711458,0.0
13.584,8239.0,48.819548611128766,0.0
13.592,8175.5,14.06651702328918,0.0
13.6,8146.0,-27.618995238286743,1.0
13.608,8138.5,-55.643503287976046,0.0
13.616,8134.0,-66.23254915396092,0.0
13.624,8137.5,-62.65755802052331,0.0
13.632,8143.5,-49.10283095444993,0.0
13.64,8139.0,-33.33556772087309,0.0
13.648,8145.0,-18.65031746008208,0.0
13.656,8143.5,-6.218522691163571,0.0
13.664,8153.0,3.7108282746517034,0.0
13.672,8156.0,11.574185002960348,0.0
13.68,8149.5,13.754725261480644,0.0
13.688,8162.5,14.286869830327532,0.0
13.696,8171.0,16.827988872561264,0.0
13.704,8158.5,14.962277445872814,0.0
13.712,8152.0,7.708725254620958,0.0
13.72,8153.5,1.2287485871006538,0.0
13.728,8156.5,-1.8704380111305454,0.0
13.736,8158.5,-2.3982072543526556,0.0
13.744,8148.0,-4.083289594334019,0.0
13.752,8537.5,72.96924279712402,0.0
13.76,8051.5,87.75995538115876,0.0
13.768,8116.0,-2.911084131133748,0.0
13.776,8167.0,-32.49568749651962,0.0
13.784,8191.5,-29.64053113253908,0.0
13.792,8195.0,-17.73771890461626,0.0
13.8,8202.0,-5.86400916824573,0.0
13.808,8217.0,6.54175433501905,0.0
13.816,8228.5,18.300667090056095,0.0
13.824,8268.0,32.89961360468601,0.0
13.832,8279.0,46.86262838063476,0.0
13.84,8252.5,44.848741918820906,0.0
13.848,8193.5,19.390413661966704,0.0
13.856,8156.0,-18.320444828856125,0.0
13.864,8142.5,-48.264330728590494,0.0
13.872,8130.5,-63.86532427871748,0.0
13.88,8133.0,-65.34984698209382,0.0
13.888,8135.5,-55.29847898241519,0.0
13.896,8137.5,-40.05086068096648,0.0
13.904,8140.0,-24.041907426926173,0.0
13.912,8156.0,-7.149636671399321,0.0
13.92,8138.5,3.617942478281975,0.0
13.928,8148.5,7.9050920697247875,0.0
13.936,8142.5,10.05920330220556,0.0
13.944,8155.5,11.238152949789537,0.0
13.952,8174.5,16.76917156895138,0.0
13.96,8172.5,20.970916530689465,0.0
13.968,8165.0,18.335525267533058,0.0
13.976,8164.5,12.362670571392073,0.0
13.984,8152.5,4.402247066134578,0.0
13.992,8151.5,-3.6288776042454174,0.0
14.0,8156.5,-7.011087518832255,0.0
14.008,8510.5,65.39563866041885,0.0
14.016,8017.5,69.90429185881999,0.0
14.024,8115.5,-18.726439430361097,1.0
14.032,8164.0,-38.37328778347887,0.0
14.04,8167.0,-33.653065692244354,0.0
14.048,8173.5,-23.818474316436323,0.0
14.056,8182.0,-11.326638978527626,0.0
14.064,8200.0,3.192235853032116,0.0
14.072,8227.5,20.590381363467714,0.0
14.08,8249.5,37.870761885920274,0.0
14.088,8247.0,46.332562003929525,0.0
14.096,8212.0,36.6510124474421,0.0
14.104,8172.0,10.04607208199468,0.0
14.112,8139.5,-22.022958657141317,0.0
14.12,8125.0,-47.25172882956099,0.0
14.128,8127.5,-57.45967198395351,0.0
14.136,8129.0,-53.96786494304774,0.0
14.144,8137.0,-41.77979285125434,0.0
14.152,8119.0,-30.280485609570633,0.0
14.16,8116.0,-23.179252541635833,0.0
14.168,8125.0,-14.239541785585516,0.0
14.176,8138.5,-2.1969604249870827,0.0
14.184,8147.5,9.854856017209613,0.0
14.192,8153.5,18.552680263272578,0.0
14.2,8178.0,27.114929010361948,0.0
14.208,8165.5,30.519295406992114,0.0
14.216,8145.0,21.163619462263796,0.0
14.224,8139.0,7.008061773699637,0.0
14.232,8146.5,-2.1195653543602475,0.0
14.24,8141.5,-6.685525803382234,0.0
14.248,8163.0,-5.001259060325992,0.0
14.256,8492.0,68.3605023378434,0.0
14.264,8031.5,74.51670964331038,0.0
14.272,8131.0,-6.892729815574057,0.0
14.28,8184.5,-22.735092783789014,0.0
14.288,8192.5,-16.092831011945464,0.0
14.296,8198.0,-6.966684089769842,0.0
14.304,8217.0,4.492105889059758,0.0
14.312,8237.5,18.657641676205458,0.0
14.32,8264.0,33.80853622646373,0.0
14.328,8277.0,45.712859695534235,0.0
14.336,8272.5,47.559004875922255,0.0
14.344,8241.0,34.08547591667002,0.0
14.352,8182.5,2.5624184396863257,0.0
14.36,8154.5,-34.140779966135824,1.0
14.368,8152.5,-56.79987050083082,0.0
14.376,8146.0,-63.32544549021077,0.0
14.384,8156.0,-56.86872189937935,0.0
14.392,8148.5,-43.91750466326084,0.0
14.4,8159.5,-28.884711170169794,0.0
14.408,8163.0,-12.652716775798353,0.0
14.416,8161.5,-0.7262391932429182,0.0
14.424,8160.5,5.926414360171975,0.0
14.432,8168.0,10.290223692777545,0.0
14.44,8172.0,13.660313445163865,0.0
14.448,8179.0,15.829623278683357,0.0
14.456,8161.0,12.465282737036205,0.0
14.464,8154.5,3.580363095253915,0.0
14.472,8161.0,-2.2169890391685385,0.0
14.48,8161.0,-3.981456469490695,0.0
14.488,8161.5,-4.319173390946617,0.0
14.496,8261.0,16.566021475800426,0.0
14.504,8333.5,61.54562867599611,0.0
14.512,8060.0,37.75098477705387,0.0
14.52,8165.5,-16.367161764252387,0.0
14.528,8183.5,-20.659937695698318,0.0
14.536,8183.0,-16.491123465566034,0.0
14.544,8201.5,-7.848029795277853,0.0
14.552,8210.0,3.9694577593922986,0.0
14.56,8225.0,15.157553138257072,0.0
14.568,8242.0,26.0137367107136,0.0
14.576,8264.5,36.5599588000598,0.0
14.584,8270.0,42.97447894906327,0.0
14.592,8238.5,34.940755901662214,0.0
14.6,8172.5,4.972863949630664,0.0
14.608,8140.5,-33.52552359896822,0.0
14.616,8150.0,-55.8073099783237,0.0
14.624,8153.5,-57.86776408067635,0.0
14.632,8155.0,-49.291373043281965,0.0
14.64,8172.5,-32.864439898405635,0.0
14.648,8176.0,-13.876624404578934,1.0
14.656,8167.0,-1.667056106423388,0.0
14.664,8177.0,6.010708663488913,0.0
14.672,8173.0,10.865836656033707,0.0
14.68,8187.5,14.23492091015828,0.0
14.688,8187.5,17.031571704658063,0.0
14.696,8187.5,16.103319071860824,0.0
14.704,8169.5,9.435483911369147,0.0
14.712,8160.0,-1.5566662106391504,0.0
14.72,8168.5,-8.025697523831695,0.0
14.728,8164.5,-9.715327792546077,0.0
14.736,8172.0,-8.526561094938643,0.0
14.744,8342.0,29.732597188539103,0.0
14.752,8187.5,51.017850418314765,0.0
14.76,8089.5,4.2850476405262725,0.0
14.768,8180.5,-25.432424449379596,0.0
14.776,8185.5,-19.538553580850476,0.0
14.784,8190.0,-11.149794889362965,0.0
14.792,8192.0,-3.1703009594593823,0.0
14.8,8207.5,5.604678066954648,0.0
14.808,8237.0,19.137987940642233,0.0
14.816,8249.5,32.82065484302575,0.0
14.824,8247.0,37.97957106296576,0.0
14.832,8234.0,32.105731569846284,0.0
14.84,8189.0,11.914896902725332,0.0
14.848,8161.5,-16.644178202162493,0.0
14.856,8150.5,-38.87609599770917,0.0
14.864,8153.0,-47.866497510836325,0.0
14.872,8164.0,-43.168219002563546,0.0
14.88,8167.5,-30.88249135035244,0.0
14.888,8193.0,-13.009858157051212,0.0
14.896,8204.5,7.091566205848949,0.0
14.904,8200.0,19.334456063042126,0.0
14.912,8180.5,18.740329404878594,0.0
14.92,8176.0,10.644488956780378,0.0
14.928,8171.0,2.301934263955218,0.0
14.936,8188.0,-0.5292293414704545,0.0
14.944,8176.5,-0.9996828816995276,0.0
14.952,8168.0,-5.21236109121196,0.0
14.96,8178.0,-6.6070253374582535,0.0
14.968,8176.5,-4.693567439894878,0.0
14.976,8175.0,-3.463253842425047,0.0
14.984,8176.5,-2.210578248245838,0.0
14.992,8460.5,57.193287125647885,0.0
15.0,8132.5,74.66422149770642,0.0
15.008,8123.0,4.724997805316889,1.0
15.016,8199.5,-23.665153995068295,0.0
15.024,8200.0,-21.13596281804348,0.0
15.032,8203.5,-15.618538587416879,0.0
15.04,8214.5,-7.02522623826485,0.0
15.048,8238.0,6.170330176225207,0.0
15.056,8262.0,22.742954753781078,0.0
15.064,8276.0,36.85930854421895,0.0
15.072,8284.5,44.21615920729482,0.0
15.08,8278.0,42.27189856951122,0.0
15.088,8230.5,23.68090274311521,0.0
15.096,8189.5,-8.984708862790058,0.0
15.104,8161.0,-41.1398170884886,0.0
15.112,8153.0,-61.375993305907286,0.0
15.12,8153.0,-65.67271611893102,0.0
15.128,8170.0,-54.78391796417873,0.0
15.136,8180.5,-34.420139414672576,0.0
15.144,8189.5,-13.174668865962303,0.0
15.152,8185.5,2.4088068196663244,0.0
15.16,8194.5,12.281149224577348,0.0
15.168,8190.5,17.279173186148228,0.0
15.176,8198.5,18.43247300522171,0.0
15.184,8192.5,16.72855379072257,0.0
15.192,8206.5,14.81901916106358,0.0
15.2,8188.5,10.625782011248248,0.0
15.208,8183.5,1.8359955408895985,0.0
15.216,8186.0,-4.151380342705352,0.0
15.224,8199.0,-3.8962435321629982,0.0
15.232,8188.0,-2.7460378857495016,0.0
15.24,8452.5,50.140782553687586,0.0
15.248,8158.5,67.78915218501493,0.0
15.256,8119.0,-0.18559163287045521,0.0
15.264,8207.0,-30.449015202837472,0.0
15.272,8227.5,-21.563684464395237,0.0
15.28,8221.0,-10.179393882691329,0.0
15.288,8216.5,-4.150736003316069,0.0
15.296,8225.0,0.8611061960975803,0.0
15.304,8246.5,9.823572275941842,0.0
15.312,8255.5,19.865765571901193,1.0
15.32,8264.5,26.47023242326486,0.0
15.328,8246.0,24.422045724169266,0.0
15.336,8197.5,5.819925862133232,0.0
15.344,8166.5,-22.30562214471206,0.0
15.352,8162.0,-42.809908529903396,0.0
15.36,8177.0,-46.30046360088909,0.0
15.368,8195.0,-34.603148125313965,0.0
15.376,8188.0,-20.191820276871795,0.0
15.384,8193.0,-9.01626810686912,0.0
15.392,8202.5,1.922269643071786,0.0
15.4,8209.5,11.470827668716538,0.0
15.408,8200.5,14.97011462455498,0.0
15.416,8189.5,10.683924598896283,0.0
15.424,8194.0,5.201314449388519,0.0
15.432,8192.0,1.6810792422579652,0.0
15.44,8211.0,2.8174605016292844,0.0
15.448,8201.0,4.901061655822332,0.0
15.456,8188.5,0.7934726000639785,0.0
15.464,8174.0,-7.272170863746396,0.0
15.472,8183.5,-11.961136292912443,0.0
15.48,8194.5,-8.732566374392945,0.0
15.488,8216.5,1.242691891666027,0.0
15.496,8558.0,81.21698605928782,0.0
15.504,8060.0,84.22711905236201,0.0
15.512,8158.5,-8.380697986768837,0.0
15.52,8184.0,-36.54489336105462,0.0
15.528,8201.5,-38.875579438829845,0.0
15.536,8213.5,-28.333072316260996,0.0
15.544,8221.5,-13.716606306582662,0.0
15.552,8241.0,2.62541968274013,0.0
15.56,8264.0,20.57480733114312,0.0
15.568,8294.0,38.8986056373908,0.0
15.576,8302.5,51.703363729414605,0.0
15.584,8264.5,45.410362017667694,0.0
15.592,8205.0,14.884613928899398,0.0
15.6,8165.5,-25.650727933503504,0.0
15.608,8158.5,-55.23429749193906,0.0
15.616,8152.0,-67.11386142910578,1.0
15.624,8166.5,-62.32975579325739,0.0
15.632,8168.0,-46.78170373271155,0.0
15.64,8186.5,-26.40793641822097,0.0
15.648,8200.0,-3.817542772688057,0.0
15.656,8202.5,13.389976520147911,0.0
15.664,8185.0,18.471884208435313,0.0
15.672,8179.0,13.875690987831376,0.0
15.68,8177.5,7.521535177116675,0.0
15.688,8173.5,1.4996898593931292,0.0
15.696,8188.0,-0.14383156296958077,0.0
15.704,8168.0,-2.217655393638097,0.0
15.712,8161.5,-8.521860498436581,0.0
15.72,8178.5,-8.812983710041863,0.0
15.728,8183.5,-3.154383008585455,0.0
15.736,8173.5,-0.35115830724475927,0.0
15.744,8237.0,12.289998004059953,0.0
15.752,8469.5,78.37569223716514,0.0
15.76,8050.0,67.3717286651272,0.0
15.768,8146.0,-15.441663197311982,0.0
15.776,8172.0,-37.15152764797426,0.0
15.784,8178.5,-37.718318794997,0.0
15.792,8181.0,-30.496268389793613,0.0
15.8,8210.5,-15.063939059083623,0.0
15.808,8227.5,5.8465743634528735,0.0
15.816,8249.5,25.294339992791947,0.0
15.824,8291.5,46.03604877566431,0.0
15.832,8282.5,58.064979977372104,0.0
15.84,8237.0,45.24113880186519,0.0
15.848,8174.5,8.733560602759098,0.0
15.856,8144.5,-33.07889807926972,0.0
15.864,8130.0,-61.88295249848011,0.0
15.872,8130.5,-72.39564830336371,0.0
15.88,8134.5,-66.71745075899298,0.0
15.888,8155.0,-48.2388508643553,0.0
15.896,8160.5,-24.685236741731615,0.0
15.904,8158.0,-6.400192445666562,0.0
15.912,8162.0,5.690348561998007,0.0
15.92,8159.0,12.182251397890468,0.0
15.928,8164.0,14.58318057630072,0.0
15.936,8162.5,14.507156711760672,0.0
15.944,8154.5,10.321882300432435,0.0
15.952,8163.5,6.486099546925516,0.0
15.96,8152.5,2.8256530517667215,0.0
15.968,8161.5,-0.17613297462116861,0.0
15.976,8151.0,-2.2311316803979935,0.0
15.984,8141.5,-7.194205115279374,0.0
15.992,8128.5,-13.635400697224213,0.0
16.0,8291.5,15.26769819037986,0.0
16.008,8298.0,64.67516968423138,0.0
16.016,8047.0,34.1375962154184,0.0
16.024,8155.0,-18.31295479313144,0.0
16.032,8188.5,-17.6470974480078,0.0
16.04,8196.5,-6.099318033236159,0.0
16.048,8220.5,8.192374659560528,0.0
16.056,8228.5,21.940023837543094,0.0
16.064,8248.0,32.36226698305086,0.0
16.072,8273.5,42.81299982896053,0.0
16.08,8286.0,50.26602121224619,0.0
16.088,8276.0,47.56355570267078,0.0
16.096,8222.0,25.678872840758004,0.0
16.104,8167.0,-13.425702595919574,1.0
16.112,8141.5,-50.962805414073046,0.0
16.12,8135.5,-71.87109926368385,0.0
16.128,8137.5,-74.15692609724397,0.0
16.136,8148.5,-61.609784296755606,0.0
16.144,8149.5,-42.39704492082137,0.0
16.152,8157.5,-22.76806266699805,0.0
16.16,8166.5,-4.234493866827734,0.0
16.168,8170.0,9.92198772283541,0.0
16.176,8161.5,15.768313022392704,0.0
16.184,8172.0,17.243759439861606,0.0
16.192,8177.5,18.770791740221966,0.0
16.2,8191.5,20.811868610712963,0.0
16.208,8179.5,19.272234821910615,0.0
16.216,8168.0,10.63873028811372,0.0
16.224,8169.5,1.8769246113913596,0.0
16.232,8164.5,-4.304409631469525,0.0
16.24,8161.5,-8.941847799439529,0.0
16.248,8151.0,-13.086792543502952,0.0
16.256,8501.0,55.80613603733923,0.0
16.264,8100.5,77.77123986654692,0.0
16.272,8099.5,-3.0564528315119333,0.0
16.28,8172.0,-35.7869137770856,0.0
16.288,8172.5,-34.803975708485495,0.0
16.296,8171.5,-29.048124642181392,0.0
16.304,8180.5,-19.60567865178814,0.0
16.312,8198.0,-5.635007517245413,0.0
16.32,8218.5,11.244989335344826,0.0
16.328,8258.5,31.88311840260667,0.0
16.336,8271.0,49.980410103390795,0.0
16.344,8250.5,51.47109187158662,0.0
16.352,8193.0,28.61358925101831,0.0
16.36,8151.5,-9.468239591772772,0.0
16.368,8133.0,-42.812322965479325,0.0
16.376,8130.0,-60.43357312845319,0.0
16.384,8126.0,-63.12241418227859,0.0
16.392,8126.5,-55.857540180060596,0.0
16.4,8139.0,-40.43653255191634,0.0
16.408,8134.5,-23.55151184296392,0.0
16.416,8151.5,-7.441290943588228,0.0
16.424,8153.5,7.09617033880545,0.0
16.432,8150.5,14.413436967636244,0.0
16.44,8155.5,16.96421086438545,0.0
16.448,8158.0,17.433015920340495,0.0
16.456,8159.0,15.782268358973624,0.0
16.464,8149.0,10.574533385120503,0.0
16.472,8146.5,3.337703125912867,0.0
16.48,8145.5,-2.1632344341646785,0.0
16.488,8157.0,-2.943349309296991,0.0
16.496,8140.5,-3.9799655848237308,0.0
16.504,8140.0,-7.462722994237083,0.0
16.512,8486.5,62.29710211537099,0.0
16.52,8068.5,79.50046273885391,0.0
16.528,8100.0,-1.3409752746294998,1.0
16.536,8157.5,-30.76438739804462,0.0
16.544,8177.0,-27.769937093132967,0.0
16.552,8182.5,-16.681253266962358,0.0
16.56,8192.0,-4.5298366764950515,0.0
16.568,8187.5,4.364771891733426,0.0
16.576,8220.0,14.683700877485535,0.0
16.584,8253.5,32.043930500007264,0.0
16.592,8256.5,44.90948367220744,0.0
16.6,8237.0,42.338379194598474,0.0
16.608,8188.5,20.50637816707581,0.0
16.616,8143.5,-14.616167297014727,0.0
16.624,8125.0,-46.14470164074987,0.0
16.632,8132.5,-60.04185250455157,0.0
16.64,8133.0,-57.5231444781416,0.0
16.648,8146.0,-44.55433589990594,0.0
16.656,8159.5,-24.715668824886507,0.0
16.664,8166.5,-5.047759800045924,0.0
16.672,8161.5,7.757710788098166,0.0
16.68,8168.0,14.46113569587419,0.0
16.688,8165.5,17.050254569160643,0.0
16.696,8169.0,16.200736181814136,0.0
16.704,8166.0,13.344259990106366,0.0
16.712,8166.5,9.121045295669774,0.0
16.72,8147.5,1.4610197113936465,0.0
16.728,8135.5,-9.623940177485565,0.0
16.736,8141.5,-15.946269200085226,0.0
16.744,8150.0,-14.305279576628209,0.0
16.752,8143.0,-10.859500546419213,0.0
16.76,8311.0,25.717188666322727,0.0
16.768,8211.0,57.34200906487854,0.0
16.776,8066.0,17.297448349294882,0.0
16.784,8154.5,-20.550332753081193,0.0
16.792,8178.0,-16.936082768882216,0.0
16.8,8189.5,-5.08038238383233,0.0
16.808,8203.0,7.808825821618711,0.0
16.816,8219.0,20.27444645621108,0.0
16.824,8237.0,31.518976583268113,0.0
16.832,8268.5,43.503215082155975,0.0
16.84,8288.0,54.414415117057615,0.0
16.848,8277.5,54.45612063742374,0.0
16.856,8228.5,34.06869550762258,0.0
16.864,8179.5,-3.1750912526940738,0.0
16.872,8169.0,-36.87552307747569,0.0
16.88,8157.5,-55.709756476961275,0.0
16.888,8175.5,-57.07407905088485,0.0
16.896,8180.0,-44.63106456872083,0.0
16.904,8188.0,-27.951929823640512,0.0
16.912,8204.0,-8.946854758341487,0.0
16.92,8205.5,7.2244285140677675,0.0
16.928,8208.5,16.612143854663827,0.0
16.936,8206.5,19.849726965459467,0.0
16.944,8208.0,18.65282496389409,0.0
16.952,8211.0,16.036344370110783,0.0
16.96,8212.5,12.977016678780728,0.0
16.968,8180.0,2.8669408700741315,0.0
16.976,8178.5,-10.493031397687218,0.0
16.984,8182.5,-16.292477496742777,0.0
16.992,8186.0,-15.719872280195432,0.0
17.0,8179.5,-13.610818785278752,0.0
17.008,8484.5,50.68382881102275,0.0
17.016,8049.0,54.362053139199816,1.0
17.024,8135.5,-23.005567654701508,0.0
17.032,8181.0,-38.30502663425477,0.0
17.04,8195.0,-29.389708236141587,0.0
17.048,8187.5,-18.333421606149386,0.0
17.056,8197.5,-8.504436746301963,0.0
17.064,8215.5,4.318204768769419,0.0
17.072,8237.0,19.31668556847535,0.0
17.08,8241.0,30.467795870438295,0.0
17.088,8261.0,37.34648642276761,0.0
17.096,8237.5,35.03731163025623,0.0
17.104,8172.5,10.278976509227505,0.0
17.112,8143.0,-25.227904127528973,0.0
17.12,8143.0,-48.428641073711105,0.0
17.128,8155.5,-52.25340473830306,0.0
17.136,8144.5,-46.28667949766282,0.0
17.144,8143.0,-38.29412137548047,0.0
17.152,8145.5,-27.557194050147928,0.0
17.16,8152.0,-15.190689623579374,0.0
17.168,8161.5,-2.305258254515138,0.0
17.176,8155.0,6.277571448556728,0.0
17.184,8168.5,11.831794626658166,0.0
17.192,8175.0,17.408729821840552,0.0
17.2,8179.5,20.31486024499145,0.0
17.208,8161.5,16.19550725911813,0.0
17.216,8149.0,5.072723489584632,0.0
17.224,8154.0,-3.8066134337125277,0.0
17.232,8175.5,-3.066739279908461,0.0
17.24,8167.0,0.49168566380285483,0.0
17.248,8321.5,32.349507306700616,0.0
17.256,8221.5,57.41999828565622,0.0
17.264,8073.0,12.772340985327446,0.0
17.272,8172.0,-25.681538390142578,0.0
17.28,8187.0,-21.2391809362166,0.0
17.288,8202.0,-9.262842806623667,0.0
17.296,8226.0,7.192032269919537,0.0
17.304,8235.5,22.677098893659604,0.0
17.312,8253.0,33.9129481615787,0.0
17.32,8254.5,39.29792332507736,0.0
17.328,8268.5,39.691222507735574,0.0
17.336,8256.0,34.212612406013704,0.0
17.344,8230.0,17.919953819973216,0.0
17.352,8188.5,-8.222679764773147,0.0
17.36,8160.5,-36.63564214839175,0.0
17.368,8150.0,-55.750207218529795,0.0
17.376,8146.5,-61.46235156859643,0.0
17.384,8156.5,-54.194130995289925,0.0
17.392,8169.5,-36.98032843393344,0.0
17.4,8162.0,-20.06980515732721,0.0
17.408,8172.0,-6.515378154256723,0.0
17.416,8182.5,6.676662759947249,0.0
17.424,8176.5,14.385506835343904,0.0
17.432,8178.0,15.84413816821393,0.0
17.44,8191.5,17.369124336135428,0.0
17.448,8189.5,17.98709385587449,0.0
17.456,8178.0,12.867443144302115,0.0
17.464,8175.5,5.028622352353523,0.0
17.472,8179.0,-0.1653410204401098,0.0
17.48,8186.0,-1.0668160908899154,0.0
17.488,8193.5,1.5241569024849468,0.0
17.496,8483.0,63.50271869970629,0.0
17.504,8063.0,63.867718690076345,1.0
17.512,8163.0,-10.975784707682351,0.0
17.52,8202.5,-25.07408572613963,0.0
17.528,8215.0,-18.986627485025565,0.0
17.536,8213.5,-10.260608814860461,0.0
17.544,8233.5,0.23513889765217755,0.0
17.552,8253.5,14.578689931208146,0.0
17.56,8267.0,27.69521850699789,0.0
17.568,8278.0,36.25876005276564,0.0
17.576,8274.5,37.358224584070285,0.0
17.584,8264.0,29.48428675140235,0.0
17.592,8220.0,9.223092085313056,0.0
17.6,8169.5,-23.46410255861292,0.0
17.608,8153.0,-52.925975905260884,0.0
17.616,8159.0,-64.47063522925328,0.0
17.624,8159.5,-60.19566308489175,0.0
17.632,8163.0,-47.7238752677481,0.0
17.64,8165.5,-31.88677276987164,0.0
17.648,8173.5,-15.541166679990738,0.0
17.656,8185.0,0.4656881964560853,0.0
17.664,8178.5,10.883016075658361,0.0
17.672,8200.0,18.458325279465726,0.0
17.68,8203.0,25.145220864604198,0.0
17.688,8222.0,29.782145740258784,0.0
17.696,8206.5,28.7241435253909,0.0
17.704,8183.5,15.877941821110198,0.0
17.712,8185.0,1.4809681940771497,0.0
17.72,8184.0,-7.15576012073052,0.0
17.728,8196.5,-8.829149831023415,0.0
17.736,8224.0,-0.30815344592360816,0.0
17.744,8514.0,69.6433811835218,0.0
17.752,8061.5,67.25496087133001,0.0
17.76,8173.5,-13.918623548125197,0.0
17.768,8216.5,-28.147692166457773,0.0
17.776,8217.5,-23.305981247148793,0.0
17.784,8226.5,-14.866131299951348,0.0
17.792,8239.0,-3.2284692556281698,0.0
17.8,8257.0,10.374674078986118,0.0
17.808,8284.5,26.142315079041282,1.0
17.816,8292.0,38.65431728637736,0.0
17.824,8293.0,41.93000101529128,0.0
17.832,8261.0,31.176826345460995,0.0
17.84,8215.5,4.257327821376293,0.0
17.848,8186.0,-27.63084219775783,0.0
17.856,8165.0,-52.617483186333175,0.0
17.864,8167.0,-63.29882561565864,0.0
17.872,8160.0,-61.04040893135152,0.0
17.88,8154.5,-53.00409884848682,0.0
17.888,8166.5,-38.887435938371254,0.0
17.896,8172.0,-21.06780604579717,0.0
17.904,8176.0,-5.394320404127484,0.0
17.912,8186.5,7.655157762368162,0.0
17.92,8180.0,15.029188659643523,0.0
17.928,8178.5,15.477169383650335,0.0
17.936,8185.5,14.519237416042415,0.0
17.944,8169.5,9.912722841260575,0.0
17.952,8166.5,1.8038362670511106,0.0
17.96,8165.0,-4.184582463588413,0.0
17.968,8165.0,-7.398142570747041,0.0
17.976,8160.5,-9.096344692101866,0.0
17.984,8283.0,15.385951864188883,0.0
17.992,8371.5,70.6395237031461,0.0
18.0,8066.0,48.27333053944881,0.0
18.008,8160.5,-15.380279854681703,0.0
18.016,8184.0,-26.585590868292456,0.0
18.024,8184.5,-24.278484167545457,0.0
18.032,8191.5,-17.700904115763024,0.0
18.04,8217.5,-4.385340918957809,0.0
18.048,8220.0,9.976904141708474,0.0
18.056,8249.0,23.393571728449388,0.0
18.064,8261.0,36.157759017433364,0.0
18.072,8258.0,40.063242701658965,0.0
18.08,8220.0,27.92254503868503,0.0
18.088,8182.5,1.0844568104519112,0.0
18.096,8162.5,-26.699258172524196,0.0
18.104,8159.5,-43.78149768521621,0.0
18.112,8149.0,-50.004175276529395,0.0
18.12,8156.5,-46.71593582342257,0.0
18.128,8163.0,-34.82837761057749,0.0
18.136,8174.5,-18.84028730239038,0.0
18.144,8160.5,-7.03929917700907,0.0
18.152,8166.5,-0.6273800057713288,0.0
18.16,8171.5,5.507045702845517,0.0
18.168,8183.0,11.670965423847747,0.0
18.176,8182.5,15.794150336142138,0.0
18.184,8184.0,16.04231630331924,0.0
18.192,8166.5,10.488063551763844,0.0
18.2,8166.0,1.935758563822219,0.0
18.208,8177.0,-1.2703856985065158,0.0
18.216,8178.0,-0.522278771137735,0.0
18.224,8168.0,-1.8393733599161806,0.0
18.232,8301.5,22.89172158508086,0.0
18.24,8319.5,64.998570051255,0.0
18.248,8061.5,31.01374255614769,0.0
18.256,8154.0,-27.59866426009944,0.0
18.264,8176.0,-34.685217378513244,0.0
18.272,8181.0,-28.101382593168864,0.0
18.28,8190.5,-16.984850307871284,0.0
18.288,8197.5,-4.464484053235992,0.0
18.296,8223.0,10.256685177314239,0.0
18.304,8252.5,28.644271190072686,0.0
18.312,8263.0,43.34788260197888,0.0
18.32,8263.5,47.71883255992657,0.0
18.328,8216.5,33.56907856515909,0.0
18.336,8162.5,-0.5229144165355137,1.0
18.344,8142.5,-35.72384386229942,0.0
18.352,8134.0,-56.948032601898376,0.0
18.36,8142.0,-60.96813931748693,0.0
18.368,8139.0,-53.080630123783294,0.0
18.376,8148.5,-39.04036476953456,0.0
18.384,8151.0,-22.366384983306943,0.0
18.392,8146.0,-9.625164922748127,0.0
18.4,8155.5,0.28861393788793066,0.0
18.408,8149.5,6.822902017627484,0.0
18.416,8161.5,10.878641681551471,0.0
18.424,8159.0,13.568726778689324,0.0
18.432,8170.0,14.83901653907833,0.0
18.44,8161.0,13.7490953985332,0.0
18.448,8144.5,5.810321663723471,0.0
18.456,8149.0,-2.217179272968451,0.0
18.464,8161.0,-3.257515943636008,0.0
18.472,8153.0,-2.5616881713151542,0.0
18.48,8279.0,22.34570265711045,0.0
18.488,8324.5,68.7256116185074,0.0
18.496,8061.5,41.29957010883504,0.0
18.504,8157.0,-15.40203600250834,0.0
18.512,8183.5,-21.675441358346916,0.0
18.52,8180.5,-17.298200817005636,0.0
18.528,8200.0,-8.715932953537504,0.0
18.536,8216.5,5.035874101022046,0.0
18.544,8222.0,16.89979030194445,0.0
18.552,8252.0,28.606562360995667,0.0
18.56,8273.0,41.61217758555904,0.0
18.568,8265.0,45.65069041406491,0.0
18.576,8224.5,31.20928676097151,0.0
18.584,8176.5,-0.1436547528387564,0.0
18.592,8142.5,-35.41662051209664,0.0
18.6,8133.0,-59.79450245943417,0.0
18.608,8139.0,-65.86104218317064,0.0
18.616,8148.0,-56.398960026053146,0.0
18.624,8155.5,-38.88138859308265,0.0
18.632,8156.0,-20.992241686609304,0.0
18.64,8146.5,-9.068665495855157,0.0
18.648,8151.5,-1.5615191722981763,0.0
18.656,8150.0,3.8299924100870157,0.0
18.664,8154.0,6.9486034756344,0.0
18.672,8165.0,10.803966978407288,0.0
18.68,8164.5,13.591172334898374,0.0
18.688,8152.5,10.62517853499412,0.0
18.696,8138.0,1.846220367611295,0.0
18.704,8149.5,-4.238452292024931,0.0
18.712,8143.5,-6.070663742164243,0.0
18.72,8149.5,-6.233846294970817,0.0
18.728,8151.0,-3.8529713260786593,0.0
18.736,8529.0,75.67139295883499,0.0
18.744,8027.5,85.99814273421998,0.0
18.752,8120.0,-4.4920051272808905,1.0
18.76,8161.0,-30.052528347829593,0.0
18.768,8167.5,-30.90837246540218,0.0
18.776,8172.0,-24.481134106425316,0.0
18.784,8194.5,-11.452324787854423,0.0
18.792,8206.0,4.935427205088217,0.0
18.8,8227.0,20.518624487148827,0.0
18.808,8261.0,37.860181342547094,0.0
18.816,8263.5,49.83287919137206,0.0
18.824,8237.5,44.55719090351295,0.0
18.832,8184.0,18.439845945180195,0.0
18.84,8144.0,-18.90373417767705,0.0
18.848,8133.0,-48.541978705970905,0.0
18.856,8128.0,-61.979263911474845,0.0
18.864,8131.0,-60.937865898413975,0.0
18.872,8125.0,-51.69598755465131,0.0
18.88,8139.5,-36.65607702634088,0.0
18.888,8145.0,-18.117988302528147,0.0
18.896,8145.5,-3.1818873655370226,0.0
18.904,8151.0,7.359514732670959,0.0
18.912,8160.0,15.44025520604555,0.0
18.92,8159.0,19.51267345663291,0.0
18.928,8171.0,21.210052350223577,0.0
18.936,8159.0,18.998185141042086,0.0
18.944,8153.0,11.132326570685791,0.0
18.952,8141.0,1.115263834210964,0.0
18.96,8150.0,-5.5908001881578,0.0
18.968,8141.0,-8.709124095988273,0.0
18.976,8171.5,-4.840421980899691,0.0
18.984,8494.0,70.29957815610214,0.0
18.992,8032.5,75.68118995598275,0.0
19.0,8142.0,-4.52418554951646,0.0
19.008,8187.5,-19.604964699899483,0.0
19.016,8188.5,-16.051380242138293,0.0
19.024,8192.5,-10.494713424033762,0.0
19.032,8205.0,-2.2464237984374904,0.0
19.04,8229.5,10.531315950558337,0.0
19.048,8262.0,28.136525353644174,0.0
19.056,8276.5,43.8845265604848,0.0
19.064,8281.0,50.42617195740604,0.0
19.072,8251.0,41.44001636828125,0.0
19.08,8207.5,14.82671256388312,0.0
19.088,8181.5,-17.359163351569805,1.0
19.096,8160.5,-43.364121985933934,0.0
19.104,8157.0,-57.1742691056013,0.0
19.112,8161.5,-56.468972469167284,0.0
19.12,8161.5,-46.57114473552474,0.0
19.128,8159.0,-34.167602549058756,0.0
19.136,8154.0,-23.184212487946525,0.0
19.144,8160.0,-12.96935262135321,0.0
19.152,8160.0,-3.7361894498849324,0.0
19.16,8151.0,0.45203102983123244,0.0
19.168,8154.0,1.6345995313731692,0.0
19.176,8161.0,4.129152253698749,0.0
19.184,8141.5,2.4246380974145723,0.0
19.192,8144.0,-2.4241265323692005,0.0
19.2,8142.0,-4.822001333180424,0.0
19.208,8137.0,-6.939133988876847,0.0
19.216,8144.5,-6.6283960718124035,0.0
19.224,8226.5,12.845240677504307,0.0
19.232,8369.5,68.38211270921443,0.0
19.24,8073.5,59.60096571964664,0.0
19.248,8186.5,7.984549118247969,0.0
19.256,8211.0,4.339496884591426,0.0
19.264,8201.0,4.48826200636222,0.0
19.272,8209.0,3.4871663082835767,0.0
19.28,8230.0,8.291148294548975,0.0
19.288,8246.0,17.43430987469901,0.0
19.296,8244.5,23.16067534974104,0.0
19.304,8247.5,23.342257928240315,0.0
19.312,8237.0,18.378427561948456,0.0
19.32,8203.0,3.5650532376901083,0.0
19.328,8171.0,-19.21991047099641,0.0
19.336,8143.5,-41.936834201799456,0.0
19.344,8136.5,-56.061844818185364,0.0
19.352,8127.0,-59.28667901232234,0.0
19.36,8119.5,-55.67839432445726,0.0
19.368,8130.0,-44.49005645782154,0.0
19.376,8142.0,-26.53130564569915,0.0
19.384,8155.0,-6.780550317300367,0.0
19.392,8162.0,10.014041770952417,0.0
19.4,8163.0,20.06249550583675,0.0
19.408,8179.0,26.436537366078255,0.0
19.416,8176.5,28.956105234406095,0.0
19.424,8174.5,25.13673247251222,0.0
19.432,8145.5,12.733610820891045,0.0
19.44,8150.0,-1.537510772706355,0.0
19.448,8156.0,-7.599165119521103,0.0
19.456,8164.0,-7.171682838125662,0.0
19.464,8185.0,0.09316515206865006,0.0
19.472,8362.0,44.827022551363825,0.0
19.48,8214.5,70.51312065261527,0.0
19.488,8108.5,23.222956372887438,0.0
19.496,8196.5,-11.942657954601827,0.0
19.504,8214.0,-9.375159419405236,0.0
19.512,8219.0,-1.8385916443007773,0.0
19.52,8231.5,6.472538733401734,0.0
19.528,8250.5,16.841890232086598,0.0
19.536,8264.5,27.162805463436598,0.0
19.544,8265.5,32.21288815702633,0.0
19.552,8273.5,32.154352086622566,0.0
19.56,8271.0,28.368409175415763,0.0
19.568,8228.0,12.532735596859311,0.0
19.576,8186.5,-15.995985950447903,1.0
19.584,8166.5,-43.00714525726744,0.0
19.592,8175.5,-54.708418553378806,0.0
19.6,8181.5,-50.26957792349526,0.0
19.608,8182.5,-38.59288775400205,0.0
19.616,8191.0,-23.8953172935353,0.0
19.624,8189.0,-10.25243084627914,0.0
19.632,8209.0,3.0477540749386662,0.0
19.64,8215.0,15.763207450621167,0.0
19.648,8221.5,23.44697760795907,0.0
19.656,8213.0,24.02770640183212,0.0
19.664,8230.5,22.566971970965596,0.0
19.672,8213.0,18.281676717300343,0.0
19.68,8200.0,6.74446705026412,0.0
19.688,8210.5,-1.6119126002690791,0.0
19.696,8205.0,-5.287972651395421,0.0
19.704,8210.0,-6.762419847038927,0.0
19.712,8225.0,-2.523126332918764,0.0
19.72,8500.0,59.61375964322815,0.0
19.728,8069.0,55.45233336852584,0.0
19.736,8175.0,-21.813723436117698,0.0
19.744,8219.0,-33.55640045389487,0.0
19.752,8222.0,-25.81131515027141,0.0
19.76,8229.0,-15.274576187342745,0.0
19.768,8232.0,-4.684351849505219,0.0
19.776,8247.5,6.068457646397746,0.0
19.784,8260.0,17.22802472753142,0.0
19.792,8285.5,28.979233725856147,0.0
19.8,8293.5,38.37936308006351,0.0
19.808,8270.0,34.95315685375749,0.0
19.816,8221.5,12.917933642711432,0.0
19.824,8191.5,-18.109786961293594,0.0
19.832,8183.0,-41.57945404805196,0.0
19.84,8176.0,-52.32210323210643,0.0
19.848,8167.0,-54.011453005559815,0.0
19.856,8171.5,-47.741111587556816,0.0
19.864,8186.0,-32.91301032098954,0.0
19.872,8193.5,-14.65907669049625,0.0
19.88,8191.0,-0.6197372590863779,0.0
19.888,8184.0,5.836206588063305,0.0
19.896,8178.5,6.21564302599063,0.0
19.904,8186.5,6.008428321684505,0.0
19.912,8185.0,6.302888591241754,0.0
19.92,8192.5,6.747244548611434,0.0
19.928,8166.0,2.1053583530483593,0.0
19.936,8181.5,-3.206351734555028,0.0
19.944,8175.0,-4.022860135732117,0.0
19.952,8176.5,-4.9173328992997085,0.0
19.96,8172.5,-5.211548968661418,0.0
19.968,8445.5,50.3615062077547,0.0
19.976,8110.5,62.92526953298284,0.0
19.984,8116.0,-6.501876753893384,1.0
19.992,8178.0,-32.784909709444264,0.0
20.0,8187.5,-28.750563843953614,0.0
20.008,8191.5,-19.247672386857403,0.0
20.016,8201.5,-7.849292182190538,0.0
20.024,8227.5,7.436566098003368,0.0
20.032,8246.5,24.542663380391332,0.0
20.04,8259.0,37.373699620427715,0.0
20.048,8276.5,45.42468402666918,0.0
20.056,8256.5,42.78835260348728,0.0
20.064,8206.0,20.338803127099254,0.0
20.072,8173.5,-12.978394462379129,0.0
20.08,8158.0,-40.52089196584825,0.0
20.088,8165.0,-52.40259108014311,0.0
20.096,8161.0,-50.871654534998925,0.0
20.104,8170.5,-41.129863362800506,0.0
20.112,8188.5,-23.51453869463944,0.0
20.12,8199.0,-3.7092096146604945,0.0
20.128,8205.5,12.039103324401594,0.0
20.136,8202.0,20.14026193958921,0.0
20.144,8212.0,23.20572771193042,0.0
20.152,8234.0,28.038003264289046,0.0
20.16,8238.0,31.956732250618643,0.0
20.168,8239.0,30.450748424631,0.0
20.176,8200.0,17.179987863569522,0.0
20.184,8181.0,-5.122454807096119,0.0
20.192,8184.0,-20.804271212006142,0.0
20.2,8172.0,-28.763005921150352,0.0
20.208,8164.5,-33.09284338024008,0.0
20.216,8326.0,0.8260904937592386,0.0
20.224,8269.5,42.212033550007845,0.0
20.232,8068.0,7.578156840383599,0.0
20.24,8143.5,-39.795102635657486,0.0
20.248,8157.0,-43.59538954754203,0.0
20.256,8174.0,-33.00212218855381,0.0
20.264,8202.5,-12.438082567445008,0.0
20.272,8225.0,12.02855873168869,0.0
20.28,8247.5,33.867955671311165,0.0
20.288,8278.0,52.476900865642165,1.0
20.296,8302.5,66.76262813051017,0.0
20.304,8297.0,68.97089688980896,0.0
20.312,8244.5,47.97061351955017,0.0
20.32,8174.5,3.251318349321764,0.0
20.328,8131.0,-46.876680886779695,0.0
20.336,8116.0,-81.36683708550731,0.0
20.344,8113.0,-93.10550052501026,0.0
20.352,8107.5,-87.66839088956522,0.0
20.36,8125.5,-68.60757006078347,0.0
20.368,8121.5,-44.07310307737612,0.0
20.376,8128.5,-22.268554635858663,0.0
20.384,8144.0,-1.4004363587239368,0.0
20.392,8157.5,17.077980973884223,0.0
20.4,8169.5,30.626534045407197,0.0
20.408,8170.5,36.65169265093914,0.0
20.416,8155.5,31.797920753860126,0.0
20.424,8141.0,18.079593626850738,0.0
20.432,8156.5,7.429818608472942,0.0
20.44,8146.0,1.0266151426305896,0.0
20.448,8154.5,-3.324477452590372,0.0
20.456,8170.5,-0.388306222645042,0.0
20.464,8544.0,80.98218347383863,0.0
20.472,8053.5,92.92350560421323,0.0
20.48,8109.0,-2.973575014555763,0.0
20.488,8166.5,-36.15012817987213,0.0
20.496,8171.5,-37.52109937909927,0.0
20.504,8181.0,-29.68088598867007,0.0
20.512,8185.0,-17.786162933509786,0.0
20.52,8195.0,-5.194839548936216,0.0
20.528,8217.0,9.576873713008126,0.0
20.536,8238.0,25.645808933127455,0.0
20.544,8254.5,38.922024298463384,0.0
20.552,8245.5,42.404774061931676,0.0
20.56,8202.5,27.411759395421086,0.0
20.568,8158.0,-3.487353165412742,0.0
20.576,8143.0,-33.388212536710625,0.0
20.584,8136.0,-50.50410249153515,0.0
20.592,8124.5,-56.74895878163579,0.0
20.6,8155.5,-47.854478436435556,0.0
20.608,8157.0,-28.699216854014594,0.0
20.616,8160.0,-12.100332998725207,0.0
20.624,8156.5,-0.5513775552381048,0.0
20.632,8147.5,3.808490696216495,0.0
20.64,8163.5,7.239603219588162,0.0
20.648,8190.0,16.853933241594405,0.0
20.656,8190.5,25.500699208173046,0.0
20.664,8167.0,22.04925639009275,0.0
20.672,8165.0,11.45548025135713,0.0
20.68,8162.5,2.5341987779174815,0.0
20.688,8181.5,0.24491677603259632,0.0
20.696,8171.0,0.5904639066668551,0.0
20.704,8461.0,57.80737900420377,0.0
20.712,8181.0,84.92409552324102,0.0
20.72,8116.0,17.601597303875224,1.0
20.728,8183.5,-24.370675005627845,0.0
20.736,8195.5,-29.256210132655497,0.0
20.744,8191.0,-26.177664589266442,0.0
20.752,8206.0,-18.243016235983532,0.0
20.76,8211.0,-6.698605202607268,0.0
20.768,8218.5,3.6980883696762703,0.0
20.776,8247.5,16.74298204816455,0.0
20.784,8264.0,31.214964465645835,0.0
20.792,8263.5,38.30992713968226,0.0
20.8,8210.5,25.76754512375919,0.0
20.808,8170.0,-4.658789982412145,0.0
20.816,8146.0,-35.12395001946652,0.0
20.824,8135.5,-54.86416847135183,0.0
20.832,8139.0,-59.65055136223509,0.0
20.84,8131.0,-54.35683635229839,0.0
20.848,8136.0,-43.59790650514401,0.0
20.856,8150.5,-26.641269824014216,0.0
20.864,8135.5,-12.676162292863637,0.0
20.872,8139.5,-4.7426739628040195,0.0
20.88,8148.5,3.3241340251236124,0.0
20.888,8152.5,10.246763731612418,0.0
20.896,8174.0,17.9969362179354,0.0
20.904,8160.0,21.384083674690146,0.0
20.912,8134.5,12.075275045187254,0.0
20.92,8149.0,2.491997673882679,0.0
20.928,8165.0,2.6778221150620993,0.0
20.936,8162.5,5.139790071037169,0.0
20.944,8165.5,5.918691431412299,0.0
20.952,8580.0,90.77758307509112,0.0
20.96,8041.0,101.76458598452973,0.0
20.968,8119.0,-1.3491110211166415,0.0
20.976,8173.0,-35.158131474330276,0.0
20.984,8166.0,-40.220203971153296,0.0
20.992,8179.5,-35.78809228241221,0.0
21.0,8206.5,-19.466868138555583,0.0
21.008,8223.0,2.023969756440465,0.0
21.016,8245.5,22.39449030049832,0.0
21.024,8278.0,42.28285884162483,1.0
21.032,8283.0,55.29550763520456,0.0
21.04,8250.0,48.887291962191966,0.0
21.048,8188.5,18.37916538013883,0.0
21.056,8147.0,-23.49277369729225,0.0
21.064,8139.0,-54.806878451643115,0.0
21.072,8141.5,-66.14027322784818,0.0
21.08,8143.0,-61.99797481085466,0.0
21.088,8142.5,-49.944300759059615,0.0
21.096,8130.5,-37.79739258904988,0.0
21.104,8134.0,-26.619757272295374,0.0
21.112,8149.0,-12.193887515829829,0.0
21.12,8161.0,3.7024076093630356,0.0
21.128,8163.5,15.504483597271701,0.0
21.136,8155.5,19.009894625877678,0.0
21.144,8150.5,15.544953805228715,0.0
21.152,8148.0,9.606738852649869,0.0
21.16,8147.5,4.025490843604302,0.0
21.168,8150.0,0.5230396942451989,0.0
21.176,8131.5,-4.896416321479364,0.0
21.184,8334.5,30.334382917787025,0.0
21.192,8205.5,61.689030003221205,0.0
21.2,8064.0,15.61595853181575,0.0
21.208,8148.5,-25.644290601349894,0.0
21.216,8163.0,-25.93177516448077,0.0
21.224,8169.0,-17.982062963098542,0.0
21.232,8195.0,-4.016696899511544,0.0
21.24,8204.0,12.001905078627942,0.0
21.248,8224.0,25.580373310862115,0.0
21.256,8259.0,40.96891584330547,0.0
21.264,8285.5,56.42280400460686,0.0
21.272,8271.5,59.561605217584656,0.0
21.28,8211.5,37.26938369737013,0.0
21.288,8184.5,0.6611504505153789,1.0
21.296,8155.0,-32.63213312445578,0.0
21.304,8153.5,-53.707635142542586,0.0
21.312,8159.0,-57.2117375695816,0.0
21.32,8153.0,-50.71223366753111,0.0
21.328,8160.0,-38.975563746219905,0.0
21.336,8167.5,-23.162999040583827,0.0
21.344,8171.5,-7.950230804458897,0.0
21.352,8177.5,4.2949323238924535,0.0
21.36,8188.0,14.25650277615614,0.0
21.368,8210.0,24.626081811637732,0.0
21.376,8186.0,26.61642743341804,0.0
21.384,8165.5,14.666763306332541,0.0
21.392,8161.0,0.26857659832148784,0.0
21.4,8168.0,-7.776454605629397,0.0
21.408,8177.0,-8.086457300421898,0.0
21.416,8291.0,18.085211380896453,0.0
21.424,8321.0,60.240480278010864,0.0
21.432,8079.5,32.828244610096135,0.0
21.44,8179.5,-17.269022380723754,0.0
21.448,8193.5,-20.987981891145182,0.0
21.456,8200.0,-15.817175730622012,0.0
21.464,8211.5,-6.6836841161257325,0.0
21.472,8227.5,5.349445838147631,0.0
21.48,8244.5,18.396707126092224,0.0
21.488,8268.5,31.700011793040176,0.0
21.496,8283.5,42.72920043092449,0.0
21.504,8277.5,44.61230068910004,0.0
21.512,8226.0,27.214914315533633,0.0
21.52,8185.0,-6.097799792939213,0.0
21.528,8167.0,-36.92813420722905,0.0
21.536,8154.5,-55.793577268081435,0.0
21.544,8160.5,-59.81955967887825,0.0
21.552,8156.5,-52.722566064975354,0.0
21.56,8160.0,-40.63420282919242,0.0
21.568,8168.5,-24.87293007525159,0.0
21.576,8157.5,-12.291461627024546,0.0
21.584,8163.5,-4.008775385480931,0.0
21.592,8195.5,9.26080059224364,0.0
21.6,8193.5,21.833383998863837,0.0
21.608,8175.5,21.872573888403394,0.0
21.616,8160.0,11.735532736616278,0.0
21.624,8161.0,0.9988960761247654,0.0
21.632,8162.5,-4.991425519296854,0.0
21.64,8172.5,-5.427873330852435,0.0
21.648,8258.5,14.749820950454705,0.0
21.656,8343.5,59.3820700836211,0.0
21.664,8055.0,35.19926815584881,0.0
21.672,8164.0,-21.111023524353186,0.0
21.68,8197.0,-22.20143979054501,0.0
21.688,8197.5,-12.636232232333214,0.0
21.696,8209.5,-2.5098219900257845,0.0
21.704,8220.0,8.456207517926941,0.0
21.712,8230.0,17.847605316157797,0.0
21.72,8263.0,29.480690306641918,0.0
21.728,8285.0,43.12740230323175,0.0
21.736,8276.0,47.31533275368997,0.0
21.744,8244.0,34.24217119089485,0.0
21.752,8189.0,3.545035951910222,1.0
21.76,8172.0,-29.856327864772766,0.0
21.768,8169.5,-49.06713372168133,0.0
21.776,8167.0,-54.01072012127179,0.0
21.784,8162.0,-50.27794246583926,0.0
21.792,8155.5,-42.797113861625576,0.0
21.8,8168.0,-30.658611596236142,0.0
21.808,8167.5,-16.380104080372575,0.0
21.816,8175.0,-4.022295384261042,0.0
21.824,8187.5,7.981936248839247,0.0
21.832,8200.5,19.080734316244616,0.0
21.84,8191.0,23.466733539620463,0.0
21.848,8162.5,14.739341132617483,0.0
21.856,8160.5,1.112142418837493,0.0
21.864,8164.5,-6.70697270392202,0.0
21.872,8171.5,-8.067019202143229,0.0
21.88,8165.5,-7.443992304838048,0.0
21.888,8427.5,46.35407289434124,0.0
21.896,8079.5,53.57246448201454,0.0
21.904,8116.0,-13.920515359365481,0.0
21.912,8174.5,-32.31665962117813,0.0
21.92,8182.5,-24.710517146398615,0.0
21.928,8192.5,-12.788436119610424,0.0
21.936,8198.0,-0.6321964147830386,0.0
21.944,8209.0,10.023795745416692,0.0
21.952,8223.5,20.01567721054471,0.0
21.96,8260.5,33.41173896826126,0.0
21.968,8267.0,45.155619661970604,0.0
21.976,8247.5,42.59889569351549,0.0
21.984,8192.5,19.407946541211913,0.0
21.992,8169.0,-13.287231039219478,0.0
22.0,8159.5,-37.35053129990433,0.0
22.008,8148.0,-50.20906330259686,0.0
22.016,8144.0,-53.36795406911847,0.0
22.024,8159.0,-44.89759602936192,0.0
22.032,8168.5,-28.075864547964784,0.0
22.04,8174.0,-10.806375459527771,0.0
22.048,8161.5,-0.38495978080322857,0.0
22.056,8159.5,2.8742507651209053,0.0
22.064,8177.0,7.532634943367611,0.0
22.072,8183.5,14.048779081115072,0.0
22.08,8192.0,18.83696761309784,0.0
22.088,8181.0,18.302035724587768,0.0
22.096,8163.5,9.388299751642307,0.0
22.104,8166.5,-0.2690080168028999,0.0
22.112,8169.5,-4.713734173641569,0.0
22.12,8173.5,-5.1975743859632075,0.0
22.128,8187.0,-1.1204386382808025,0.0
22.136,8484.5,64.99820080134191,0.0
22.144,8032.5,62.681683362398644,1.0
22.152,8135.0,-19.594722384151964,0.0
22.16,8181.5,-34.84123908180368,0.0
22.168,8191.0,-27.134814668175977,0.0
22.176,8202.0,-14.275122887898078,0.0
22.184,8214.5,0.29542412733735546,0.0
22.192,8230.0,14.588054906808793,0.0
22.2,8257.0,29.511756906141954,0.0
22.208,8277.0,43.465417719271954,0.0
22.216,8263.0,46.35352429686691,0.0
22.224,8229.5,31.329515195332533,0.0
22.232,8184.0,1.5546515608880327,0.0
22.24,8159.0,-30.69306534575162,0.0
22.248,8151.5,-51.75065775934286,0.0
22.256,8147.5,-58.70753212288355,0.0
22.264,8152.0,-53.818910917688754,0.0
22.272,8156.5,-40.92949883249253,0.0
22.28,8165.0,-24.445415925699763,0.0
22.288,8170.5,-8.130331334970151,0.0
22.296,8167.5,3.2617890521999016,0.0
22.304,8166.0,8.58519083801616,0.0
22.312,8165.0,9.921073551132167,0.0
22.32,8164.0,8.798358883266701,0.0
22.328,8178.0,9.456362937617314,0.0
22.336,8171.5,9.94406539356919,0.0
22.344,8153.5,3.719483938474241,0.0
22.352,8149.0,-5.122409486873494,0.0
22.36,8152.5,-9.7791737657476,0.0
22.368,8167.0,-7.373123474634667,0.0
22.376,8179.0,0.581635092081342,0.0
22.384,8521.0,77.52037525123865,0.0
22.392,8044.5,83.79035457407076,0.0
22.4,8142.0,-2.635209171424094,0.0
22.408,8186.0,-24.439049635786887,0.0
22.416,8182.5,-25.3543731660061,0.0
22.424,8205.5,-18.067805677321303,0.0
22.432,8207.0,-6.013878878276728,0.0
22.44,8211.0,3.150223114816754,0.0
22.448,8234.5,13.710519586069722,0.0
22.456,8257.5,27.377173238439354,1.0
22.464,8273.5,39.276639216665444,0.0
22.472,8253.0,39.43980796341657,0.0
22.48,8193.5,17.212699333304272,0.0
22.488,8160.0,-17.54200111538762,0.0
22.496,8153.0,-43.71048262267709,0.0
22.504,8163.0,-51.94655187076273,0.0
22.512,8160.0,-47.51153346271644,0.0
22.52,8164.0,-37.48106078947262,0.0
22.528,8153.0,-27.29659033452822,0.0
22.536,8171.5,-15.602769826093436,0.0
22.544,8158.0,-5.29999546185104,0.0
22.552,8175.5,2.4137934795678575,0.0
22.56,8166.0,8.244162554322429,0.0
22.568,8182.0,11.770276218158187,0.0
22.576,8184.5,15.850666470555097,0.0
22.584,8177.5,14.941300699704925,0.0
22.592,8165.0,8.154359662851448,0.0
22.6,8160.5,-0.5688372651370628,0.0
22.608,8157.5,-7.173735285884959,0.0
22.616,8168.0,-8.459981959941842,0.0
22.624,8156.0,-8.244484236635799,0.0
22.632,8467.0,54.21886835124906,0.0
22.64,8070.0,65.3695007918459,0.0
22.648,8127.0,-7.409101734924434,0.0
22.656,8188.5,-25.117292330693544,0.0
22.664,8205.5,-15.744194359140238,0.0
22.672,8212.0,-3.012884599200106,0.0
22.68,8218.5,7.6290905876251145,0.0
22.688,8231.5,16.749943059762245,0.0
22.696,8243.5,24.712031707306096,0.0
22.704,8271.5,33.84619508457058,0.0
22.712,8278.5,41.267170420373304,0.0
22.72,8248.5,34.700413909221425,0.0
22.728,8211.5,11.867697372367502,0.0
22.736,8167.0,-20.085333727654415,0.0
22.744,8167.0,-45.028516653999986,0.0
22.752,8169.5,-52.44226723696738,0.0
22.76,8159.0,-50.510286989870565,0.0
22.768,8160.5,-43.54846877108503,0.0
22.776,8166.0,-31.39869329482599,0.0
22.784,8168.5,-17.8185169968001,0.0
22.792,8171.0,-6.064221503851968,0.0
22.8,8168.0,1.7045066192417835,0.0
22.808,8177.5,7.368451659088805,0.0
22.816,8180.0,12.052565064844657,0.0
22.824,8189.0,15.344890364286357,0.0
22.832,8199.0,18.847215278143494,0.0
22.84,8175.0,15.200812619317276,0.0
22.848,8175.5,5.938644111839039,0.0
22.856,8177.5,0.07139644290919023,0.0
22.864,8191.0,-0.24264592256508877,0.0
22.872,8166.0,-2.7410415533040577,0.0
22.88,8514.5,62.2883023039567,0.0
22.888,8073.0,72.30293054629874,0.0
22.896,8153.5,-6.489010090126385,1.0
22.904,8199.5,-26.25856908957826,0.0
22.912,8205.0,-23.447652222022043,0.0
22.92,8217.0,-14.655075354810606,0.0
22.928,8224.0,-3.351561824723831,0.0
22.936,8244.5,9.45972644294261,0.0
22.944,8259.0,22.752623867887905,0.0
22.952,8265.0,31.352622050149648,0.0
22.96,8261.0,32.093820873181585,0.0
22.968,8250.5,24.70400061994019,0.0
22.976,8215.5,7.292567512412461,0.0
22.984,8187.0,-17.083266978445863,0.0
22.992,8168.5,-38.511209136643856,0.0
23.0,8179.5,-46.87716111404666,0.0
23.008,8185.0,-41.34667678227106,0.0
23.016,8192.5,-29.151402515584323,0.0
23.024,8194.0,-15.680733291575507,0.0
23.032,8200.0,-3.8045612838991474,0.0
23.04,8198.0,4.613006957249809,0.0
23.048,8185.5,5.929394681286794,0.0
23.056,8194.5,5.093885104907258,0.0
23.064,8194.5,5.6661804301265875,0.0
23.072,8214.5,9.231591594171505,0.0
23.08,8220.0,15.150222647797136,0.0
23.088,8202.0,13.799778413065951,0.0
23.096,8205.0,7.84440626176729,0.0
23.104,8205.0,3.746006881906851,0.0
23.112,8197.0,-0.8801252083055715,0.0
23.12,8187.5,-7.0578391549559,0.0
23.128,8558.5,64.21347070902084,0.0
23.136,8090.5,76.81050580614624,0.0
23.144,8128.0,-15.336512577016492,0.0
23.152,8187.5,-47.68973104729889,0.0
23.16,8203.0,-44.27048315939919,0.0
23.168,8224.5,-27.977287303989442,0.0
23.176,8232.0,-8.175107246953758,0.0
23.184,8247.0,9.37208069293547,0.0
23.192,8242.5,20.47369931129515,0.0
23.2,8254.0,25.36522955383316,0.0
23.208,8247.0,25.33175798630623,0.0
23.216,8236.0,17.793954605629324,0.0
23.224,8195.0,0.01469370085283117,0.0
23.232,8167.5,-24.496766090387382,1.0
23.24,8161.5,-42.1228817291867,0.0
23.248,8147.5,-50.246627879157586,0.0
23.256,8157.5,-48.250219385497985,0.0
23.264,8161.5,-36.894032374473,0.0
23.272,8173.5,-21.31561812351947,0.0
23.28,8180.5,-4.989154650557111,0.0
23.288,8172.0,5.116252429457518,0.0
23.296,8169.0,7.967429779498161,0.0
23.304,8173.5,8.75210620240432,0.0
23.312,8182.5,10.647301067822127,0.0
23.32,8195.0,14.546327392265766,0.0
23.328,8181.0,14.340358966320082,0.0
23.336,8184.0,9.797072826154135,0.0
23.344,8194.5,8.382890141058624,0.0
23.352,8181.5,5.764847679171908,0.0
23.36,8173.5,-0.9477945803675993,0.0
23.368,8436.0,47.22061648387398,0.0
23.376,8171.5,68.13953090202199,0.0
23.384,8106.0,2.7609132151078484,0.0
23.392,8188.0,-32.951516932527056,0.0
23.4,8196.0,-30.688876150007445,0.0
23.408,8188.5,-24.595807849636913,0.0
23.416,8219.5,-12.462293144844807,0.0
23.424,8256.5,10.49533423975413,0.0
23.432,8264.5,31.67475776843162,0.0
23.44,8285.5,45.32269068178243,0.0
23.448,8292.0,52.140873502541126,0.0
23.456,8276.0,46.327105885104174,0.0
23.464,8217.5,20.64470581748742,0.0
23.472,8163.5,-20.65764705739889,0.0
23.48,8145.0,-56.76365709243623,0.0
23.488,8155.5,-71.14505807372643,0.0
23.496,8155.0,-66.82075609920162,0.0
23.504,8164.5,-52.29384828025468,0.0
23.512,8175.0,-31.688277810935688,0.0
23.52,8182.5,-11.020445620494911,0.0
23.528,8190.0,5.937818264024145,0.0
23.536,8178.5,14.249460935027628,0.0
23.544,8163.0,11.488443981111232,0.0
23.552,8177.0,7.807348158866262,0.0
23.56,8191.5,10.269241516105694,0.0
23.568,8179.0,10.576864610953407,0.0
23.576,8179.0,6.601454579600386,0.0
23.584,8169.5,1.3086873757176818,0.0
23.592,8160.0,-5.901574537918123,0.0
23.6,8152.5,-12.744077200887432,0.0
23.608,8485.0,51.539198430383976,0.0
23.616,8120.5,75.20464446013966,0.0
23.624,8098.0,-1.265980552998144,1.0
23.632,8174.5,-35.266400009240215,0.0
23.64,8184.5,-32.35536821321648,0.0
23.648,8191.5,-22.25521906826839,0.0
23.656,8197.0,-10.354093311701263,0.0
23.664,8205.0,1.0120767288876777,0.0
23.672,8232.0,14.731097025008921,0.0
23.68,8279.0,35.72935582208902,0.0
23.688,8291.0,54.78444801758019,0.0
23.696,8253.0,52.435807729792714,0.0
23.704,8186.0,21.645351807616407,0.0
23.712,8147.5,-21.399500851611265,0.0
23.72,8137.5,-53.52032881156288,0.0
23.728,8137.0,-66.5473785942861,0.0
23.736,8143.0,-63.038531740727876,0.0
23.744,8150.0,-48.75010929488349,0.0
23.752,8153.5,-30.763709171508708,0.0
23.76,8154.5,-14.543086652604188,0.0
23.768,8154.5,-2.541032816500774,0.0
23.776,8158.0,5.657265488620396,0.0
23.784,8159.0,10.567371076452218,0.0
23.792,8175.0,15.342175252539846,0.0
23.8,8164.5,16.963586244964972,0.0
23.808,8145.0,9.221581399867773,0.0
23.816,8149.0,0.07820913439945798,0.0
23.824,8149.5,-4.421669868193476,0.0
23.832,8152.5,-5.697460663698848,0.0
23.84,8269.0,18.82578955342433,0.0
23.848,8354.0,71.64120349331347,0.0
23.856,8045.0,46.25111551806526,0.0
23.864,8149.0,-17.658424670220256,0.0
23.872,8178.5,-25.503035721460265,0.0
23.88,8183.0,-19.329536498585412,0.0
23.888,8196.5,-9.070538509579364,0.0
23.896,8201.5,2.151381939583189,0.0
23.904,8217.5,12.752149607242245,0.0
23.912,8240.5,25.055781877077152,0.0
23.92,8264.5,38.13551618201245,0.0
23.928,8262.0,44.481522824462445,0.0
23.936,8223.5,33.114282997872806,0.0
23.944,8184.5,5.537886055207764,1.0
23.952,8171.0,-22.336151802237737,0.0
23.96,8163.0,-39.826855303073216,0.0
23.968,8164.5,-45.46056251712207,0.0
23.976,8150.5,-44.45373010946241,0.0
23.984,8155.5,-38.957288309189835,0.0
23.992,8150.0,-29.902467363164078,0.0
24.0,8162.0,-18.685938820325873,0.0
24.008,8165.5,-6.052830670896583,0.0
24.016,8173.0,4.583358303154682,0.0
24.024,8178.0,12.732452013035982,0.0
24.032,8162.5,13.476263930990626,0.0
24.04,8151.0,6.356870138272143,0.0
24.048,8153.5,-0.6560115785077869,0.0
24.056,8158.0,-3.2738533957531217,0.0
24.064,8156.5,-3.712783440162866,0.0
24.072,8189.5,3.0260118139153747,0.0
24.08,8502.0,77.13847990490194,0.0
24.088,8033.0,77.30028829360162,0.0
24.096,8138.5,-8.587004242317107,0.0
24.104,8167.0,-30.702405798389464,0.0
24.112,8167.5,-33.20184680045986,0.0
24.12,8166.5,-29.748370628638668,0.0
24.128,8190.5,-18.496867433761054,0.0
24.136,8215.0,0.8701864152317285,0.0
24.144,8243.5,23.01984328913477,0.0
24.152,8261.5,42.12902222168077,0.0
24.16,8265.5,51.537520236054434,0.0
24.168,8223.5,41.52456273803159,0.0
24.176,8173.5,10.511626500347575,0.0
24.184,8147.5,-24.94992216063656,0.0
24.192,8141.5,-48.67674725916481,0.0
24.2,8137.0,-57.473941722422296,0.0
24.208,8133.5,-55.5972666621592,0.0
24.216,8135.5,-46.36465349509831,0.0
24.224,8139.5,-32.64926760944536,0.0
24.232,8146.5,-17.340687596254384,0.0
24.24,8157.5,-1.9807508568703724,0.0
24.248,8161.0,10.36575757039418,0.0
24.256,8166.5,17.93459851892044,0.0
24.264,8154.5,18.363746393933525,0.0
24.272,8131.0,8.58070376777846,0.0
24.28,8118.5,-5.860737161101497,0.0
24.288,8123.5,-15.04508076985644,0.0
24.296,8138.0,-14.211808536006401,0.0
24.304,8150.0,-6.1503629439419,0.0
24.312,8456.0,64.5172924345236,0.0
24.32,8011.5,68.23278009590422,0.0
24.328,8122.0,-8.151256789041327,1.0
24.336,8161.0,-21.54585030079579,0.0
24.344,8153.0,-19.86746004656584,0.0
24.352,8159.0,-16.271323017743725,0.0
24.36,8184.5,-5.242172914439152,0.0
24.368,8201.5,10.758008596423679,0.0
24.376,8210.0,23.79911949862685,0.0
24.384,8239.5,35.666814881787104,0.0
24.392,8231.5,41.67030796042809,0.0
24.4,8198.5,30.526719532352672,0.0
24.408,8148.5,2.351240288011468,0.0
24.416,8118.5,-31.012233411464422,0.0
24.424,8105.0,-54.928601974151434,0.0
24.432,8111.5,-62.174984276196255,0.0
24.44,8116.5,-54.68456184683032,0.0
24.448,8116.0,-41.04455961779672,0.0
24.456,8133.5,-23.281931066991774,0.0
24.464,8147.5,-2.811850302690573,0.0
24.472,8166.5,16.462358611723857,0.0
24.48,8162.5,28.429718474216543,0.0
24.488,8173.0,32.52486983537574,0.0
24.496,8157.5,28.99407730416442,0.0
24.504,8155.5,18.934863646729355,0.0
24.512,8154.0,9.400059562320621,0.0
24.52,8145.5,0.29302391989494936,0.0
24.528,8133.5,-9.32545472828292,0.0
24.536,8273.0,12.448396964048015,0.0
24.544,8197.0,36.41119538752241,0.0
24.552,8074.0,4.406523835059943,0.0
24.56,8165.5,-21.624543149281635,0.0
24.568,8181.0,-11.880549062743285,0.0
24.576,8198.5,2.42519164762939,0.0
24.584,8206.5,15.727566459486752,0.0
24.592,8211.0,23.763844581523244,0.0
24.6,8222.5,28.182420068656484,0.0
24.608,8245.0,33.46899882067805,0.0
24.616,8256.0,38.36525512162348,0.0
24.624,8244.0,35.23996668208201,0.0
24.632,8207.0,18.038140957615724,0.0
24.64,8175.0,-8.966542375477502,0.0
24.648,8166.5,-31.85181730244085,0.0
24.656,8165.0,-42.60002794349202,0.0
24.664,8163.5,-43.11073740553775,0.0
24.672,8172.5,-35.34441731012589,0.0
24.68,8170.0,-24.064842200254816,0.0
24.688,8171.5,-13.949906773843168,0.0
24.696,8179.0,-4.014272695201271,0.0
24.704,8181.0,4.411113872816031,0.0
24.712,8186.0,10.155202439568939,0.0
24.72,8184.0,12.625500864654441,0.0
24.728,8168.5,8.596991899633622,0.0
24.736,8172.5,2.561673413332528,0.0
24.744,8164.5,-2.2131872129391468,0.0
24.752,8164.5,-6.335893205106004,0.0
24.76,8158.5,-9.039263482548222,0.0
24.768,8433.0,45.58719815541804,0.0
24.776,8063.5,51.573061874797986,0.0
24.784,8148.5,-10.829577624690955,1.0
24.792,8185.5,-21.16780338851345,0.0
24.8,8193.5,-14.878987120850297,0.0
24.808,8193.5,-7.269554882270768,0.0
24.816,8211.0,1.9080655501049932,0.0
24.824,8220.5,12.56253214049525,0.0
24.832,8237.5,22.372909807055294,0.0
24.84,8257.5,32.341884280012664,0.0
24.848,8244.5,34.76421371519223,0.0
24.856,8233.5,26.022890428853998,0.0
24.864,8203.5,8.531575102482293,0.0
24.872,8171.5,-15.772898539702283,0.0
24.88,8175.5,-33.47558967014584,0.0
24.888,8172.0,-38.76748708569721,0.0
24.896,8159.0,-39.390461460846836,0.0
24.904,8172.0,-33.78682857760441,0.0
24.912,8182.5,-20.5492979433036,0.0
24.92,8188.5,-6.234164427357655,0.0
24.928,8182.0,3.0748044338583895,0.0
24.936,8188.5,8.113936626069744,0.0
24.944,8195.5,12.621963659945777,0.0
24.952,8200.0,15.72382422145597,0.0
24.96,8173.5,10.679723961507761,0.0
24.968,8176.0,1.1742593898879932,0.0
24.976,8174.0,-4.523137858748669,0.0
24.984,8175.5,-7.30895852289359,0.0
24.992,8158.5,-11.015026664460265,0.0
25.0,8359.5,26.05457047558184,0.0
25.008,8143.0,40.86062591610221,0.0
25.016,8098.0,-10.002716046295745,0.0
25.024,8175.0,-32.02905643252052,0.0
25.032,8189.0,-21.608039803734982,0.0
25.04,8192.0,-8.695919852322959,0.0
25.048,8199.0,2.3016989346747323,0.0
25.056,8219.0,13.97283008419663,0.0
25.064,8239.0,26.928704808329712,0.0
25.072,8251.0,37.045704637575,0.0
25.08,8254.5,40.578978343362905,0.0
25.088,8241.5,34.575440667471184,0.0
25.096,8205.0,15.670022665089391,0.0
25.104,8180.0,-10.450871465203363,1.0
25.112,8166.5,-32.17983145580615,0.0
25.12,8170.0,-42.19446853243949,0.0
25.128,8170.0,-41.00487603363126,0.0
25.136,8150.5,-38.06839585825287,0.0
25.144,8155.0,-33.62466053676826,0.0
25.152,8157.0,-24.57079201052443,0.0
25.16,8162.0,-14.061021230765391,0.0
25.168,8170.5,-2.9556822025226666,0.0
25.176,8166.0,4.877316596927585,0.0
25.184,8180.5,10.813288651075254,0.0
25.192,8178.0,15.13600043560291,0.0
25.2,8175.0,14.273994201502774,0.0
25.208,8176.5,11.293647895671938,0.0
25.216,8183.0,9.453232272966716,0.0
25.224,8192.0,10.098254690919475,0.0
25.232,8201.5,12.728270529458314,0.0
25.24,8566.0,88.76240979877389,0.0
25.248,8094.5,98.411257182491,0.0
25.256,8195.0,13.401655619351914,0.0
25.264,8244.0,-8.361758543284623,0.0
25.272,8249.0,-8.932619994733159,0.0
25.28,8266.5,-3.319167342110404,0.0
25.288,8267.0,4.1812590864769845,0.0
25.296,8290.5,12.886290463458863,0.0
25.304,8307.5,24.354901315619145,0.0
25.312,8331.5,35.82126215089784,0.0
25.32,8304.5,36.558620415194355,0.0
25.328,8265.5,17.968120099679936,0.0
25.336,8206.5,-15.77193101334501,0.0
25.344,8195.0,-47.73773882572277,0.0
25.352,8204.5,-59.81326183867668,0.0
25.36,8194.5,-57.98846015407412,0.0
25.368,8208.0,-47.40248753659944,0.0
25.376,8213.5,-30.073468496480928,0.0
25.384,8233.5,-10.055951389720576,0.0
25.392,8226.5,5.962886868053147,0.0
25.4,8213.0,10.344190474915194,0.0
25.408,8201.0,6.1573138119783835,0.0
25.416,8214.0,2.9519812287285276,0.0
25.424,8239.0,8.372228948814836,0.0
25.432,8235.0,14.598743094946485,0.0
25.44,8217.5,11.675283804430364,0.0
25.448,8206.0,2.251520061291785,0.0
25.456,8202.0,-6.829698074078351,0.0
25.464,8200.5,-12.288507199506967,0.0
25.472,8296.0,5.5505223058301,0.0
25.48,8445.0,65.21052179026992,0.0
25.488,8108.5,52.30025775959348,1.0
25.496,8215.0,-10.253377094319603,0.0
25.504,8228.5,-21.176861711989204,0.0
25.512,8217.5,-23.9155782496357,0.0
25.52,8213.0,-25.076029522103454,0.0
25.528,8239.5,-17.465878297153267,0.0
25.536,8252.0,-2.3494819532540987,0.0
25.544,8274.5,14.097067970295711,0.0
25.552,8280.5,27.508822075207036,0.0
25.56,8264.0,29.124690560863428,0.0
25.568,8226.5,14.632421145650596,0.0
25.576,8191.5,-10.968540615365328,0.0
25.584,8168.5,-36.29539478033598,0.0
25.592,8166.0,-50.980515338919076,0.0
25.6,8163.0,-53.059678088557575,0.0
25.608,8163.0,-46.85772049724005,0.0
25.616,8182.5,-32.10184341726085,0.0
25.624,8176.0,-15.85231294754044,0.0
25.632,8178.5,-4.6561729587554055,0.0
25.64,8171.5,1.7517828428526627,0.0
25.648,8174.0,4.356492674317224,0.0
25.656,8175.0,5.9514709484049035,0.0
25.664,8187.5,8.750486354473423,0.0
25.672,8176.5,9.385593670156595,0.0
25.68,8167.0,4.150061408470947,0.0
25.688,8152.5,-4.478641817652488,0.0
25.696,8156.0,-11.14993678452106,0.0
25.704,8155.0,-12.8941155443772,0.0
25.712,8311.0,19.69590789089716,0.0
25.72,8283.5,62.23611782881699,0.0
25.728,8062.5,27.189842950556795,0.0
25.736,8160.0,-22.88991916207374,0.0
25.744,8178.0,-25.439880781792,0.0
25.752,8189.0,-17.166213769679416,0.0
25.76,8206.5,-3.84800661772465,0.0
25.768,8239.5,14.92895398578662,0.0
25.776,8253.0,33.27020022322404,0.0
25.784,8269.5,45.20205268194945,0.0
25.792,8281.0,51.125788907845845,0.0
25.8,8266.5,46.26490121282245,0.0
25.808,8220.5,24.015675263155345,0.0
25.816,8179.5,-10.557711835758028,1.0
25.824,8169.5,-39.823024275708576,0.0
25.832,8167.0,-53.64660157949288,0.0
25.84,8150.5,-57.57010005349275,0.0
25.848,8159.5,-52.6944000698179,0.0
25.856,8174.0,-37.0207567390421,0.0
25.864,8182.0,-17.541837670940595,0.0
25.872,8172.5,-3.668938637969177,0.0
25.88,8178.0,4.27452208579075,0.0
25.888,8172.0,8.222053247671283,0.0
25.896,8192.0,12.17026788798762,0.0
25.904,8208.0,20.01490892881725,0.0
25.912,8205.0,24.275630984563804,0.0
25.92,8168.0,14.942909818104681,0.0
25.928,8164.0,-1.2183013967621719,0.0
25.936,8155.5,-13.145066497670996,0.0
25.944,8158.0,-19.43139342320842,0.0
25.952,8205.0,-10.090197399601266,0.0
25.96,8522.5,71.43161401144698,0.0
25.968,8054.5,78.06632900066438,0.0
25.976,8139.0,-8.19505454208138,0.0
25.984,8167.5,-34.88143441409329,0.0
25.992,8172.5,-38.53120068195403,0.0
26.0,8191.0,-30.046812239374276,0.0
26.008,8198.5,-15.161886077799409,0.0
26.016,8217.0,1.251577038956384,0.0
26.024,8239.5,19.145052011212556,0.0
26.032,8260.0,35.609543192540514,0.0
26.04,8258.5,43.82950473128176,0.0
26.048,8231.5,36.22313268371204,0.0
26.056,8188.0,11.829674207899416,0.0
26.064,8157.0,-19.610506571142196,0.0
26.072,8154.5,-42.075070997378816,0.0
26.08,8147.5,-50.92235779969292,0.0
26.088,8145.0,-50.375055956738606,0.0
26.096,8155.0,-40.881673283245846,0.0
26.104,8167.5,-24.47238965875931,0.0
26.112,8156.5,-10.751212007709228,0.0
26.12,8154.0,-3.7645806516748053,0.0
26.128,8147.5,-0.9006509426667435,0.0
26.136,8162.5,2.666178686033163,0.0
26.144,8169.0,8.763839411656818,0.0
26.152,8165.5,11.654186886545403,0.0
26.16,8138.5,5.365446185139945,0.0
26.168,8140.5,-4.274690278117532,0.0
26.176,8146.0,-7.795501405152663,0.0
26.184,8158.0,-5.1205488490124935,0.0
26.192,8130.0,-6.031063860278664,0.0
26.2,8496.5,63.50066855748446,0.0
26.208,8077.0,84.16622590971178,0.0
26.216,8092.0,0.9875257275170952,1.0
26.224,8158.5,-31.70342380783609,0.0
26.232,8168.0,-30.703321562166593,0.0
26.24,8175.5,-21.983762775123978,0.0
26.248,8179.5,-11.144572682647777,0.0
26.256,8193.0,0.530619657142779,0.0
26.264,8223.0,16.241946813051072,0.0
26.272,8245.5,33.79692221889536,0.0
26.28,8242.0,42.93660906506784,0.0
26.288,8206.0,33.76222550301736,0.0
26.296,8160.5,6.567241111104522,0.0
26.304,8132.0,-25.62976009151612,0.0
26.312,8120.0,-49.05942275688608,0.0
26.32,8124.5,-57.009955251820884,0.0
26.328,8123.5,-52.35345204544046,0.0
26.336,8144.5,-37.5761859573056,0.0
26.344,8152.0,-17.317368341450447,0.0
26.352,8154.0,-0.769961725643725,0.0
26.36,8158.5,10.460837910661894,0.0
26.368,8173.0,19.39844346071277,0.0
26.376,8172.0,24.501156778898576,0.0
26.384,8179.0,25.03003340234227,0.0
26.392,8174.5,22.058713721199865,0.0
26.4,8168.5,14.811960135596792,0.0
26.408,8145.0,2.2536997061031343,0.0
26.416,8142.5,-10.826743717077989,0.0
26.424,8155.5,-14.775875597294316,0.0
