1714, 11890944.000000, 1340.000000, 8170.000000, 8188.000000, 8179.000000
1715, 11891104.000000, 1652.500000, 8175.000000, 8186.000000, 8180.000000
1716, 11891264.000000, 1974.000000, 8180.000000, 8195.000000, 8198.000000
1717, 11891424.000000, 2225.500000, 8180.000000, 8197.000000, 8204.000000
1718, 11891584.000000, 2370.000000, 8203.000000, 8202.000000, 8220.000000
1719, 11891744.000000, 2425.000000, 8184.000000, 8190.000000, 8184.000000
1720, 11891904.000000, 2423.000000, 8175.000000, 8180.000000, 8166.000000
1721, 11892064.000000, 2383.500000, 8171.000000, 8179.000000, 8162.000000
1722, 11892224.000000, 2319.000000, 8174.000000, 8179.000000, 8164.000000
1723, 11892384.000000, 2224.000000, 8183.000000, 8205.000000, 8192.000000
1724, 11892544.000000, 2125.000000, 8507.000000, 8165.000000, 8314.000000
1725, 11892704.000000, 2049.500000, 8177.000000, 8061.000000, 8100.000000
1726, 11892864.000000, 2015.000000, 8161.000000, 8159.000000, 8150.000000
1727, 11893024.000000, 2019.000000, 8165.000000, 8189.000000, 8168.000000
1728, 11893184.000000, 2046.000000, 8169.000000, 8193.000000, 8175.000000
1729, 11893344.000000, 2067.000000, 8175.000000, 8194.000000, 8178.000000
1730, 11893504.000000, 2064.000000, 8183.000000, 8196.000000, 8185.000000
1731, 11893664.000000, 2025.500000, 8193.000000, 8197.000000, 8191.000000
1732, 11893824.000000, 1964.000000, 8203.000000, 8201.000000, 8198.000000
1733, 11893984.000000, 1890.500000, 8220.000000, 8203.000000, 8205.000000
1734, 11894144.000000, 1816.000000, 8242.000000, 8206.000000, 8218.000000
1735, 11894304.000000, 1747.500000, 8263.000000, 8207.000000, 8227.000000
1736, 11894464.000000, 1680.000000, 8275.000000, 8207.000000, 8231.000000
1737, 11894624.000000, 1606.500000, 8270.000000, 8210.000000, 8237.000000
1738, 11894784.000000, 1528.000000, 8234.000000, 8211.000000, 8226.000000
1739, 11894944.000000, 1459.000000, 8195.000000, 8205.000000, 8208.000000
1740, 11895104.000000, 1407.000000, 8169.000000, 8196.000000, 8188.000000
1741, 11895264.000000, 1370.500000, 8159.000000, 8191.000000, 8178.000000
1742, 11895424.000000, 1335.000000, 8159.000000, 8193.000000, 8182.000000
1743, 11895584.000000, 1291.000000, 8163.000000, 8192.000000, 8182.000000
1744, 11895744.000000, 1234.000000, 8167.000000, 8192.000000, 8183.000000
1745, 11895904.000000, 1178.500000, 8168.000000, 8189.000000, 8180.000000
1746, 11896064.000000, 1128.000000, 8169.000000, 8188.000000, 8180.000000
1747, 11896224.000000, 1090.500000, 8167.000000, 8187.000000, 8178.000000
1748, 11896384.000000, 1079.000000, 8167.000000, 8187.000000, 8178.000000
1749, 11896544.000000, 1139.000000, 8167.000000, 8187.000000, 8178.000000
1750, 11896704.000000, 1312.000000, 8165.000000, 8185.000000, 8174.000000
1751, 11896864.000000, 1591.500000, 8167.000000, 8185.000000, 8174.000000
1752, 11897024.000000, 1917.000000, 8174.000000, 8191.000000, 8190.000000
1753, 11897184.000000, 2189.500000, 8177.000000, 8198.000000, 8203.000000
1754, 11897344.000000, 2373.000000, 8179.000000, 8196.000000, 8204.000000
1755, 11897504.000000, 2450.500000, 8194.000000, 8198.000000, 8208.000000
1756, 11897664.000000, 2471.000000, 8172.000000, 8184.000000, 8172.000000
1757, 11897824.000000, 2461.000000, 8166.000000, 8180.000000, 8164.000000
1758, 11897984.000000, 2428.000000, 8168.000000, 8178.000000, 8163.000000
1759, 11898144.000000, 2365.000000, 8171.000000, 8180.000000, 8165.000000
1760, 11898304.000000, 2277.000000, 8227.000000, 8225.000000, 8231.000000
1761, 11898464.000000, 2189.500000, 8448.000000, 8134.000000, 8276.000000
1762, 11898624.000000, 2128.000000, 8156.000000, 8064.000000, 8077.000000
1763, 11898784.000000, 2111.500000, 8161.000000, 8175.000000, 8158.000000
1764, 11898944.000000, 2127.000000, 8163.000000, 8190.000000, 8170.000000
1765, 11899104.000000, 2145.000000, 8168.000000, 8192.000000, 8173.000000
1766, 11899264.000000, 2138.000000, 8174.000000, 8194.000000, 8179.000000
1767, 11899424.000000, 2095.500000, 8183.000000, 8196.000000, 8185.000000
1768, 11899584.000000, 2031.000000, 8193.000000, 8200.000000, 8192.000000
1769, 11899744.000000, 1961.000000, 8204.000000, 8202.000000, 8199.000000
1770, 11899904.000000, 1892.000000, 8221.000000, 8206.000000, 8210.000000
1771, 11900064.000000, 1831.000000, 8241.000000, 8208.000000, 8218.000000
1772, 11900224.000000, 1782.000000, 8263.000000, 8212.000000, 8232.000000
1773, 11900384.000000, 1743.000000, 8272.000000, 8214.000000, 8240.000000
1774, 11900544.000000, 1711.000000, 8261.000000, 8216.000000, 8241.000000
1775, 11900704.000000, 1685.500000, 8220.000000, 8209.000000, 8219.000000
1776, 11900864.000000, 1665.000000, 8181.000000, 8201.000000, 8197.000000
1777, 11901024.000000, 1648.000000, 8166.000000, 8195.000000, 8187.000000
1778, 11901184.000000, 1633.000000, 8159.000000, 8193.000000, 8180.000000
1779, 11901344.000000, 1619.000000, 8159.000000, 8194.000000, 8181.000000
1780, 11901504.000000, 1603.000000, 8163.000000, 8193.000000, 8183.000000
1781, 11901664.000000, 1584.000000, 8167.000000, 8193.000000, 8184.000000
1782, 11901824.000000, 1562.000000, 8168.000000, 8191.000000, 8182.000000
1783, 11901984.000000, 1542.500000, 8167.000000, 8190.000000, 8179.000000
1784, 11902144.000000, 1529.000000, 8166.000000, 8189.000000, 8177.000000
1785, 11902304.000000, 1545.500000, 8163.000000, 8186.000000, 8172.000000
1786, 11902464.000000, 1705.000000, 8164.000000, 8186.000000, 8173.000000
1787, 11902624.000000, 2010.000000, 8162.000000, 8184.000000, 8169.000000
1788, 11902784.000000, 2320.000000, 8166.000000, 8185.000000, 8173.000000
1789, 11902944.000000, 2584.000000, 8167.000000, 8185.000000, 8172.000000
1790, 11903104.000000, 2758.000000, 8172.000000, 8193.000000, 8189.000000
1791, 11903264.000000, 2822.000000, 8174.000000, 8195.000000, 8194.000000
1792, 11903424.000000, 2815.000000, 8194.000000, 8202.000000, 8214.000000
1793, 11903584.000000, 2745.000000, 8188.000000, 8193.000000, 8190.000000
1794, 11903744.000000, 2651.000000, 8169.000000, 8182.000000, 8164.000000
1795, 11903904.000000, 2542.500000, 8168.000000, 8179.000000, 8160.000000
1796, 11904064.000000, 2435.000000, 8168.000000, 8179.000000, 8160.000000
1797, 11904224.000000, 2352.000000, 8155.000000, 8190.000000, 8161.000000
1798, 11904384.000000, 2306.000000, 8431.000000, 8222.000000, 8328.000000
1799, 11904544.000000, 2292.000000, 8252.000000, 8070.000000, 8153.000000
1800, 11904704.000000, 2290.000000, 8157.000000, 8136.000000, 8136.000000
1801, 11904864.000000, 2274.000000, 8160.000000, 8186.000000, 8162.000000
1802, 11905024.000000, 2238.000000, 8163.000000, 8193.000000, 8171.000000
1803, 11905184.000000, 2179.500000, 8170.000000, 8198.000000, 8179.000000
1804, 11905344.000000, 2114.000000, 8177.000000, 8200.000000, 8185.000000
1805, 11905504.000000, 2048.000000, 8186.000000, 8200.000000, 8189.000000
1806, 11905664.000000, 1988.000000, 8196.000000, 8202.000000, 8196.000000
1807, 11905824.000000, 1934.000000, 8206.000000, 8203.000000, 8198.000000
1808, 11905984.000000, 1887.000000, 8228.000000, 8208.000000, 8213.000000
1809, 11906144.000000, 1843.000000, 8251.000000, 8212.000000, 8226.000000
1810, 11906304.000000, 1810.000000, 8268.000000, 8214.000000, 8236.000000
1811, 11906464.000000, 1789.500000, 8266.000000, 8215.000000, 8239.000000
1812, 11906624.000000, 1774.000000, 8243.000000, 8216.000000, 8235.000000
1813, 11906784.000000, 1761.000000, 8201.000000, 8210.000000, 8215.000000
1814, 11906944.000000, 1751.000000, 8170.000000, 8200.000000, 8191.000000
1815, 11907104.000000, 1732.500000, 8156.000000, 8192.000000, 8177.000000
1816, 11907264.000000, 1707.000000, 8155.000000, 8191.000000, 8176.000000
1817, 11907424.000000, 1675.000000, 8155.000000, 8192.000000, 8177.000000
1818, 11907584.000000, 1640.000000, 8160.000000, 8191.000000, 8179.000000
1819, 11907744.000000, 1612.000000, 8163.000000, 8191.000000, 8179.000000
1820, 11907904.000000, 1588.000000, 8162.000000, 8188.000000, 8175.000000
1821, 11908064.000000, 1574.500000, 8164.000000, 8187.000000, 8174.000000
1822, 11908224.000000, 1618.000000, 8162.000000, 8187.000000, 8174.000000
1823, 11908384.000000, 1759.500000, 8160.000000, 8188.000000, 8172.000000
1824, 11908544.000000, 1998.000000, 8164.000000, 8188.000000, 8173.000000
1825, 11908704.000000, 2269.500000, 8163.000000, 8186.000000, 8172.000000
1826, 11908864.000000, 2499.000000, 8164.000000, 8186.000000, 8171.000000
1827, 11909024.000000, 2623.000000, 8167.000000, 8190.000000, 8181.000000
1828, 11909184.000000, 2653.000000, 8174.000000, 8197.000000, 8198.000000
1829, 11909344.000000, 2611.500000, 8172.000000, 8195.000000, 8193.000000
1830, 11909504.000000, 2532.000000, 8195.000000, 8200.000000, 8207.000000
1831, 11909664.000000, 2416.500000, 8174.000000, 8186.000000, 8173.000000
1832, 11909824.000000, 2250.000000, 8162.000000, 8182.000000, 8161.000000
1833, 11909984.000000, 2041.500000, 8160.000000, 8180.000000, 8158.000000
1834, 11910144.000000, 1823.000000, 8165.000000, 8181.000000, 8160.000000
1835, 11910304.000000, 1637.000000, 8187.000000, 8214.000000, 8200.000000
1836, 11910464.000000, 1499.000000, 8487.000000, 8148.000000, 8294.000000
1837, 11910624.000000, 1401.500000, 8162.000000, 8060.000000, 8083.000000
1838, 11910784.000000, 1314.000000, 8155.000000, 8171.000000, 8152.000000
1839, 11910944.000000, 1223.000000, 8156.000000, 8192.000000, 8165.000000
1840, 11911104.000000, 1124.000000, 8160.000000, 8195.000000, 8173.000000
1841, 11911264.000000, 1024.500000, 8168.000000, 8196.000000, 8177.000000
1842, 11911424.000000, 936.000000, 8173.000000, 8199.000000, 8182.000000
1843, 11911584.000000, 869.500000, 8187.000000, 8203.000000, 8191.000000
1844, 11911744.000000, 833.000000, 8194.000000, 8204.000000, 8197.000000
1845, 11911904.000000, 823.500000, 8209.000000, 8206.000000, 8203.000000
1846, 11912064.000000, 830.000000, 8228.000000, 8208.000000, 8211.000000
1847, 11912224.000000, 848.500000, 8252.000000, 8208.000000, 8221.000000
1848, 11912384.000000, 876.000000, 8263.000000, 8213.000000, 8231.000000
1849, 11912544.000000, 914.500000, 8255.000000, 8213.000000, 8232.000000
1850, 11912704.000000, 960.000000, 8217.000000, 8212.000000, 8220.000000
1851, 11912864.000000, 1006.500000, 8175.000000, 8205.000000, 8199.000000
1852, 11913024.000000, 1043.000000, 8157.000000, 8199.000000, 8187.000000
1853, 11913184.000000, 1061.500000, 8151.000000, 8197.000000, 8181.000000
1854, 11913344.000000, 1065.000000, 8150.000000, 8196.000000, 8179.000000
1855, 11913504.000000, 1056.500000, 8154.000000, 8194.000000, 8180.000000
1856, 11913664.000000, 1042.000000, 8155.000000, 8194.000000, 8179.000000
1857, 11913824.000000, 1026.500000, 8155.000000, 8192.000000, 8177.000000
1858, 11913984.000000, 1013.000000, 8158.000000, 8192.000000, 8179.000000
1859, 11914144.000000, 1026.500000, 8155.000000, 8191.000000, 8174.000000
1860, 11914304.000000, 1104.000000, 8156.000000, 8190.000000, 8173.000000
1861, 11914464.000000, 1287.500000, 8158.000000, 8188.000000, 8173.000000
1862, 11914624.000000, 1557.000000, 8157.000000, 8189.000000, 8173.000000
1863, 11914784.000000, 1847.000000, 8158.000000, 8189.000000, 8174.000000
1864, 11914944.000000, 2082.000000, 8160.000000, 8186.000000, 8172.000000
1865, 11915104.000000, 2213.500000, 8165.000000, 8195.000000, 8190.000000
1866, 11915264.000000, 2260.000000, 8172.000000, 8196.000000, 8194.000000
1867, 11915424.000000, 2248.500000, 8188.000000, 8204.000000, 8216.000000
1868, 11915584.000000, 2216.000000, 8179.000000, 8195.000000, 8188.000000
1869, 11915744.000000, 2165.500000, 8163.000000, 8181.000000, 8163.000000
1870, 11915904.000000, 2095.000000, 8161.000000, 8181.000000, 8162.000000
1871, 11916064.000000, 2019.500000, 8162.000000, 8180.000000, 8161.000000
1872, 11916224.000000, 1963.000000, 8156.000000, 8195.000000, 8172.000000
1873, 11916384.000000, 1946.500000, 8443.000000, 8205.000000, 8317.000000
1874, 11916544.000000, 1963.000000, 8170.000000, 8121.000000, 8169.000000
1875, 11916704.000000, 1992.500000, 8137.000000, 8130.000000, 8123.000000
1876, 11916864.000000, 2006.000000, 8158.000000, 8183.000000, 8158.000000
1877, 11917024.000000, 1988.500000, 8163.000000, 8188.000000, 8170.000000
1878, 11917184.000000, 1942.000000, 8169.000000, 8191.000000, 8175.000000
1879, 11917344.000000, 1879.000000, 8178.000000, 8194.000000, 8182.000000
1880, 11917504.000000, 1818.000000, 8186.000000, 8195.000000, 8186.000000
1881, 11917664.000000, 1763.000000, 8196.000000, 8197.000000, 8191.000000
1882, 11917824.000000, 1717.000000, 8213.000000, 8198.000000, 8199.000000
1883, 11917984.000000, 1675.500000, 8232.000000, 8200.000000, 8206.000000
1884, 11918144.000000, 1640.000000, 8256.000000, 8202.000000, 8216.000000
1885, 11918304.000000, 1611.500000, 8267.000000, 8200.000000, 8219.000000
1886, 11918464.000000, 1596.000000, 8270.000000, 8203.000000, 8226.000000
1887, 11918624.000000, 1589.500000, 8241.000000, 8205.000000, 8221.000000
1888, 11918784.000000, 1589.000000, 8202.000000, 8210.000000, 8214.000000
1889, 11918944.000000, 1587.000000, 8171.000000, 8201.000000, 8196.000000
1890, 11919104.000000, 1581.000000, 8159.000000, 8196.000000, 8185.000000
1891, 11919264.000000, 1568.500000, 8155.000000, 8192.000000, 8179.000000
1892, 11919424.000000, 1546.000000, 8163.000000, 8192.000000, 8182.000000
1893, 11919584.000000, 1519.500000, 8165.000000, 8192.000000, 8183.000000
1894, 11919744.000000, 1493.000000, 8166.000000, 8191.000000, 8181.000000
1895, 11919904.000000, 1472.500000, 8169.000000, 8189.000000, 8181.000000
1896, 11920064.000000, 1464.000000, 8166.000000, 8186.000000, 8176.000000
1897, 11920224.000000, 1494.000000, 8165.000000, 8187.000000, 8176.000000
1898, 11920384.000000, 1598.000000, 8165.000000, 8185.000000, 8176.000000
1899, 11920544.000000, 1804.000000, 8164.000000, 8186.000000, 8175.000000
1900, 11920704.000000, 2065.000000, 8167.000000, 8184.000000, 8173.000000
1901, 11920864.000000, 2311.500000, 8166.000000, 8182.000000, 8170.000000
1902, 11921024.000000, 2484.000000, 8176.000000, 8191.000000, 8191.000000
1903, 11921184.000000, 2565.500000, 8178.000000, 8196.000000, 8198.000000
1904, 11921344.000000, 2579.000000, 8198.000000, 8202.000000, 8217.000000
1905, 11921504.000000, 2554.500000, 8188.000000, 8189.000000, 8184.000000
1906, 11921664.000000, 2508.000000, 8170.000000, 8178.000000, 8161.000000
1907, 11921824.000000, 2435.000000, 8170.000000, 8177.000000, 8158.000000
1908, 11921984.000000, 2344.000000, 8172.000000, 8177.000000, 8159.000000
1909, 11922144.000000, 2260.000000, 8162.000000, 8190.000000, 8165.000000
1910, 11922304.000000, 2211.000000, 8451.000000, 8208.000000, 8320.000000
1911, 11922464.000000, 2200.500000, 8197.000000, 8088.000000, 8144.000000
1912, 11922624.000000, 2213.000000, 8148.000000, 8131.000000, 8125.000000
1913, 11922784.000000, 2225.000000, 8165.000000, 8184.000000, 8161.000000
1914, 11922944.000000, 2222.000000, 8169.000000, 8190.000000, 8170.000000
1915, 11923104.000000, 2195.000000, 8174.000000, 8191.000000, 8174.000000
1916, 11923264.000000, 2151.000000, 8181.000000, 8194.000000, 8180.000000
1917, 11923424.000000, 2093.500000, 8189.000000, 8196.000000, 8187.000000
1918, 11923584.000000, 2033.000000, 8201.000000, 8198.000000, 8193.000000
1919, 11923744.000000, 1977.000000, 8212.000000, 8200.000000, 8197.000000
1920, 11923904.000000, 1929.000000, 8232.000000, 8201.000000, 8205.000000
1921, 11924064.000000, 1887.500000, 8253.000000, 8203.000000, 8217.000000
1922, 11924224.000000, 1851.000000, 8268.000000, 8203.000000, 8223.000000
1923, 11924384.000000, 1820.000000, 8272.000000, 8204.000000, 8230.000000
1924, 11924544.000000, 1798.000000, 8243.000000, 8204.000000, 8221.000000
1925, 11924704.000000, 1787.500000, 8202.000000, 8200.000000, 8204.000000
1926, 11924864.000000, 1788.000000, 8172.000000, 8194.000000, 8186.000000
1927, 11925024.000000, 1783.000000, 8157.000000, 8190.000000, 8176.000000
1928, 11925184.000000, 1764.000000, 8157.000000, 8189.000000, 8175.000000
1929, 11925344.000000, 1728.000000, 8163.000000, 8188.000000, 8176.000000
1930, 11925504.000000, 1690.000000, 8162.000000, 8187.000000, 8174.000000
1931, 11925664.000000, 1662.000000, 8165.000000, 8186.000000, 8173.000000
1932, 11925824.000000, 1638.000000, 8166.000000, 8186.000000, 8176.000000
1933, 11925984.000000, 1620.000000, 8163.000000, 8185.000000, 8171.000000
1934, 11926144.000000, 1631.000000, 8163.000000, 8185.000000, 8171.000000
1935, 11926304.000000, 1710.500000, 8167.000000, 8183.000000, 8170.000000
1936, 11926464.000000, 1887.000000, 8164.000000, 8183.000000, 8168.000000
1937, 11926624.000000, 2130.000000, 8167.000000, 8185.000000, 8172.000000
1938, 11926784.000000, 2365.000000, 8167.000000, 8184.000000, 8171.000000
1939, 11926944.000000, 2522.000000, 8172.000000, 8184.000000, 8174.000000
1940, 11927104.000000, 2590.000000, 8177.000000, 8191.000000, 8192.000000
1941, 11927264.000000, 2586.000000, 8178.000000, 8194.000000, 8196.000000
1942, 11927424.000000, 2551.000000, 8198.000000, 8198.000000, 8209.000000
1943, 11927584.000000, 2499.000000, 8180.000000, 8186.000000, 8177.000000
1944, 11927744.000000, 2422.000000, 8170.000000, 8180.000000, 8161.000000
1945, 11927904.000000, 2327.500000, 8166.000000, 8177.000000, 8155.000000
1946, 11928064.000000, 2236.000000, 8169.000000, 8177.000000, 8157.000000
1947, 11928224.000000, 2175.000000, 8179.000000, 8205.000000, 8188.000000
1948, 11928384.000000, 2147.000000, 8505.000000, 8163.000000, 8309.000000
1949, 11928544.000000, 2145.500000, 8176.000000, 8054.000000, 8090.000000
1950, 11928704.000000, 2145.000000, 8160.000000, 8160.000000, 8146.000000
1951, 11928864.000000, 2128.000000, 8163.000000, 8186.000000, 8160.000000
1952, 11929024.000000, 2089.000000, 8167.000000, 8191.000000, 8166.000000
1953, 11929184.000000, 2026.000000, 8177.000000, 8196.000000, 8179.000000
1954, 11929344.000000, 1955.000000, 8183.000000, 8197.000000, 8182.000000
1955, 11929504.000000, 1885.500000, 8191.000000, 8198.000000, 8185.000000
1956, 11929664.000000, 1825.000000, 8202.000000, 8201.000000, 8193.000000
1957, 11929824.000000, 1779.000000, 8214.000000, 8205.000000, 8201.000000
1958, 11929984.000000, 1744.000000, 8238.000000, 8208.000000, 8214.000000
1959, 11930144.000000, 1716.000000, 8258.000000, 8211.000000, 8224.000000
1960, 11930304.000000, 1693.000000, 8270.000000, 8210.000000, 8229.000000
1961, 11930464.000000, 1677.500000, 8268.000000, 8212.000000, 8234.000000
1962, 11930624.000000, 1668.000000, 8233.000000, 8210.000000, 8222.000000
1963, 11930784.000000, 1662.000000, 8194.000000, 8204.000000, 8204.000000
1964, 11930944.000000, 1654.000000, 8168.000000, 8196.000000, 8185.000000
1965, 11931104.000000, 1642.000000, 8157.000000, 8189.000000, 8171.000000
1966, 11931264.000000, 1623.000000, 8160.000000, 8190.000000, 8176.000000
1967, 11931424.000000, 1597.500000, 8161.000000, 8191.000000, 8176.000000
1968, 11931584.000000, 1566.000000, 8165.000000, 8191.000000, 8178.000000
1969, 11931744.000000, 1536.000000, 8166.000000, 8188.000000, 8174.000000
1970, 11931904.000000, 1507.000000, 8168.000000, 8187.000000, 8174.000000
1971, 11932064.000000, 1492.500000, 8167.000000, 8185.000000, 8170.000000
1972, 11932224.000000, 1526.000000, 8167.000000, 8184.000000, 8171.000000
1973, 11932384.000000, 1653.500000, 8166.000000, 8183.000000, 8167.000000
1974, 11932544.000000, 1882.000000, 8168.000000, 8184.000000, 8171.000000
1975, 11932704.000000, 2156.000000, 8168.000000, 8183.000000, 8170.000000
1976, 11932864.000000, 2396.000000, 8168.000000, 8183.000000, 8172.000000
1977, 11933024.000000, 2541.500000, 8171.000000, 8184.000000, 8173.000000
1978, 11933184.000000, 2598.000000, 8179.000000, 8194.000000, 8196.000000
1979, 11933344.000000, 2584.000000, 8182.000000, 8196.000000, 8200.000000
1980, 11933504.000000, 2546.000000, 8203.000000, 8202.000000, 8216.000000
1981, 11933664.000000, 2493.500000, 8184.000000, 8187.000000, 8179.000000
1982, 11933824.000000, 2422.000000, 8171.000000, 8179.000000, 8162.000000
1983, 11933984.000000, 2331.000000, 8171.000000, 8177.000000, 8158.000000
1984, 11934144.000000, 2241.000000, 8173.000000, 8177.000000, 8158.000000
1985, 11934304.000000, 2181.000000, 8172.000000, 8199.000000, 8179.000000
1986, 11934464.000000, 2159.000000, 8502.000000, 8184.000000, 8328.000000
1987, 11934624.000000, 2162.500000, 8201.000000, 8051.000000, 8104.000000
1988, 11934784.000000, 2162.000000, 8162.000000, 8156.000000, 8149.000000
1989, 11934944.000000, 2135.500000, 8165.000000, 8188.000000, 8165.000000
1990, 11935104.000000, 2080.000000, 8169.000000, 8192.000000, 8172.000000
1991, 11935264.000000, 2010.500000, 8174.000000, 8194.000000, 8177.000000
1992, 11935424.000000, 1939.000000, 8181.000000, 8197.000000, 8183.000000
1993, 11935584.000000, 1876.000000, 8190.000000, 8199.000000, 8189.000000
1994, 11935744.000000, 1824.000000, 8201.000000, 8202.000000, 8197.000000
1995, 11935904.000000, 1780.000000, 8215.000000, 8204.000000, 8204.000000
1996, 11936064.000000, 1740.000000, 8233.000000, 8207.000000, 8213.000000
1997, 11936224.000000, 1700.500000, 8257.000000, 8211.000000, 8227.000000
1998, 11936384.000000, 1665.000000, 8271.000000, 8212.000000, 8234.000000
1999, 11936544.000000, 1635.000000, 8270.000000, 8211.000000, 8236.000000
2000, 11936704.000000, 1616.000000, 8237.000000, 8212.000000, 8229.000000
2001, 11936864.000000, 1606.500000, 8193.000000, 8203.000000, 8203.000000
2002, 11937024.000000, 1601.000000, 8165.000000, 8193.000000, 8182.000000
2003, 11937184.000000, 1588.000000, 8157.000000, 8190.000000, 8176.000000
2004, 11937344.000000, 1568.000000, 8158.000000, 8189.000000, 8174.000000
2005, 11937504.000000, 1540.000000, 8160.000000, 8190.000000, 8176.000000
2006, 11937664.000000, 1510.000000, 8164.000000, 8189.000000, 8176.000000
2007, 11937824.000000, 1485.500000, 8167.000000, 8188.000000, 8177.000000
2008, 11937984.000000, 1466.000000, 8165.000000, 8188.000000, 8175.000000
2009, 11938144.000000, 1458.000000, 8165.000000, 8187.000000, 8174.000000
2010, 11938304.000000, 1485.000000, 8164.000000, 8185.000000, 8170.000000
2011, 11938464.000000, 1601.000000, 8166.000000, 8186.000000, 8172.000000
2012, 11938624.000000, 1814.000000, 8166.000000, 8184.000000, 8170.000000
2013, 11938784.000000, 2090.000000, 8168.000000, 8185.000000, 8172.000000
2014, 11938944.000000, 2346.000000, 8171.000000, 8186.000000, 8173.000000
2015, 11939104.000000, 2518.000000, 8175.000000, 8190.000000, 8182.000000
2016, 11939264.000000, 2596.000000, 8179.000000, 8196.000000, 8198.000000
2017, 11939424.000000, 2600.000000, 8181.000000, 8196.000000, 8198.000000
2018, 11939584.000000, 2572.000000, 8201.000000, 8200.000000, 8209.000000
2019, 11939744.000000, 2520.000000, 8182.000000, 8184.000000, 8171.000000
2020, 11939904.000000, 2452.000000, 8171.000000, 8177.000000, 8158.000000
2021, 11940064.000000, 2365.000000, 8170.000000, 8175.000000, 8154.000000
2022, 11940224.000000, 2279.000000, 8173.000000, 8177.000000, 8158.000000
2023, 11940384.000000, 2216.000000, 8199.000000, 8216.000000, 8206.000000
2024, 11940544.000000, 2185.000000, 8490.000000, 8144.000000, 8292.000000
2025, 11940704.000000, 2180.000000, 8168.000000, 8052.000000, 8075.000000
2026, 11940864.000000, 2178.000000, 8160.000000, 8167.000000, 8149.000000
2027, 11941024.000000, 2160.500000, 8162.000000, 8188.000000, 8163.000000
2028, 11941184.000000, 2123.000000, 8168.000000, 8191.000000, 8170.000000
2029, 11941344.000000, 2062.500000, 8174.000000, 8195.000000, 8178.000000
2030, 11941504.000000, 1994.000000, 8180.000000, 8197.000000, 8180.000000
2031, 11941664.000000, 1928.500000, 8187.000000, 8198.000000, 8184.000000
2032, 11941824.000000, 1876.000000, 8197.000000, 8201.000000, 8192.000000
2033, 11941984.000000, 1839.000000, 8213.000000, 8205.000000, 8202.000000
2034, 11942144.000000, 1811.000000, 8234.000000, 8210.000000, 8215.000000
2035, 11942304.000000, 1786.500000, 8251.000000, 8209.000000, 8221.000000
2036, 11942464.000000, 1761.000000, 8265.000000, 8212.000000, 8230.000000
2037, 11942624.000000, 1740.000000, 8256.000000, 8215.000000, 8233.000000
2038, 11942784.000000, 1726.000000, 8221.000000, 8214.000000, 8224.000000
2039, 11942944.000000, 1720.000000, 8178.000000, 8206.000000, 8198.000000
2040, 11943104.000000, 1716.000000, 8159.000000, 8195.000000, 8180.000000
2041, 11943264.000000, 1701.000000, 8147.000000, 8195.000000, 8176.000000
2042, 11943424.000000, 1674.000000, 8154.000000, 8193.000000, 8175.000000
2043, 11943584.000000, 1636.000000, 8155.000000, 8194.000000, 8179.000000
2044, 11943744.000000, 1597.000000, 8157.000000, 8195.000000, 8179.000000
2045, 11943904.000000, 1567.000000, 8158.000000, 8192.000000, 8175.000000
2046, 11944064.000000, 1548.000000, 8157.000000, 8190.000000, 8174.000000
2047, 11944224.000000, 1539.000000, 8156.000000, 8190.000000, 8173.000000
2048, 11944384.000000, 1564.000000, 8156.000000, 8190.000000, 8171.000000
2049, 11944544.000000, 1673.000000, 8156.000000, 8192.000000, 8175.000000
2050, 11944704.000000, 1876.000000, 8158.000000, 8190.000000, 8169.000000
2051, 11944864.000000, 2138.500000, 8156.000000, 8190.000000, 8171.000000
2052, 11945024.000000, 2380.000000, 8158.000000, 8188.000000, 8171.000000
2053, 11945184.000000, 2545.500000, 8165.000000, 8195.000000, 8182.000000
2054, 11945344.000000, 2621.000000, 8166.000000, 8200.000000, 8194.000000
2055, 11945504.000000, 2629.000000, 8169.000000, 8200.000000, 8198.000000
2056, 11945664.000000, 2602.000000, 8186.000000, 8202.000000, 8201.000000
2057, 11945824.000000, 2554.500000, 8166.000000, 8187.000000, 8169.000000
2058, 11945984.000000, 2485.000000, 8161.000000, 8183.000000, 8158.000000
2059, 11946144.000000, 2391.500000, 8160.000000, 8183.000000, 8157.000000
2060, 11946304.000000, 2298.000000, 8159.000000, 8183.000000, 8160.000000
2061, 11946464.000000, 2229.500000, 8224.000000, 8228.000000, 8225.000000
2062, 11946624.000000, 2202.000000, 8377.000000, 8156.000000, 8262.000000
2063, 11946784.000000, 2202.500000, 8124.000000, 8084.000000, 8080.000000
2064, 11946944.000000, 2210.000000, 8147.000000, 8178.000000, 8151.000000
2065, 11947104.000000, 2198.000000, 8152.000000, 8190.000000, 8159.000000
2066, 11947264.000000, 2162.000000, 8158.000000, 8193.000000, 8166.000000
2067, 11947424.000000, 2105.500000, 8162.000000, 8196.000000, 8171.000000
2068, 11947584.000000, 2041.000000, 8172.000000, 8198.000000, 8178.000000
2069, 11947744.000000, 1977.500000, 8184.000000, 8201.000000, 8183.000000
2070, 11947904.000000, 1919.000000, 8192.000000, 8200.000000, 8187.000000
2071, 11948064.000000, 1866.000000, 8208.000000, 8203.000000, 8195.000000
2072, 11948224.000000, 1822.000000, 8228.000000, 8204.000000, 8203.000000
2073, 11948384.000000, 1787.000000, 8246.000000, 8204.000000, 8211.000000
2074, 11948544.000000, 1755.000000, 8256.000000, 8206.000000, 8218.000000
2075, 11948704.000000, 1729.500000, 8248.000000, 8208.000000, 8220.000000
2076, 11948864.000000, 1715.000000, 8205.000000, 8210.000000, 8212.000000
2077, 11949024.000000, 1706.500000, 8170.000000, 8206.000000, 8195.000000
2078, 11949184.000000, 1702.000000, 8149.000000, 8201.000000, 8182.000000
2079, 11949344.000000, 1698.000000, 8143.000000, 8197.000000, 8174.000000
2080, 11949504.000000, 1686.000000, 8142.000000, 8196.000000, 8174.000000
2081, 11949664.000000, 1662.500000, 8151.000000, 8196.000000, 8178.000000
2082, 11949824.000000, 1634.000000, 8150.000000, 8194.000000, 8175.000000
2083, 11949984.000000, 1601.500000, 8153.000000, 8195.000000, 8178.000000
2084, 11950144.000000, 1572.000000, 8153.000000, 8193.000000, 8176.000000
2085, 11950304.000000, 1552.500000, 8151.000000, 8192.000000, 8174.000000
2086, 11950464.000000, 1579.000000, 8150.000000, 8191.000000, 8172.000000
2087, 11950624.000000, 1700.500000, 8150.000000, 8192.000000, 8173.000000
2088, 11950784.000000, 1934.000000, 8150.000000, 8191.000000, 8172.000000
2089, 11950944.000000, 2231.500000, 8152.000000, 8190.000000, 8173.000000
2090, 11951104.000000, 2507.000000, 8153.000000, 8191.000000, 8174.000000
2091, 11951264.000000, 2685.500000, 8158.000000, 8199.000000, 8190.000000
2092, 11951424.000000, 2764.000000, 8161.000000, 8203.000000, 8200.000000
2093, 11951584.000000, 2768.000000, 8182.000000, 8210.000000, 8220.000000
2094, 11951744.000000, 2732.000000, 8165.000000, 8197.000000, 8184.000000
2095, 11951904.000000, 2671.500000, 8151.000000, 8189.000000, 8165.000000
2096, 11952064.000000, 2579.000000, 8149.000000, 8186.000000, 8161.000000
2097, 11952224.000000, 2464.000000, 8150.000000, 8187.000000, 8164.000000
2098, 11952384.000000, 2354.000000, 8153.000000, 8210.000000, 8187.000000
2099, 11952544.000000, 2288.000000, 8466.000000, 8190.000000, 8320.000000
2100, 11952704.000000, 2266.000000, 8135.000000, 8098.000000, 8127.000000
2101, 11952864.000000, 2273.000000, 8132.000000, 8154.000000, 8139.000000
2102, 11953024.000000, 2274.000000, 8142.000000, 8191.000000, 8161.000000
2103, 11953184.000000, 2253.500000, 8149.000000, 8197.000000, 8172.000000
2104, 11953344.000000, 2201.000000, 8155.000000, 8200.000000, 8177.000000
2105, 11953504.000000, 2119.500000, 8159.000000, 8202.000000, 8183.000000
2106, 11953664.000000, 2024.000000, 8168.000000, 8204.000000, 8189.000000
2107, 11953824.000000, 1930.000000, 8182.000000, 8206.000000, 8197.000000
2108, 11953984.000000, 1847.000000, 8196.000000, 8210.000000, 8206.000000
2109, 11954144.000000, 1784.000000, 8213.000000, 8211.000000, 8212.000000
2110, 11954304.000000, 1732.000000, 8234.000000, 8211.000000, 8220.000000
2111, 11954464.000000, 1684.500000, 8245.000000, 8209.000000, 8223.000000
2112, 11954624.000000, 1640.000000, 8247.000000, 8211.000000, 8229.000000
2113, 11954784.000000, 1609.500000, 8217.000000, 8214.000000, 8224.000000
2114, 11954944.000000, 1592.000000, 8176.000000, 8211.000000, 8208.000000
2115, 11955104.000000, 1579.000000, 8149.000000, 8204.000000, 8191.000000
2116, 11955264.000000, 1562.000000, 8139.000000, 8196.000000, 8178.000000
2117, 11955424.000000, 1535.500000, 8138.000000, 8196.000000, 8179.000000
2118, 11955584.000000, 1503.000000, 8143.000000, 8199.000000, 8184.000000
2119, 11955744.000000, 1463.500000, 8146.000000, 8196.000000, 8179.000000
2120, 11955904.000000, 1421.000000, 8145.000000, 8193.000000, 8177.000000
2121, 11956064.000000, 1377.500000, 8146.000000, 8193.000000, 8178.000000
2122, 11956224.000000, 1339.000000, 8146.000000, 8191.000000, 8174.000000
2123, 11956384.000000, 1328.000000, 8145.000000, 8191.000000, 8175.000000
2124, 11956544.000000, 1386.000000, 8145.000000, 8191.000000, 8175.000000
2125, 11956704.000000, 1559.000000, 8147.000000, 8187.000000, 8170.000000
2126, 11956864.000000, 1833.000000, 8149.000000, 8189.000000, 8170.000000
2127, 11957024.000000, 2127.000000, 8146.000000, 8188.000000, 8171.000000
2128, 11957184.000000, 2359.000000, 8150.000000, 8189.000000, 8174.000000
2129, 11957344.000000, 2481.500000, 8155.000000, 8195.000000, 8184.000000
2130, 11957504.000000, 2518.000000, 8162.000000, 8200.000000, 8197.000000
2131, 11957664.000000, 2499.000000, 8163.000000, 8197.000000, 8199.000000
2132, 11957824.000000, 2457.000000, 8177.000000, 8198.000000, 8199.000000
2133, 11957984.000000, 2390.000000, 8157.000000, 8186.000000, 8168.000000
2134, 11958144.000000, 2299.000000, 8156.000000, 8182.000000, 8163.000000
2135, 11958304.000000, 2204.000000, 8157.000000, 8181.000000, 8159.000000
2136, 11958464.000000, 2134.000000, 8153.000000, 8182.000000, 8161.000000
2137, 11958624.000000, 2111.000000, 8243.000000, 8231.000000, 8244.000000
2138, 11958784.000000, 2126.000000, 8346.000000, 8144.000000, 8250.000000
2139, 11958944.000000, 2157.000000, 8124.000000, 8082.000000, 8078.000000
2140, 11959104.000000, 2175.000000, 8148.000000, 8178.000000, 8154.000000
2141, 11959264.000000, 2161.500000, 8151.000000, 8189.000000, 8165.000000
2142, 11959424.000000, 2124.000000, 8157.000000, 8194.000000, 8174.000000
2143, 11959584.000000, 2070.500000, 8166.000000, 8197.000000, 8181.000000
2144, 11959744.000000, 2016.000000, 8175.000000, 8200.000000, 8188.000000
2145, 11959904.000000, 1967.500000, 8181.000000, 8199.000000, 8189.000000
2146, 11960064.000000, 1929.000000, 8195.000000, 8200.000000, 8193.000000
2147, 11960224.000000, 1897.000000, 8209.000000, 8205.000000, 8205.000000
2148, 11960384.000000, 1867.000000, 8233.000000, 8207.000000, 8215.000000
2149, 11960544.000000, 1839.000000, 8250.000000, 8210.000000, 8224.000000
2150, 11960704.000000, 1818.000000, 8259.000000, 8207.000000, 8227.000000
2151, 11960864.000000, 1805.000000, 8248.000000, 8208.000000, 8228.000000
2152, 11961024.000000, 1799.000000, 8211.000000, 8210.000000, 8218.000000
2153, 11961184.000000, 1800.500000, 8175.000000, 8202.000000, 8198.000000
2154, 11961344.000000, 1804.000000, 8155.000000, 8196.000000, 8185.000000
2155, 11961504.000000, 1795.000000, 8152.000000, 8191.000000, 8176.000000
2156, 11961664.000000, 1774.000000, 8152.000000, 8191.000000, 8178.000000
2157, 11961824.000000, 1742.000000, 8155.000000, 8193.000000, 8180.000000
2158, 11961984.000000, 1708.000000, 8158.000000, 8192.000000, 8179.000000
2159, 11962144.000000, 1675.000000, 8161.000000, 8191.000000, 8180.000000
2160, 11962304.000000, 1647.000000, 8159.000000, 8190.000000, 8179.000000
2161, 11962464.000000, 1635.500000, 8157.000000, 8187.000000, 8175.000000
2162, 11962624.000000, 1669.000000, 8159.000000, 8188.000000, 8177.000000
2163, 11962784.000000, 1816.000000, 8158.000000, 8186.000000, 8171.000000
2164, 11962944.000000, 2071.000000, 8159.000000, 8188.000000, 8173.000000
2165, 11963104.000000, 2387.500000, 8159.000000, 8187.000000, 8174.000000
2166, 11963264.000000, 2659.000000, 8161.000000, 8186.000000, 8173.000000
2167, 11963424.000000, 2826.500000, 8164.000000, 8187.000000, 8176.000000
2168, 11963584.000000, 2885.000000, 8170.000000, 8193.000000, 8190.000000
2169, 11963744.000000, 2872.500000, 8176.000000, 8200.000000, 8204.000000
2170, 11963904.000000, 2831.000000, 8176.000000, 8199.000000, 8205.000000
2171, 11964064.000000, 2776.500000, 8190.000000, 8197.000000, 8201.000000
2172, 11964224.000000, 2695.000000, 8172.000000, 8183.000000, 8171.000000
2173, 11964384.000000, 2589.000000, 8168.000000, 8179.000000, 8164.000000
2174, 11964544.000000, 2479.000000, 8169.000000, 8179.000000, 8163.000000
2175, 11964704.000000, 2396.500000, 8167.000000, 8180.000000, 8161.000000
2176, 11964864.000000, 2353.000000, 8261.000000, 8231.000000, 8252.000000
2177, 11965024.000000, 2343.000000, 8367.000000, 8134.000000, 8250.000000
2178, 11965184.000000, 2336.000000, 8144.000000, 8078.000000, 8081.000000
2179, 11965344.000000, 2304.000000, 8162.000000, 8179.000000, 8160.000000
2180, 11965504.000000, 2243.000000, 8165.000000, 8188.000000, 8167.000000
2181, 11965664.000000, 2157.000000, 8169.000000, 8192.000000, 8174.000000
2182, 11965824.000000, 2060.000000, 8178.000000, 8196.000000, 8184.000000
2183, 11965984.000000, 1965.500000, 8187.000000, 8198.000000, 8190.000000
2184, 11966144.000000, 1879.000000, 8195.000000, 8200.000000, 8193.000000
2185, 11966304.000000, 1810.500000, 8208.000000, 8202.000000, 8202.000000
2186, 11966464.000000, 1752.000000, 8222.000000, 8205.000000, 8208.000000
2187, 11966624.000000, 1701.500000, 8246.000000, 8208.000000, 8221.000000
2188, 11966784.000000, 1655.000000, 8267.000000, 8212.000000, 8233.000000
2189, 11966944.000000, 1616.500000, 8274.000000, 8212.000000, 8238.000000
2190, 11967104.000000, 1584.000000, 8262.000000, 8212.000000, 8236.000000
2191, 11967264.000000, 1561.000000, 8223.000000, 8210.000000, 8222.000000
2192, 11967424.000000, 1544.000000, 8187.000000, 8202.000000, 8202.000000
2193, 11967584.000000, 1527.500000, 8168.000000, 8195.000000, 8186.000000
2194, 11967744.000000, 1508.000000, 8165.000000, 8195.000000, 8186.000000
2195, 11967904.000000, 1481.500000, 8163.000000, 8189.000000, 8179.000000
2196, 11968064.000000, 1450.000000, 8167.000000, 8190.000000, 8181.000000
2197, 11968224.000000, 1417.000000, 8170.000000, 8189.000000, 8182.000000
2198, 11968384.000000, 1384.000000, 8173.000000, 8189.000000, 8184.000000
2199, 11968544.000000, 1349.500000, 8175.000000, 8189.000000, 8185.000000
2200, 11968704.000000, 1324.000000, 8170.000000, 8186.000000, 8177.000000
2201, 11968864.000000, 1354.500000, 8172.000000, 8184.000000, 8176.000000
2202, 11969024.000000, 1486.000000, 8171.000000, 8184.000000, 8177.000000
2203, 11969184.000000, 1750.500000, 8170.000000, 8185.000000, 8176.000000
2204, 11969344.000000, 2074.000000, 8174.000000, 8185.000000, 8178.000000
2205, 11969504.000000, 2366.500000, 8175.000000, 8184.000000, 8176.000000
2206, 11969664.000000, 2559.000000, 8176.000000, 8183.000000, 8176.000000
2207, 11969824.000000, 2638.500000, 8176.000000, 8185.000000, 8178.000000
2208, 11969984.000000, 2638.000000, 8185.000000, 8196.000000, 8202.000000
2209, 11970144.000000, 2604.500000, 8188.000000, 8194.000000, 8202.000000
2210, 11970304.000000, 2557.000000, 8207.000000, 8193.000000, 8210.000000
2211, 11970464.000000, 2489.500000, 8191.000000, 8182.000000, 8179.000000
2212, 11970624.000000, 2398.000000, 8177.000000, 8173.000000, 8160.000000
2213, 11970784.000000, 2298.000000, 8179.000000, 8173.000000, 8160.000000
2214, 11970944.000000, 2218.000000, 8180.000000, 8174.000000, 8161.000000
2215, 11971104.000000, 2185.500000, 8180.000000, 8198.000000, 8183.000000
2216, 11971264.000000, 2192.000000, 8506.000000, 8177.000000, 8329.000000
2217, 11971424.000000, 2213.000000, 8201.000000, 8046.000000, 8099.000000
2218, 11971584.000000, 2217.000000, 8167.000000, 8159.000000, 8154.000000
2219, 11971744.000000, 2185.500000, 8170.000000, 8191.000000, 8172.000000
2220, 11971904.000000, 2134.000000, 8176.000000, 8194.000000, 8179.000000
2221, 11972064.000000, 2071.000000, 8179.000000, 8198.000000, 8185.000000
2222, 11972224.000000, 2010.000000, 8188.000000, 8200.000000, 8191.000000
2223, 11972384.000000, 1960.500000, 8195.000000, 8203.000000, 8198.000000
2224, 11972544.000000, 1917.000000, 8207.000000, 8206.000000, 8205.000000
2225, 11972704.000000, 1879.000000, 8220.000000, 8210.000000, 8214.000000
2226, 11972864.000000, 1847.000000, 8238.000000, 8214.000000, 8224.000000
2227, 11973024.000000, 1818.500000, 8261.000000, 8218.000000, 8237.000000
2228, 11973184.000000, 1793.000000, 8276.000000, 8221.000000, 8246.000000
2229, 11973344.000000, 1769.500000, 8273.000000, 8222.000000, 8249.000000
2230, 11973504.000000, 1749.000000, 8244.000000, 8219.000000, 8239.000000
2231, 11973664.000000, 1729.500000, 8202.000000, 8209.000000, 8215.000000
2232, 11973824.000000, 1715.000000, 8173.000000, 8200.000000, 8193.000000
2233, 11973984.000000, 1700.000000, 8160.000000, 8197.000000, 8183.000000
2234, 11974144.000000, 1680.000000, 8164.000000, 8197.000000, 8186.000000
2235, 11974304.000000, 1646.500000, 8164.000000, 8196.000000, 8185.000000
2236, 11974464.000000, 1608.000000, 8164.000000, 8195.000000, 8182.000000
2237, 11974624.000000, 1570.000000, 8169.000000, 8194.000000, 8186.000000
2238, 11974784.000000, 1538.000000, 8169.000000, 8194.000000, 8186.000000
2239, 11974944.000000, 1516.500000, 8166.000000, 8192.000000, 8182.000000
2240, 11975104.000000, 1513.000000, 8168.000000, 8191.000000, 8182.000000
2241, 11975264.000000, 1583.000000, 8163.000000, 8191.000000, 8177.000000
2242, 11975424.000000, 1757.000000, 8165.000000, 8191.000000, 8180.000000
2243, 11975584.000000, 2040.500000, 8162.000000, 8193.000000, 8180.000000
2244, 11975744.000000, 2343.000000, 8163.000000, 8192.000000, 8180.000000
2245, 11975904.000000, 2578.500000, 8165.000000, 8192.000000, 8181.000000
2246, 11976064.000000, 2699.000000, 8166.000000, 8193.000000, 8183.000000
2247, 11976224.000000, 2725.000000, 8171.000000, 8200.000000, 8197.000000
2248, 11976384.000000, 2698.000000, 8176.000000, 8206.000000, 8208.000000
2249, 11976544.000000, 2654.500000, 8178.000000, 8207.000000, 8213.000000
2250, 11976704.000000, 2603.000000, 8190.000000, 8205.000000, 8209.000000
2251, 11976864.000000, 2525.000000, 8166.000000, 8191.000000, 8179.000000
2252, 11977024.000000, 2422.000000, 8161.000000, 8186.000000, 8169.000000
2253, 11977184.000000, 2316.000000, 8161.000000, 8188.000000, 8169.000000
2254, 11977344.000000, 2242.000000, 8163.000000, 8189.000000, 8171.000000
2255, 11977504.000000, 2210.500000, 8228.000000, 8234.000000, 8241.000000
2256, 11977664.000000, 2201.000000, 8387.000000, 8149.000000, 8268.000000
2257, 11977824.000000, 2187.500000, 8137.000000, 8079.000000, 8083.000000
2258, 11977984.000000, 2154.000000, 8152.000000, 8183.000000, 8162.000000
2259, 11978144.000000, 2089.000000, 8157.000000, 8194.000000, 8172.000000
2260, 11978304.000000, 2008.000000, 8157.000000, 8198.000000, 8176.000000
2261, 11978464.000000, 1922.000000, 8167.000000, 8197.000000, 8180.000000
2262, 11978624.000000, 1838.000000, 8175.000000, 8200.000000, 8188.000000
2263, 11978784.000000, 1761.000000, 8184.000000, 8202.000000, 8192.000000
2264, 11978944.000000, 1695.000000, 8193.000000, 8202.000000, 8196.000000
2265, 11979104.000000, 1642.000000, 8210.000000, 8204.000000, 8201.000000
2266, 11979264.000000, 1600.000000, 8229.000000, 8205.000000, 8213.000000
2267, 11979424.000000, 1562.000000, 8251.000000, 8209.000000, 8225.000000
2268, 11979584.000000, 1528.000000, 8255.000000, 8212.000000, 8231.000000
2269, 11979744.000000, 1493.500000, 8250.000000, 8212.000000, 8234.000000
2270, 11979904.000000, 1464.000000, 8213.000000, 8212.000000, 8223.000000
2271, 11980064.000000, 1438.000000, 8174.000000, 8208.000000, 8203.000000
2272, 11980224.000000, 1414.000000, 8151.000000, 8200.000000, 8188.000000
2273, 11980384.000000, 1391.000000, 8151.000000, 8196.000000, 8184.000000
2274, 11980544.000000, 1365.000000, 8151.000000, 8197.000000, 8183.000000
2275, 11980704.000000, 1334.000000, 8154.000000, 8196.000000, 8184.000000
2276, 11980864.000000, 1298.000000, 8156.000000, 8194.000000, 8185.000000
2277, 11981024.000000, 1257.500000, 8158.000000, 8195.000000, 8184.000000
2278, 11981184.000000, 1221.000000, 8156.000000, 8193.000000, 8182.000000
2279, 11981344.000000, 1190.500000, 8159.000000, 8192.000000, 8181.000000
2280, 11981504.000000, 1186.000000, 8157.000000, 8192.000000, 8180.000000
2281, 11981664.000000, 1265.500000, 8157.000000, 8178.000000, 8164.000000
2282, 11981824.000000, 1461.000000, 8156.000000, 8179.000000, 8166.000000
2283, 11981984.000000, 1766.000000, 8161.000000, 8178.000000, 8165.000000
2284, 11982144.000000, 2075.000000, 8163.000000, 8180.000000, 8170.000000
2285, 11982304.000000, 2300.000000, 8165.000000, 8182.000000, 8175.000000
2286, 11982464.000000, 2409.000000, 8169.000000, 8190.000000, 8190.000000
2287, 11982624.000000, 2429.500000, 8172.000000, 8190.000000, 8192.000000
2288, 11982784.000000, 2405.000000, 8193.000000, 8201.000000, 8217.000000
2289, 11982944.000000, 2361.000000, 8175.000000, 8188.000000, 8182.000000
2290, 11983104.000000, 2299.000000, 8166.000000, 8177.000000, 8165.000000
2291, 11983264.000000, 2204.500000, 8161.000000, 8177.000000, 8162.000000
2292, 11983424.000000, 2097.000000, 8166.000000, 8179.000000, 8165.000000
2293, 11983584.000000, 2008.000000, 8175.000000, 8204.000000, 8194.000000
2294, 11983744.000000, 1962.000000, 8477.000000, 8171.000000, 8308.000000
2295, 11983904.000000, 1959.500000, 8136.000000, 8093.000000, 8121.000000
2296, 11984064.000000, 1972.000000, 8151.000000, 8149.000000, 8143.000000
2297, 11984224.000000, 1963.000000, 8163.000000, 8185.000000, 8169.000000
2298, 11984384.000000, 1926.000000, 8167.000000, 8188.000000, 8173.000000
2299, 11984544.000000, 1859.000000, 8176.000000, 8191.000000, 8180.000000
2300, 11984704.000000, 1780.000000, 8181.000000, 8193.000000, 8185.000000
2301, 11984864.000000, 1708.000000, 8190.000000, 8196.000000, 8190.000000
2302, 11985024.000000, 1646.000000, 8202.000000, 8195.000000, 8195.000000
2303, 11985184.000000, 1600.500000, 8214.000000, 8198.000000, 8200.000000
2304, 11985344.000000, 1568.000000, 8232.000000, 8198.000000, 8208.000000
2305, 11985504.000000, 1541.500000, 8257.000000, 8197.000000, 8215.000000
2306, 11985664.000000, 1521.000000, 8270.000000, 8198.000000, 8223.000000
2307, 11985824.000000, 1505.500000, 8267.000000, 8198.000000, 8225.000000
2308, 11985984.000000, 1493.000000, 8238.000000, 8202.000000, 8222.000000
2309, 11986144.000000, 1487.000000, 8196.000000, 8202.000000, 8208.000000
2310, 11986304.000000, 1486.000000, 8174.000000, 8197.000000, 8198.000000
2311, 11986464.000000, 1479.000000, 8163.000000, 8195.000000, 8195.000000
2312, 11986624.000000, 1464.000000, 8166.000000, 8191.000000, 8191.000000
2313, 11986784.000000, 1434.000000, 8168.000000, 8194.000000, 8193.000000
2314, 11986944.000000, 1399.000000, 8170.000000, 8191.000000, 8193.000000
2315, 11987104.000000, 1362.500000, 8173.000000, 8192.000000, 8194.000000
2316, 11987264.000000, 1339.000000, 8172.000000, 8189.000000, 8189.000000
2317, 11987424.000000, 1343.000000, 8173.000000, 8189.000000, 8189.000000
2318, 11987584.000000, 1425.000000, 8170.000000, 8189.000000, 8186.000000
2319, 11987744.000000, 1623.500000, 8169.000000, 8188.000000, 8184.000000
2320, 11987904.000000, 1928.000000, 8170.000000, 8186.000000, 8183.000000
2321, 11988064.000000, 2251.500000, 8169.000000, 8184.000000, 8180.000000
2322, 11988224.000000, 2509.000000, 8171.000000, 8185.000000, 8182.000000
2323, 11988384.000000, 2644.500000, 8174.000000, 8186.000000, 8183.000000
2324, 11988544.000000, 2688.000000, 8180.000000, 8194.000000, 8201.000000
2325, 11988704.000000, 2675.000000, 8181.000000, 8196.000000, 8204.000000
2326, 11988864.000000, 2639.000000, 8199.000000, 8202.000000, 8222.000000
2327, 11989024.000000, 2580.000000, 8183.000000, 8192.000000, 8191.000000
2328, 11989184.000000, 2485.000000, 8172.000000, 8181.000000, 8169.000000
2329, 11989344.000000, 2379.000000, 8172.000000, 8178.000000, 8166.000000
2330, 11989504.000000, 2297.000000, 8169.000000, 8177.000000, 8163.000000
2331, 11989664.000000, 2272.500000, 8160.000000, 8194.000000, 8174.000000
2332, 11989824.000000, 2287.000000, 8451.000000, 8205.000000, 8323.000000
2333, 11989984.000000, 2310.500000, 8178.000000, 8088.000000, 8136.000000
2334, 11990144.000000, 2307.000000, 8150.000000, 8132.000000, 8131.000000
2335, 11990304.000000, 2270.500000, 8164.000000, 8183.000000, 8162.000000
2336, 11990464.000000, 2208.000000, 8168.000000, 8186.000000, 8165.000000
2337, 11990624.000000, 2132.000000, 8175.000000, 8191.000000, 8179.000000
2338, 11990784.000000, 2060.000000, 8184.000000, 8194.000000, 8184.000000
2339, 11990944.000000, 2001.000000, 8193.000000, 8196.000000, 8190.000000
2340, 11991104.000000, 1953.000000, 8199.000000, 8197.000000, 8193.000000
2341, 11991264.000000, 1906.000000, 8213.000000, 8199.000000, 8200.000000
2342, 11991424.000000, 1859.000000, 8229.000000, 8205.000000, 8211.000000
2343, 11991584.000000, 1815.000000, 8252.000000, 8206.000000, 8221.000000
2344, 11991744.000000, 1782.000000, 8269.000000, 8208.000000, 8230.000000
2345, 11991904.000000, 1763.000000, 8270.000000, 8206.000000, 8231.000000
2346, 11992064.000000, 1755.000000, 8243.000000, 8206.000000, 8225.000000
2347, 11992224.000000, 1754.500000, 8205.000000, 8203.000000, 8209.000000
2348, 11992384.000000, 1753.000000, 8175.000000, 8196.000000, 8190.000000
2349, 11992544.000000, 1740.500000, 8165.000000, 8189.000000, 8180.000000
2350, 11992704.000000, 1715.000000, 8160.000000, 8186.000000, 8176.000000
2351, 11992864.000000, 1678.000000, 8164.000000, 8187.000000, 8178.000000
2352, 11993024.000000, 1638.000000, 8168.000000, 8187.000000, 8180.000000
2353, 11993184.000000, 1600.000000, 8170.000000, 8189.000000, 8182.000000
2354, 11993344.000000, 1564.000000, 8171.000000, 8186.000000, 8179.000000
2355, 11993504.000000, 1547.500000, 8169.000000, 8186.000000, 8178.000000
2356, 11993664.000000, 1596.000000, 8167.000000, 8184.000000, 8173.000000
2357, 11993824.000000, 1775.000000, 8166.000000, 8184.000000, 8174.000000
2358, 11993984.000000, 2078.000000, 8167.000000, 8185.000000, 8174.000000
2359, 11994144.000000, 2420.000000, 8168.000000, 8185.000000, 8174.000000
2360, 11994304.000000, 2701.000000, 8168.000000, 8183.000000, 8172.000000
2361, 11994464.000000, 2849.000000, 8172.000000, 8184.000000, 8174.000000
2362, 11994624.000000, 2889.000000, 8171.000000, 8184.000000, 8173.000000
2363, 11994784.000000, 2861.500000, 8181.000000, 8194.000000, 8198.000000
2364, 11994944.000000, 2819.000000, 8183.000000, 8195.000000, 8200.000000
2365, 11995104.000000, 2762.000000, 8197.000000, 8201.000000, 8215.000000
2366, 11995264.000000, 2675.000000, 8190.000000, 8190.000000, 8188.000000
2367, 11995424.000000, 2566.500000, 8172.000000, 8180.000000, 8164.000000
2368, 11995584.000000, 2461.000000, 8173.000000, 8179.000000, 8162.000000
2369, 11995744.000000, 2403.500000, 8174.000000, 8178.000000, 8161.000000
2370, 11995904.000000, 2393.000000, 8164.000000, 8190.000000, 8165.000000
2371, 11996064.000000, 2410.500000, 8437.000000, 8213.000000, 8323.000000
2372, 11996224.000000, 2414.000000, 8209.000000, 8067.000000, 8127.000000
2373, 11996384.000000, 2386.500000, 8157.000000, 8134.000000, 8132.000000
2374, 11996544.000000, 2327.000000, 8168.000000, 8187.000000, 8166.000000
2375, 11996704.000000, 2249.500000, 8168.000000, 8191.000000, 8168.000000
2376, 11996864.000000, 2170.000000, 8178.000000, 8197.000000, 8181.000000
2377, 11997024.000000, 2097.500000, 8182.000000, 8200.000000, 8187.000000
2378, 11997184.000000, 2034.000000, 8192.000000, 8202.000000, 8193.000000
2379, 11997344.000000, 1980.000000, 8200.000000, 8204.000000, 8197.000000
2380, 11997504.000000, 1934.000000, 8211.000000, 8207.000000, 8205.000000
2381, 11997664.000000, 1893.000000, 8228.000000, 8211.000000, 8216.000000
2382, 11997824.000000, 1859.000000, 8249.000000, 8216.000000, 8229.000000
2383, 11997984.000000, 1829.500000, 8267.000000, 8216.000000, 8235.000000
2384, 11998144.000000, 1810.000000, 8268.000000, 8216.000000, 8240.000000
2385, 11998304.000000, 1798.500000, 8247.000000, 8216.000000, 8234.000000
2386, 11998464.000000, 1792.000000, 8205.000000, 8209.000000, 8213.000000
2387, 11998624.000000, 1776.500000, 8177.000000, 8199.000000, 8192.000000
2388, 11998784.000000, 1752.000000, 8166.000000, 8193.000000, 8181.000000
2389, 11998944.000000, 1718.000000, 8163.000000, 8191.000000, 8177.000000
2390, 11999104.000000, 1674.000000, 8165.000000, 8191.000000, 8180.000000
2391, 11999264.000000, 1629.500000, 8166.000000, 8190.000000, 8178.000000
2392, 11999424.000000, 1590.000000, 8168.000000, 8190.000000, 8179.000000
2393, 11999584.000000, 1556.500000, 8169.000000, 8190.000000, 8178.000000
2394, 11999744.000000, 1545.000000, 8169.000000, 8189.000000, 8177.000000
2395, 11999904.000000, 1624.000000, 8170.000000, 8188.000000, 8177.000000
2396, 12000064.000000, 1834.000000, 8169.000000, 8186.000000, 8174.000000
2397, 12000224.000000, 2186.500000, 8169.000000, 8186.000000, 8174.000000
2398, 12000384.000000, 2580.000000, 8171.000000, 8186.000000, 8173.000000
2399, 12000544.000000, 2896.000000, 8170.000000, 8185.000000, 8172.000000
2400, 12000704.000000, 3077.000000, 8171.000000, 8183.000000, 8170.000000
2401, 12000864.000000, 3128.500000, 8173.000000, 8183.000000, 8172.000000
2402, 12001024.000000, 3111.000000, 8178.000000, 8189.000000, 8185.000000
2403, 12001184.000000, 3070.500000, 8183.000000, 8198.000000, 8203.000000
2404, 12001344.000000, 3020.000000, 8185.000000, 8197.000000, 8203.000000
2405, 12001504.000000, 2939.000000, 8201.000000, 8199.000000, 8208.000000
2406, 12001664.000000, 2826.000000, 8184.000000, 8185.000000, 8175.000000
2407, 12001824.000000, 2712.500000, 8173.000000, 8181.000000, 8164.000000
2408, 12001984.000000, 2635.000000, 8174.000000, 8178.000000, 8161.000000
2409, 12002144.000000, 2604.500000, 8177.000000, 8180.000000, 8163.000000
2410, 12002304.000000, 2598.000000, 8211.000000, 8223.000000, 8217.000000
2411, 12002464.000000, 2587.500000, 8466.000000, 8140.000000, 8282.000000
2412, 12002624.000000, 2555.000000, 8162.000000, 8054.000000, 8069.000000
2413, 12002784.000000, 2495.000000, 8165.000000, 8174.000000, 8155.000000
2414, 12002944.000000, 2410.000000, 8169.000000, 8193.000000, 8171.000000
2415, 12003104.000000, 2312.000000, 8174.000000, 8196.000000, 8177.000000
2416, 12003264.000000, 2214.000000, 8179.000000, 8198.000000, 8181.000000
2417, 12003424.000000, 2132.500000, 8188.000000, 8201.000000, 8188.000000
2418, 12003584.000000, 2066.000000, 8195.000000, 8201.000000, 8192.000000
2419, 12003744.000000, 2007.500000, 8203.000000, 8204.000000, 8197.000000
2420, 12003904.000000, 1962.000000, 8220.000000, 8207.000000, 8207.000000
2421, 12004064.000000, 1925.500000, 8238.000000, 8212.000000, 8220.000000
2422, 12004224.000000, 1898.000000, 8259.000000, 8217.000000, 8233.000000
2423, 12004384.000000, 1873.000000, 8270.000000, 8217.000000, 8240.000000
2424, 12004544.000000, 1849.000000, 8263.000000, 8216.000000, 8240.000000
2425, 12004704.000000, 1825.500000, 8232.000000, 8212.000000, 8228.000000
2426, 12004864.000000, 1806.000000, 8193.000000, 8200.000000, 8200.000000
2427, 12005024.000000, 1781.000000, 8171.000000, 8190.000000, 8181.000000
2428, 12005184.000000, 1753.000000, 8166.000000, 8188.000000, 8176.000000
2429, 12005344.000000, 1718.500000, 8167.000000, 8188.000000, 8175.000000
2430, 12005504.000000, 1680.000000, 8168.000000, 8187.000000, 8176.000000
2431, 12005664.000000, 1645.500000, 8169.000000, 8185.000000, 8173.000000
2432, 12005824.000000, 1615.000000, 8169.000000, 8185.000000, 8173.000000
2433, 12005984.000000, 1592.000000, 8172.000000, 8184.000000, 8174.000000
2434, 12006144.000000, 1597.000000, 8171.000000, 8183.000000, 8172.000000
2435, 12006304.000000, 1704.000000, 8171.000000, 8182.000000, 8169.000000
2436, 12006464.000000, 1948.000000, 8171.000000, 8180.000000, 8167.000000
2437, 12006624.000000, 2317.000000, 8171.000000, 8179.000000, 8166.000000
2438, 12006784.000000, 2694.000000, 8173.000000, 8182.000000, 8169.000000
2439, 12006944.000000, 2971.500000, 8176.000000, 8183.000000, 8172.000000
2440, 12007104.000000, 3113.000000, 8174.000000, 8179.000000, 8168.000000
2441, 12007264.000000, 3137.500000, 8175.000000, 8180.000000, 8168.000000
2442, 12007424.000000, 3099.000000, 8184.000000, 8191.000000, 8193.000000
2443, 12007584.000000, 3033.500000, 8184.000000, 8194.000000, 8196.000000
2444, 12007744.000000, 2953.000000, 8201.000000, 8200.000000, 8215.000000
2445, 12007904.000000, 2842.500000, 8196.000000, 8189.000000, 8189.000000
2446, 12008064.000000, 2709.000000, 8175.000000, 8178.000000, 8162.000000
2447, 12008224.000000, 2587.000000, 8173.000000, 8174.000000, 8155.000000
2448, 12008384.000000, 2508.000000, 8176.000000, 8173.000000, 8156.000000
2449, 12008544.000000, 2474.500000, 8165.000000, 8181.000000, 8156.000000
2450, 12008704.000000, 2465.000000, 8388.000000, 8222.000000, 8306.000000
2451, 12008864.000000, 2444.500000, 8261.000000, 8066.000000, 8151.000000
2452, 12009024.000000, 2393.000000, 8158.000000, 8117.000000, 8119.000000
2453, 12009184.000000, 2315.000000, 8166.000000, 8179.000000, 8157.000000
2454, 12009344.000000, 2222.000000, 8171.000000, 8186.000000, 8167.000000
2455, 12009504.000000, 2124.000000, 8176.000000, 8189.000000, 8170.000000
2456, 12009664.000000, 2030.000000, 8180.000000, 8193.000000, 8180.000000
2457, 12009824.000000, 1944.500000, 8191.000000, 8195.000000, 8186.000000
2458, 12009984.000000, 1872.000000, 8200.000000, 8199.000000, 8194.000000
2459, 12010144.000000, 1811.000000, 8209.000000, 8203.000000, 8200.000000
2460, 12010304.000000, 1760.000000, 8224.000000, 8206.000000, 8208.000000
2461, 12010464.000000, 1718.000000, 8244.000000, 8211.000000, 8221.000000
2462, 12010624.000000, 1676.000000, 8262.000000, 8216.000000, 8234.000000
2463, 12010784.000000, 1633.000000, 8262.000000, 8217.000000, 8239.000000
2464, 12010944.000000, 1590.000000, 8244.000000, 8217.000000, 8235.000000
2465, 12011104.000000, 1549.000000, 8206.000000, 8211.000000, 8217.000000
2466, 12011264.000000, 1510.000000, 8174.000000, 8201.000000, 8194.000000
2467, 12011424.000000, 1469.000000, 8162.000000, 8196.000000, 8185.000000
2468, 12011584.000000, 1430.000000, 8158.000000, 8195.000000, 8182.000000
2469, 12011744.000000, 1387.000000, 8162.000000, 8195.000000, 8184.000000
2470, 12011904.000000, 1342.000000, 8162.000000, 8194.000000, 8181.000000
2471, 12012064.000000, 1302.500000, 8164.000000, 8192.000000, 8179.000000
2472, 12012224.000000, 1268.000000, 8163.000000, 8191.000000, 8181.000000
2473, 12012384.000000, 1244.500000, 8161.000000, 8193.000000, 8180.000000
2474, 12012544.000000, 1254.000000, 8162.000000, 8190.000000, 8177.000000
2475, 12012704.000000, 1376.000000, 8158.000000, 8190.000000, 8175.000000
2476, 12012864.000000, 1638.000000, 8162.000000, 8189.000000, 8176.000000
2477, 12013024.000000, 2012.000000, 8157.000000, 8190.000000, 8176.000000
2478, 12013184.000000, 2380.000000, 8161.000000, 8193.000000, 8180.000000
2479, 12013344.000000, 2640.500000, 8162.000000, 8192.000000, 8179.000000
2480, 12013504.000000, 2758.000000, 8163.000000, 8191.000000, 8179.000000
2481, 12013664.000000, 2754.500000, 8166.000000, 8196.000000, 8190.000000
2482, 12013824.000000, 2692.000000, 8172.000000, 8201.000000, 8201.000000
2483, 12013984.000000, 2604.500000, 8175.000000, 8203.000000, 8207.000000
2484, 12014144.000000, 2494.000000, 8189.000000, 8204.000000, 8211.000000
2485, 12014304.000000, 2353.500000, 8169.000000, 8188.000000, 8176.000000
2486, 12014464.000000, 2207.000000, 8161.000000, 8184.000000, 8167.000000
2487, 12014624.000000, 2097.000000, 8161.000000, 8184.000000, 8165.000000
2488, 12014784.000000, 2046.000000, 8167.000000, 8186.000000, 8169.000000
2489, 12014944.000000, 2044.000000, 8221.000000, 8230.000000, 8236.000000
2490, 12015104.000000, 2059.000000, 8401.000000, 8162.000000, 8280.000000
2491, 12015264.000000, 2051.500000, 8132.000000, 8086.000000, 8095.000000
2492, 12015424.000000, 2009.000000, 8151.000000, 8177.000000, 8159.000000
2493, 12015584.000000, 1937.000000, 8162.000000, 8196.000000, 8175.000000
2494, 12015744.000000, 1852.000000, 8168.000000, 8198.000000, 8181.000000
2495, 12015904.000000, 1769.000000, 8173.000000, 8201.000000, 8186.000000
2496, 12016064.000000, 1692.000000, 8183.000000, 8202.000000, 8191.000000
2497, 12016224.000000, 1621.500000, 8189.000000, 8206.000000, 8199.000000
2498, 12016384.000000, 1557.000000, 8202.000000, 8206.000000, 8202.000000
2499, 12016544.000000, 1498.000000, 8218.000000, 8210.000000, 8212.000000
2500, 12016704.000000, 1449.000000, 8236.000000, 8205.000000, 8213.000000
2501, 12016864.000000, 1410.000000, 8259.000000, 8208.000000, 8222.000000
2502, 12017024.000000, 1375.000000, 8266.000000, 8207.000000, 8229.000000
2503, 12017184.000000, 1349.500000, 8259.000000, 8207.000000, 8229.000000
2504, 12017344.000000, 1329.000000, 8224.000000, 8202.000000, 8216.000000
2505, 12017504.000000, 1309.500000, 8186.000000, 8202.000000, 8201.000000
2506, 12017664.000000, 1288.000000, 8163.000000, 8193.000000, 8183.000000
2507, 12017824.000000, 1255.000000, 8157.000000, 8193.000000, 8183.000000
2508, 12017984.000000, 1219.000000, 8160.000000, 8193.000000, 8183.000000
2509, 12018144.000000, 1182.000000, 8164.000000, 8193.000000, 8182.000000
2510, 12018304.000000, 1143.000000, 8167.000000, 8193.000000, 8182.000000
2511, 12018464.000000, 1097.500000, 8166.000000, 8199.000000, 8191.000000
2512, 12018624.000000, 1052.000000, 8166.000000, 8199.000000, 8189.000000
2513, 12018784.000000, 1023.500000, 8164.000000, 8197.000000, 8188.000000
2514, 12018944.000000, 1051.000000, 8162.000000, 8197.000000, 8184.000000
2515, 12019104.000000, 1222.500000, 8167.000000, 8197.000000, 8184.000000
2516, 12019264.000000, 1535.000000, 8164.000000, 8198.000000, 8185.000000
2517, 12019424.000000, 1936.500000, 8163.000000, 8201.000000, 8187.000000
2518, 12019584.000000, 2288.000000, 8165.000000, 8200.000000, 8189.000000
2519, 12019744.000000, 2514.500000, 8171.000000, 8204.000000, 8199.000000
2520, 12019904.000000, 2608.000000, 8175.000000, 8209.000000, 8209.000000
2521, 12020064.000000, 2607.000000, 8183.000000, 8209.000000, 8214.000000
2522, 12020224.000000, 2556.000000, 8195.000000, 8210.000000, 8221.000000
2523, 12020384.000000, 2454.000000, 8179.000000, 8199.000000, 8188.000000
2524, 12020544.000000, 2313.000000, 8170.000000, 8190.000000, 8175.000000
2525, 12020704.000000, 2147.500000, 8169.000000, 8188.000000, 8172.000000
2526, 12020864.000000, 2017.000000, 8173.000000, 8188.000000, 8173.000000
2527, 12021024.000000, 1955.000000, 8212.000000, 8226.000000, 8228.000000
2528, 12021184.000000, 1962.000000, 8420.000000, 8162.000000, 8277.000000
2529, 12021344.000000, 1996.500000, 8134.000000, 8094.000000, 8108.000000
2530, 12021504.000000, 2018.000000, 8157.000000, 8170.000000, 8154.000000
2531, 12021664.000000, 1998.500000, 8172.000000, 8191.000000, 8175.000000
2532, 12021824.000000, 1942.000000, 8175.000000, 8193.000000, 8177.000000
2533, 12021984.000000, 1858.500000, 8184.000000, 8199.000000, 8189.000000
2534, 12022144.000000, 1770.000000, 8191.000000, 8198.000000, 8189.000000
2535, 12022304.000000, 1687.000000, 8199.000000, 8199.000000, 8195.000000
2536, 12022464.000000, 1613.000000, 8209.000000, 8200.000000, 8200.000000
2537, 12022624.000000, 1548.000000, 8228.000000, 8200.000000, 8207.000000
2538, 12022784.000000, 1493.000000, 8245.000000, 8203.000000, 8213.000000
2539, 12022944.000000, 1455.000000, 8266.000000, 8202.000000, 8220.000000
2540, 12023104.000000, 1431.000000, 8271.000000, 8200.000000, 8222.000000
2541, 12023264.000000, 1416.000000, 8265.000000, 8201.000000, 8225.000000
2542, 12023424.000000, 1410.000000, 8232.000000, 8205.000000, 8221.000000
2543, 12023584.000000, 1403.500000, 8195.000000, 8204.000000, 8207.000000
2544, 12023744.000000, 1399.000000, 8174.000000, 8199.000000, 8194.000000
2545, 12023904.000000, 1394.500000, 8164.000000, 8193.000000, 8184.000000
2546, 12024064.000000, 1379.000000, 8162.000000, 8190.000000, 8181.000000
2547, 12024224.000000, 1348.000000, 8171.000000, 8191.000000, 8186.000000
2548, 12024384.000000, 1306.000000, 8171.000000, 8191.000000, 8186.000000
2549, 12024544.000000, 1263.000000, 8174.000000, 8190.000000, 8185.000000
2550, 12024704.000000, 1222.000000, 8174.000000, 8187.000000, 8180.000000
2551, 12024864.000000, 1193.000000, 8172.000000, 8187.000000, 8179.000000
2552, 12025024.000000, 1199.000000, 8167.000000, 8186.000000, 8179.000000
2553, 12025184.000000, 1315.500000, 8173.000000, 8187.000000, 8180.000000
2554, 12025344.000000, 1573.000000, 8172.000000, 8187.000000, 8179.000000
2555, 12025504.000000, 1956.000000, 8174.000000, 8185.000000, 8178.000000
2556, 12025664.000000, 2342.000000, 8174.000000, 8188.000000, 8183.000000
2557, 12025824.000000, 2621.500000, 8180.000000, 8194.000000, 8201.000000
2558, 12025984.000000, 2757.000000, 8183.000000, 8200.000000, 8209.000000
2559, 12026144.000000, 2772.500000, 8202.000000, 8201.000000, 8219.000000
2560, 12026304.000000, 2720.000000, 8181.000000, 8189.000000, 8183.000000
2561, 12026464.000000, 2620.500000, 8174.000000, 8179.000000, 8166.000000
2562, 12026624.000000, 2489.000000, 8173.000000, 8180.000000, 8165.000000
2563, 12026784.000000, 2341.000000, 8174.000000, 8179.000000, 8166.000000
2564, 12026944.000000, 2219.000000, 8185.000000, 8206.000000, 8195.000000
2565, 12027104.000000, 2166.500000, 8491.000000, 8163.000000, 8307.000000
2566, 12027264.000000, 2182.000000, 8154.000000, 8069.000000, 8099.000000
2567, 12027424.000000, 2236.000000, 8158.000000, 8157.000000, 8148.000000
2568, 12027584.000000, 2285.000000, 8170.000000, 8186.000000, 8167.000000
2569, 12027744.000000, 2294.500000, 8176.000000, 8190.000000, 8173.000000
2570, 12027904.000000, 2260.000000, 8180.000000, 8189.000000, 8176.000000
2571, 12028064.000000, 2187.000000, 8190.000000, 8195.000000, 8189.000000
2572, 12028224.000000, 2098.000000, 8198.000000, 8196.000000, 8193.000000
2573, 12028384.000000, 2007.500000, 8208.000000, 8199.000000, 8199.000000
2574, 12028544.000000, 1935.000000, 8223.000000, 8202.000000, 8208.000000
2575, 12028704.000000, 1873.500000, 8243.000000, 8203.000000, 8216.000000
2576, 12028864.000000, 1819.000000, 8262.000000, 8205.000000, 8225.000000
2577, 12029024.000000, 1768.000000, 8272.000000, 8204.000000, 8230.000000
2578, 12029184.000000, 1727.000000, 8271.000000, 8205.000000, 8233.000000
2579, 12029344.000000, 1704.500000, 8239.000000, 8203.000000, 8223.000000
2580, 12029504.000000, 1699.000000, 8201.000000, 8198.000000, 8205.000000
2581, 12029664.000000, 1707.000000, 8175.000000, 8191.000000, 8187.000000
2582, 12029824.000000, 1712.000000, 8167.000000, 8187.000000, 8180.000000
2583, 12029984.000000, 1706.500000, 8168.000000, 8186.000000, 8179.000000
2584, 12030144.000000, 1684.000000, 8167.000000, 8186.000000, 8177.000000
2585, 12030304.000000, 1646.500000, 8170.000000, 8185.000000, 8178.000000
2586, 12030464.000000, 1608.000000, 8173.000000, 8187.000000, 8182.000000
2587, 12030624.000000, 1568.000000, 8174.000000, 8184.000000, 8179.000000
2588, 12030784.000000, 1534.000000, 8172.000000, 8186.000000, 8180.000000
2589, 12030944.000000, 1537.500000, 8173.000000, 8183.000000, 8176.000000
2590, 12031104.000000, 1649.000000, 8170.000000, 8182.000000, 8173.000000
2591, 12031264.000000, 1925.500000, 8171.000000, 8183.000000, 8176.000000
2592, 12031424.000000, 2330.000000, 8172.000000, 8181.000000, 8173.000000
2593, 12031584.000000, 2734.500000, 8174.000000, 8182.000000, 8175.000000
2594, 12031744.000000, 3035.000000, 8175.000000, 8181.000000, 8173.000000
2595, 12031904.000000, 3170.500000, 8184.000000, 8190.000000, 8192.000000
2596, 12032064.000000, 3190.000000, 8183.000000, 8193.000000, 8200.000000
2597, 12032224.000000, 3140.000000, 8198.000000, 8198.000000, 8215.000000
2598, 12032384.000000, 3055.000000, 8194.000000, 8188.000000, 8190.000000
2599, 12032544.000000, 2939.000000, 8176.000000, 8175.000000, 8162.000000
2600, 12032704.000000, 2787.000000, 8174.000000, 8174.000000, 8159.000000
2601, 12032864.000000, 2630.500000, 8173.000000, 8172.000000, 8155.000000
2602, 12033024.000000, 2511.000000, 8165.000000, 8184.000000, 8163.000000
2603, 12033184.000000, 2456.000000, 8418.000000, 8216.000000, 8314.000000
2604, 12033344.000000, 2446.000000, 8221.000000, 8084.000000, 8152.000000
2605, 12033504.000000, 2451.500000, 8155.000000, 8115.000000, 8115.000000
2606, 12033664.000000, 2432.000000, 8171.000000, 8178.000000, 8161.000000
2607, 12033824.000000, 2370.000000, 8173.000000, 8186.000000, 8169.000000
2608, 12033984.000000, 2275.000000, 8181.000000, 8191.000000, 8179.000000
2609, 12034144.000000, 2168.500000, 8190.000000, 8192.000000, 8184.000000
2610, 12034304.000000, 2066.000000, 8194.000000, 8192.000000, 8187.000000
2611, 12034464.000000, 1975.000000, 8201.000000, 8194.000000, 8191.000000
2612, 12034624.000000, 1896.000000, 8217.000000, 8200.000000, 8204.000000
2613, 12034784.000000, 1830.000000, 8235.000000, 8203.000000, 8213.000000
2614, 12034944.000000, 1776.000000, 8257.000000, 8206.000000, 8224.000000
2615, 12035104.000000, 1730.500000, 8269.000000, 8206.000000, 8230.000000
2616, 12035264.000000, 1689.000000, 8272.000000, 8207.000000, 8235.000000
2617, 12035424.000000, 1653.000000, 8253.000000, 8207.000000, 8231.000000
2618, 12035584.000000, 1624.000000, 8213.000000, 8201.000000, 8212.000000
2619, 12035744.000000, 1598.500000, 8183.000000, 8192.000000, 8191.000000
2620, 12035904.000000, 1576.000000, 8168.000000, 8185.000000, 8176.000000
2621, 12036064.000000, 1548.500000, 8165.000000, 8184.000000, 8175.000000
2622, 12036224.000000, 1507.000000, 8167.000000, 8185.000000, 8176.000000
2623, 12036384.000000, 1448.500000, 8173.000000, 8185.000000, 8180.000000
2624, 12036544.000000, 1381.000000, 8176.000000, 8183.000000, 8178.000000
2625, 12036704.000000, 1320.500000, 8176.000000, 8183.000000, 8178.000000
2626, 12036864.000000, 1268.000000, 8173.000000, 8182.000000, 8175.000000
2627, 12037024.000000, 1251.000000, 8172.000000, 8182.000000, 8174.000000
2628, 12037184.000000, 1336.000000, 8174.000000, 8182.000000, 8173.000000
2629, 12037344.000000, 1598.500000, 8173.000000, 8182.000000, 8173.000000
2630, 12037504.000000, 2007.000000, 8172.000000, 8181.000000, 8171.000000
2631, 12037664.000000, 2446.500000, 8173.000000, 8184.000000, 8175.000000
2632, 12037824.000000, 2790.000000, 8175.000000, 8184.000000, 8176.000000
2633, 12037984.000000, 2965.000000, 8179.000000, 8187.000000, 8182.000000
2634, 12038144.000000, 3011.000000, 8185.000000, 8197.000000, 8205.000000
2635, 12038304.000000, 2972.500000, 8186.000000, 8196.000000, 8203.000000
2636, 12038464.000000, 2908.000000, 8204.000000, 8199.000000, 8214.000000
2637, 12038624.000000, 2827.500000, 8185.000000, 8187.000000, 8180.000000
2638, 12038784.000000, 2713.000000, 8177.000000, 8180.000000, 8167.000000
2639, 12038944.000000, 2575.500000, 8176.000000, 8179.000000, 8164.000000
2640, 12039104.000000, 2450.000000, 8177.000000, 8181.000000, 8168.000000
2641, 12039264.000000, 2381.000000, 8185.000000, 8208.000000, 8195.000000
2642, 12039424.000000, 2362.000000, 8507.000000, 8162.000000, 8317.000000
2643, 12039584.000000, 2373.500000, 8183.000000, 8039.000000, 8078.000000
2644, 12039744.000000, 2371.000000, 8166.000000, 8163.000000, 8155.000000
2645, 12039904.000000, 2331.500000, 8169.000000, 8192.000000, 8172.000000
2646, 12040064.000000, 2254.000000, 8175.000000, 8194.000000, 8178.000000
2647, 12040224.000000, 2159.500000, 8179.000000, 8199.000000, 8186.000000
2648, 12040384.000000, 2063.000000, 8189.000000, 8201.000000, 8194.000000
2649, 12040544.000000, 1967.000000, 8197.000000, 8204.000000, 8199.000000
2650, 12040704.000000, 1882.000000, 8207.000000, 8207.000000, 8206.000000
2651, 12040864.000000, 1808.000000, 8220.000000, 8210.000000, 8214.000000
2652, 12041024.000000, 1751.000000, 8240.000000, 8215.000000, 8228.000000
2653, 12041184.000000, 1709.500000, 8264.000000, 8221.000000, 8244.000000
2654, 12041344.000000, 1673.000000, 8273.000000, 8221.000000, 8248.000000
2655, 12041504.000000, 1641.000000, 8269.000000, 8219.000000, 8249.000000
2656, 12041664.000000, 1618.000000, 8238.000000, 8215.000000, 8237.000000
2657, 12041824.000000, 1599.500000, 8200.000000, 8206.000000, 8214.000000
2658, 12041984.000000, 1584.000000, 8175.000000, 8199.000000, 8195.000000
2659, 12042144.000000, 1570.500000, 8166.000000, 8193.000000, 8185.000000
2660, 12042304.000000, 1551.000000, 8164.000000, 8192.000000, 8183.000000
2661, 12042464.000000, 1526.500000, 8167.000000, 8191.000000, 8184.000000
2662, 12042624.000000, 1496.000000, 8169.000000, 8192.000000, 8186.000000
2663, 12042784.000000, 1467.000000, 8173.000000, 8193.000000, 8188.000000
2664, 12042944.000000, 1442.000000, 8173.000000, 8191.000000, 8184.000000
2665, 12043104.000000, 1425.500000, 8171.000000, 8187.000000, 8180.000000
2666, 12043264.000000, 1444.000000, 8170.000000, 8185.000000, 8176.000000
2667, 12043424.000000, 1587.000000, 8171.000000, 8188.000000, 8181.000000
2668, 12043584.000000, 1890.000000, 8171.000000, 8186.000000, 8179.000000
2669, 12043744.000000, 2336.000000, 8171.000000, 8184.000000, 8175.000000
2670, 12043904.000000, 2781.000000, 8171.000000, 8183.000000, 8174.000000
2671, 12044064.000000, 3110.000000, 8173.000000, 8183.000000, 8176.000000
2672, 12044224.000000, 3283.000000, 8174.000000, 8185.000000, 8178.000000
2673, 12044384.000000, 3319.500000, 8185.000000, 8195.000000, 8201.000000
2674, 12044544.000000, 3289.000000, 8185.000000, 8197.000000, 8205.000000
2675, 12044704.000000, 3226.500000, 8203.000000, 8202.000000, 8220.000000
2676, 12044864.000000, 3138.000000, 8192.000000, 8191.000000, 8192.000000
2677, 12045024.000000, 3011.000000, 8174.000000, 8177.000000, 8164.000000
2678, 12045184.000000, 2860.000000, 8176.000000, 8179.000000, 8166.000000
2679, 12045344.000000, 2724.000000, 8178.000000, 8178.000000, 8164.000000
2680, 12045504.000000, 2634.000000, 8165.000000, 8192.000000, 8171.000000
2681, 12045664.000000, 2595.500000, 8451.000000, 8213.000000, 8333.000000
2682, 12045824.000000, 2578.000000, 8231.000000, 8048.000000, 8121.000000
2683, 12045984.000000, 2543.500000, 8167.000000, 8138.000000, 8144.000000
2684, 12046144.000000, 2478.000000, 8170.000000, 8186.000000, 8169.000000
2685, 12046304.000000, 2380.500000, 8175.000000, 8191.000000, 8177.000000
2686, 12046464.000000, 2267.000000, 8180.000000, 8193.000000, 8182.000000
2687, 12046624.000000, 2151.000000, 8187.000000, 8197.000000, 8189.000000
2688, 12046784.000000, 2047.000000, 8195.000000, 8199.000000, 8194.000000
2689, 12046944.000000, 1959.000000, 8205.000000, 8200.000000, 8198.000000
2690, 12047104.000000, 1888.000000, 8218.000000, 8203.000000, 8207.000000
2691, 12047264.000000, 1828.000000, 8234.000000, 8207.000000, 8216.000000
2692, 12047424.000000, 1776.000000, 8257.000000, 8213.000000, 8233.000000
2693, 12047584.000000, 1730.500000, 8272.000000, 8218.000000, 8244.000000
2694, 12047744.000000, 1690.000000, 8271.000000, 8214.000000, 8244.000000
2695, 12047904.000000, 1657.000000, 8248.000000, 8213.000000, 8237.000000
2696, 12048064.000000, 1629.000000, 8209.000000, 8204.000000, 8216.000000
2697, 12048224.000000, 1604.000000, 8180.000000, 8195.000000, 8194.000000
2698, 12048384.000000, 1579.000000, 8167.000000, 8190.000000, 8183.000000
2699, 12048544.000000, 1546.500000, 8164.000000, 8189.000000, 8178.000000
2700, 12048704.000000, 1505.000000, 8169.000000, 8188.000000, 8182.000000
2701, 12048864.000000, 1457.500000, 8167.000000, 8185.000000, 8176.000000
2702, 12049024.000000, 1409.000000, 8172.000000, 8188.000000, 8184.000000
2703, 12049184.000000, 1364.500000, 8174.000000, 8186.000000, 8183.000000
2704, 12049344.000000, 1332.000000, 8173.000000, 8185.000000, 8178.000000
2705, 12049504.000000, 1326.000000, 8171.000000, 8185.000000, 8178.000000
2706, 12049664.000000, 1390.000000, 8170.000000, 8182.000000, 8175.000000
2707, 12049824.000000, 1614.500000, 8171.000000, 8184.000000, 8177.000000
2708, 12049984.000000, 1983.000000, 8173.000000, 8184.000000, 8177.000000
2709, 12050144.000000, 2430.500000, 8173.000000, 8185.000000, 8178.000000
2710, 12050304.000000, 2812.000000, 8174.000000, 8183.000000, 8176.000000
2711, 12050464.000000, 3041.000000, 8172.000000, 8184.000000, 8176.000000
2712, 12050624.000000, 3123.000000, 8178.000000, 8186.000000, 8182.000000
2713, 12050784.000000, 3105.000000, 8185.000000, 8196.000000, 8204.000000
2714, 12050944.000000, 3056.000000, 8184.000000, 8196.000000, 8204.000000
2715, 12051104.000000, 2995.500000, 8208.000000, 8204.000000, 8222.000000
2716, 12051264.000000, 2907.000000, 8189.000000, 8190.000000, 8189.000000
2717, 12051424.000000, 2785.500000, 8175.000000, 8182.000000, 8170.000000
2718, 12051584.000000, 2671.000000, 8176.000000, 8183.000000, 8172.000000
2719, 12051744.000000, 2601.500000, 8179.000000, 8183.000000, 8172.000000
2720, 12051904.000000, 2586.000000, 8182.000000, 8207.000000, 8194.000000
2721, 12052064.000000, 2596.000000, 8510.000000, 8171.000000, 8328.000000
2722, 12052224.000000, 2597.000000, 8191.000000, 8048.000000, 8098.000000
2723, 12052384.000000, 2560.500000, 8166.000000, 8165.000000, 8161.000000
2724, 12052544.000000, 2485.000000, 8170.000000, 8192.000000, 8175.000000
2725, 12052704.000000, 2378.500000, 8173.000000, 8196.000000, 8181.000000
2726, 12052864.000000, 2254.000000, 8177.000000, 8199.000000, 8186.000000
2727, 12053024.000000, 2126.000000, 8182.000000, 8202.000000, 8193.000000
2728, 12053184.000000, 2000.000000, 8192.000000, 8204.000000, 8199.000000
2729, 12053344.000000, 1880.000000, 8199.000000, 8207.000000, 8205.000000
2730, 12053504.000000, 1768.000000, 8216.000000, 8211.000000, 8216.000000
2731, 12053664.000000, 1665.500000, 8230.000000, 8213.000000, 8223.000000
2732, 12053824.000000, 1569.000000, 8252.000000, 8219.000000, 8236.000000
2733, 12053984.000000, 1475.500000, 8264.000000, 8220.000000, 8245.000000
2734, 12054144.000000, 1387.000000, 8259.000000, 8222.000000, 8246.000000
2735, 12054304.000000, 1303.500000, 8228.000000, 8219.000000, 8238.000000
2736, 12054464.000000, 1231.000000, 8189.000000, 8211.000000, 8216.000000
2737, 12054624.000000, 1169.500000, 8163.000000, 8202.000000, 8196.000000
2738, 12054784.000000, 1113.000000, 8152.000000, 8198.000000, 8189.000000
2739, 12054944.000000, 1057.500000, 8151.000000, 8197.000000, 8187.000000
2740, 12055104.000000, 997.000000, 8155.000000, 8196.000000, 8187.000000
2741, 12055264.000000, 936.500000, 8157.000000, 8195.000000, 8187.000000
2742, 12055424.000000, 893.000000, 8161.000000, 8195.000000, 8190.000000
2743, 12055584.000000, 865.000000, 8157.000000, 8195.000000, 8189.000000
2744, 12055744.000000, 848.000000, 8160.000000, 8193.000000, 8187.000000
2745, 12055904.000000, 856.000000, 8156.000000, 8189.000000, 8180.000000
2746, 12056064.000000, 929.000000, 8154.000000, 8190.000000, 8178.000000
2747, 12056224.000000, 1152.500000, 8156.000000, 8191.000000, 8182.000000
2748, 12056384.000000, 1519.000000, 8156.000000, 8189.000000, 8182.000000
2749, 12056544.000000, 1954.000000, 8157.000000, 8187.000000, 8179.000000
2750, 12056704.000000, 2327.000000, 8158.000000, 8187.000000, 8180.000000
2751, 12056864.000000, 2562.000000, 8167.000000, 8192.000000, 8194.000000
2752, 12057024.000000, 2654.000000, 8169.000000, 8198.000000, 8204.000000
2753, 12057184.000000, 2644.000000, 8176.000000, 8202.000000, 8216.000000
2754, 12057344.000000, 2586.000000, 8184.000000, 8201.000000, 8211.000000
2755, 12057504.000000, 2487.500000, 8166.000000, 8190.000000, 8184.000000
2756, 12057664.000000, 2347.000000, 8161.000000, 8187.000000, 8174.000000
2757, 12057824.000000, 2185.500000, 8166.000000, 8186.000000, 8176.000000
2758, 12057984.000000, 2052.000000, 8160.000000, 8189.000000, 8179.000000
2759, 12058144.000000, 1983.000000, 8237.000000, 8236.000000, 8253.000000
2760, 12058304.000000, 1981.000000, 8356.000000, 8173.000000, 8281.000000
2761, 12058464.000000, 2016.000000, 8120.000000, 8098.000000, 8107.000000
2762, 12058624.000000, 2053.000000, 8149.000000, 8190.000000, 8173.000000
2763, 12058784.000000, 2061.000000, 8157.000000, 8207.000000, 8191.000000
2764, 12058944.000000, 2038.000000, 8162.000000, 8215.000000, 8198.000000
2765, 12059104.000000, 1980.500000, 8171.000000, 8218.000000, 8207.000000
2766, 12059264.000000, 1907.000000, 8175.000000, 8217.000000, 8207.000000
2767, 12059424.000000, 1834.000000, 8187.000000, 8225.000000, 8219.000000
2768, 12059584.000000, 1770.000000, 8198.000000, 8228.000000, 8227.000000
2769, 12059744.000000, 1718.000000, 8207.000000, 8233.000000, 8232.000000
2770, 12059904.000000, 1680.000000, 8228.000000, 8233.000000, 8238.000000
2771, 12060064.000000, 1648.000000, 8248.000000, 8238.000000, 8248.000000
2772, 12060224.000000, 1626.000000, 8256.000000, 8239.000000, 8257.000000
2773, 12060384.000000, 1615.000000, 8240.000000, 8248.000000, 8261.000000
2774, 12060544.000000, 1616.000000, 8196.000000, 8251.000000, 8253.000000
2775, 12060704.000000, 1624.000000, 8158.000000, 8252.000000, 8239.000000
2776, 12060864.000000, 1620.000000, 8134.000000, 8249.000000, 8228.000000
2777, 12061024.000000, 1601.000000, 8127.000000, 8248.000000, 8224.000000
2778, 12061184.000000, 1566.000000, 8128.000000, 8251.000000, 8224.000000
2779, 12061344.000000, 1516.500000, 8129.000000, 8249.000000, 8224.000000
2780, 12061504.000000, 1456.000000, 8133.000000, 8252.000000, 8226.000000
2781, 12061664.000000, 1386.500000, 8130.000000, 8254.000000, 8228.000000
2782, 12061824.000000, 1315.000000, 8123.000000, 8256.000000, 8227.000000
2783, 12061984.000000, 1255.500000, 8123.000000, 8261.000000, 8230.000000
2784, 12062144.000000, 1215.000000, 8121.000000, 8260.000000, 8226.000000
2785, 12062304.000000, 1246.500000, 8114.000000, 8261.000000, 8224.000000
2786, 12062464.000000, 1392.000000, 8113.000000, 8265.000000, 8226.000000
2787, 12062624.000000, 1706.500000, 8112.000000, 8268.000000, 8228.000000
2788, 12062784.000000, 2096.000000, 8112.000000, 8275.000000, 8237.000000
2789, 12062944.000000, 2453.500000, 8114.000000, 8283.000000, 8252.000000
2790, 12063104.000000, 2688.000000, 8112.000000, 8284.000000, 8254.000000
2791, 12063264.000000, 2784.500000, 8124.000000, 8288.000000, 8260.000000
2792, 12063424.000000, 2782.000000, 8104.000000, 8276.000000, 8227.000000
2793, 12063584.000000, 2712.000000, 8094.000000, 8273.000000, 8217.000000
2794, 12063744.000000, 2592.000000, 8098.000000, 8272.000000, 8217.000000
2795, 12063904.000000, 2412.000000, 8096.000000, 8275.000000, 8220.000000
2796, 12064064.000000, 2213.000000, 8152.000000, 8321.000000, 8288.000000
2797, 12064224.000000, 2051.500000, 8323.000000, 8247.000000, 8321.000000
2798, 12064384.000000, 1967.000000, 8062.000000, 8173.000000, 8142.000000
2799, 12064544.000000, 1958.500000, 8085.000000, 8265.000000, 8209.000000
2800, 12064704.000000, 1987.000000, 8092.000000, 8283.000000, 8226.000000
2801, 12064864.000000, 2005.500000, 8101.000000, 8286.000000, 8233.000000
2802, 12065024.000000, 1987.000000, 8109.000000, 8288.000000, 8242.000000
2803, 12065184.000000, 1927.500000, 8122.000000, 8287.000000, 8246.000000
2804, 12065344.000000, 1844.000000, 8132.000000, 8289.000000, 8252.000000
2805, 12065504.000000, 1744.000000, 8142.000000, 8287.000000, 8255.000000
2806, 12065664.000000, 1644.000000, 8159.000000, 8289.000000, 8262.000000
2807, 12065824.000000, 1549.500000, 8180.000000, 8290.000000, 8275.000000
2808, 12065984.000000, 1463.000000, 8199.000000, 8288.000000, 8280.000000
2809, 12066144.000000, 1392.000000, 8209.000000, 8284.000000, 8281.000000
2810, 12066304.000000, 1337.000000, 8199.000000, 8284.000000, 8282.000000
2811, 12066464.000000, 1306.000000, 8157.000000, 8284.000000, 8270.000000
2812, 12066624.000000, 1296.000000, 8117.000000, 8278.000000, 8251.000000
2813, 12066784.000000, 1298.000000, 8101.000000, 8271.000000, 8238.000000
2814, 12066944.000000, 1303.000000, 8096.000000, 8265.000000, 8228.000000
2815, 12067104.000000, 1299.000000, 8100.000000, 8263.000000, 8231.000000
2816, 12067264.000000, 1276.000000, 8110.000000, 8262.000000, 8235.000000
2817, 12067424.000000, 1234.500000, 8116.000000, 8260.000000, 8235.000000
2818, 12067584.000000, 1179.000000, 8121.000000, 8256.000000, 8232.000000
2819, 12067744.000000, 1132.000000, 8124.000000, 8251.000000, 8227.000000
2820, 12067904.000000, 1100.000000, 8126.000000, 8244.000000, 8221.000000
2821, 12068064.000000, 1111.500000, 8125.000000, 8240.000000, 8215.000000
2822, 12068224.000000, 1281.000000, 8129.000000, 8238.000000, 8219.000000
2823, 12068384.000000, 1653.000000, 8133.000000, 8235.000000, 8215.000000
2824, 12068544.000000, 2119.000000, 8138.000000, 8231.000000, 8214.000000
2825, 12068704.000000, 2500.500000, 8145.000000, 8236.000000, 8226.000000
2826, 12068864.000000, 2675.000000, 8155.000000, 8240.000000, 8240.000000
2827, 12069024.000000, 2715.000000, 8166.000000, 8240.000000, 8254.000000
2828, 12069184.000000, 2684.000000, 8174.000000, 8235.000000, 8240.000000
2829, 12069344.000000, 2609.500000, 8159.000000, 8218.000000, 8207.000000
2830, 12069504.000000, 2495.000000, 8157.000000, 8211.000000, 8197.000000
2831, 12069664.000000, 2348.000000, 8159.000000, 8210.000000, 8197.000000
2832, 12069824.000000, 2198.000000, 8155.000000, 8214.000000, 8197.000000
2833, 12069984.000000, 2096.500000, 8339.000000, 8262.000000, 8329.000000
2834, 12070144.000000, 2060.000000, 8288.000000, 8144.000000, 8249.000000
2835, 12070304.000000, 2078.000000, 8152.000000, 8129.000000, 8141.000000
2836, 12070464.000000, 2107.000000, 8172.000000, 8213.000000, 8207.000000
2837, 12070624.000000, 2112.500000, 8176.000000, 8221.000000, 8218.000000
2838, 12070784.000000, 2077.000000, 8187.000000, 8223.000000, 8225.000000
2839, 12070944.000000, 2010.500000, 8197.000000, 8226.000000, 8234.000000
2840, 12071104.000000, 1925.000000, 8204.000000, 8222.000000, 8235.000000
2841, 12071264.000000, 1836.500000, 8217.000000, 8221.000000, 8239.000000
2842, 12071424.000000, 1756.000000, 8228.000000, 8224.000000, 8245.000000
2843, 12071584.000000, 1679.000000, 8249.000000, 8224.000000, 8251.000000
2844, 12071744.000000, 1614.000000, 8273.000000, 8225.000000, 8260.000000
2845, 12071904.000000, 1561.500000, 8288.000000, 8224.000000, 8263.000000
2846, 12072064.000000, 1522.000000, 8297.000000, 8220.000000, 8265.000000
2847, 12072224.000000, 1505.000000, 8279.000000, 8218.000000, 8259.000000
2848, 12072384.000000, 1505.000000, 8240.000000, 8213.000000, 8242.000000
2849, 12072544.000000, 1506.000000, 8205.000000, 8203.000000, 8219.000000
2850, 12072704.000000, 1495.000000, 8190.000000, 8193.000000, 8201.000000
2851, 12072864.000000, 1471.500000, 8188.000000, 8192.000000, 8200.000000
2852, 12073024.000000, 1437.000000, 8192.000000, 8193.000000, 8204.000000
2853, 12073184.000000, 1402.500000, 8196.000000, 8191.000000, 8201.000000
2854, 12073344.000000, 1370.000000, 8197.000000, 8190.000000, 8200.000000
2855, 12073504.000000, 1335.000000, 8195.000000, 8188.000000, 8197.000000
2856, 12073664.000000, 1312.000000, 8195.000000, 8185.000000, 8194.000000
2857, 12073824.000000, 1352.000000, 8195.000000, 8185.000000, 8194.000000
2858, 12073984.000000, 1517.000000, 8194.000000, 8181.000000, 8189.000000
2859, 12074144.000000, 1852.000000, 8196.000000, 8179.000000, 8189.000000
2860, 12074304.000000, 2267.000000, 8194.000000, 8177.000000, 8187.000000
2861, 12074464.000000, 2643.500000, 8196.000000, 8175.000000, 8187.000000
2862, 12074624.000000, 2887.000000, 8203.000000, 8182.000000, 8204.000000
2863, 12074784.000000, 2985.500000, 8206.000000, 8187.000000, 8215.000000
2864, 12074944.000000, 2981.000000, 8208.000000, 8184.000000, 8216.000000
2865, 12075104.000000, 2926.500000, 8220.000000, 8182.000000, 8212.000000
2866, 12075264.000000, 2850.000000, 8199.000000, 8170.000000, 8180.000000
2867, 12075424.000000, 2737.500000, 8193.000000, 8166.000000, 8172.000000
2868, 12075584.000000, 2593.000000, 8193.000000, 8163.000000, 8169.000000
2869, 12075744.000000, 2446.500000, 8198.000000, 8164.000000, 8173.000000
2870, 12075904.000000, 2341.000000, 8283.000000, 8217.000000, 8259.000000
2871, 12076064.000000, 2289.500000, 8422.000000, 8107.000000, 8259.000000
2872, 12076224.000000, 2278.000000, 8180.000000, 8055.000000, 8084.000000
2873, 12076384.000000, 2272.000000, 8189.000000, 8162.000000, 8165.000000
2874, 12076544.000000, 2239.000000, 8192.000000, 8171.000000, 8174.000000
2875, 12076704.000000, 2166.500000, 8200.000000, 8174.000000, 8182.000000
2876, 12076864.000000, 2071.000000, 8208.000000, 8175.000000, 8187.000000
2877, 12077024.000000, 1965.000000, 8219.000000, 8179.000000, 8196.000000
2878, 12077184.000000, 1868.000000, 8227.000000, 8180.000000, 8200.000000
2879, 12077344.000000, 1784.000000, 8241.000000, 8181.000000, 8205.000000
2880, 12077504.000000, 1711.000000, 8256.000000, 8182.000000, 8210.000000
2881, 12077664.000000, 1644.500000, 8278.000000, 8187.000000, 8225.000000
2882, 12077824.000000, 1582.000000, 8295.000000, 8190.000000, 8234.000000
2883, 12077984.000000, 1531.500000, 8306.000000, 8191.000000, 8242.000000
2884, 12078144.000000, 1497.000000, 8290.000000, 8190.000000, 8238.000000
2885, 12078304.000000, 1478.500000, 8250.000000, 8186.000000, 8220.000000
2886, 12078464.000000, 1467.000000, 8214.000000, 8177.000000, 8197.000000
2887, 12078624.000000, 1448.500000, 8200.000000, 8171.000000, 8187.000000
2888, 12078784.000000, 1414.000000, 8197.000000, 8168.000000, 8182.000000
2889, 12078944.000000, 1367.000000, 8197.000000, 8168.000000, 8182.000000
2890, 12079104.000000, 1312.000000, 8203.000000, 8167.000000, 8183.000000
2891, 12079264.000000, 1260.500000, 8205.000000, 8166.000000, 8184.000000
2892, 12079424.000000, 1222.000000, 8208.000000, 8166.000000, 8184.000000
2893, 12079584.000000, 1203.000000, 8210.000000, 8166.000000, 8185.000000
2894, 12079744.000000, 1234.000000, 8208.000000, 8163.000000, 8179.000000
2895, 12079904.000000, 1382.000000, 8208.000000, 8163.000000, 8179.000000
2896, 12080064.000000, 1684.000000, 8209.000000, 8162.000000, 8180.000000
2897, 12080224.000000, 2089.500000, 8209.000000, 8162.000000, 8178.000000
2898, 12080384.000000, 2482.000000, 8213.000000, 8163.000000, 8182.000000
2899, 12080544.000000, 2748.000000, 8214.000000, 8164.000000, 8184.000000
2900, 12080704.000000, 2882.000000, 8221.000000, 8172.000000, 8202.000000
2901, 12080864.000000, 2901.000000, 8222.000000, 8174.000000, 8207.000000
2902, 12081024.000000, 2867.000000, 8240.000000, 8180.000000, 8221.000000
2903, 12081184.000000, 2807.000000, 8226.000000, 8168.000000, 8190.000000
2904, 12081344.000000, 2715.000000, 8213.000000, 8157.000000, 8170.000000
2905, 12081504.000000, 2581.000000, 8211.000000, 8157.000000, 8167.000000
2906, 12081664.000000, 2433.000000, 8212.000000, 8156.000000, 8166.000000
2907, 12081824.000000, 2319.500000, 8216.000000, 8182.000000, 8193.000000
2908, 12081984.000000, 2260.000000, 8543.000000, 8150.000000, 8325.000000
2909, 12082144.000000, 2249.500000, 8234.000000, 8019.000000, 8094.000000
2910, 12082304.000000, 2247.000000, 8202.000000, 8138.000000, 8158.000000
2911, 12082464.000000, 2224.000000, 8202.000000, 8167.000000, 8171.000000
2912, 12082624.000000, 2162.000000, 8208.000000, 8173.000000, 8181.000000
2913, 12082784.000000, 2073.000000, 8210.000000, 8177.000000, 8188.000000
2914, 12082944.000000, 1977.000000, 8219.000000, 8178.000000, 8191.000000
2915, 12083104.000000, 1890.500000, 8225.000000, 8181.000000, 8198.000000
2916, 12083264.000000, 1812.000000, 8236.000000, 8186.000000, 8208.000000
2917, 12083424.000000, 1743.500000, 8248.000000, 8187.000000, 8213.000000
2918, 12083584.000000, 1685.000000, 8269.000000, 8191.000000, 8225.000000
2919, 12083744.000000, 1634.000000, 8294.000000, 8195.000000, 8238.000000
2920, 12083904.000000, 1591.000000, 8304.000000, 8198.000000, 8246.000000
2921, 12084064.000000, 1562.500000, 8299.000000, 8198.000000, 8248.000000
2922, 12084224.000000, 1544.000000, 8265.000000, 8196.000000, 8234.000000
2923, 12084384.000000, 1534.000000, 8228.000000, 8190.000000, 8217.000000
2924, 12084544.000000, 1520.000000, 8202.000000, 8181.000000, 8195.000000
2925, 12084704.000000, 1490.000000, 8193.000000, 8178.000000, 8190.000000
2926, 12084864.000000, 1439.000000, 8193.000000, 8176.000000, 8186.000000
2927, 12085024.000000, 1378.500000, 8193.000000, 8179.000000, 8191.000000
2928, 12085184.000000, 1321.000000, 8197.000000, 8179.000000, 8193.000000
2929, 12085344.000000, 1279.500000, 8198.000000, 8180.000000, 8193.000000
2930, 12085504.000000, 1246.000000, 8198.000000, 8177.000000, 8190.000000
2931, 12085664.000000, 1238.000000, 8198.000000, 8179.000000, 8192.000000
2932, 12085824.000000, 1298.000000, 8197.000000, 8178.000000, 8192.000000
2933, 12085984.000000, 1493.500000, 8196.000000, 8179.000000, 8191.000000
2934, 12086144.000000, 1823.000000, 8195.000000, 8180.000000, 8193.000000
2935, 12086304.000000, 2200.000000, 8198.000000, 8178.000000, 8191.000000
2936, 12086464.000000, 2512.000000, 8198.000000, 8179.000000, 8192.000000
2937, 12086624.000000, 2686.000000, 8202.000000, 8186.000000, 8204.000000
2938, 12086784.000000, 2742.000000, 8203.000000, 8191.000000, 8215.000000
2939, 12086944.000000, 2717.500000, 8209.000000, 8192.000000, 8222.000000
2940, 12087104.000000, 2664.000000, 8227.000000, 8195.000000, 8223.000000
2941, 12087264.000000, 2579.500000, 8203.000000, 8183.000000, 8193.000000
2942, 12087424.000000, 2451.000000, 8194.000000, 8179.000000, 8183.000000
2943, 12087584.000000, 2288.000000, 8199.000000, 8180.000000, 8184.000000
2944, 12087744.000000, 2132.000000, 8200.000000, 8181.000000, 8185.000000
2945, 12087904.000000, 2027.500000, 8268.000000, 8224.000000, 8256.000000
2946, 12088064.000000, 1978.000000, 8401.000000, 8156.000000, 8286.000000
2947, 12088224.000000, 1963.000000, 8163.000000, 8083.000000, 8107.000000
2948, 12088384.000000, 1945.000000, 8187.000000, 8176.000000, 8176.000000
2949, 12088544.000000, 1897.000000, 8197.000000, 8194.000000, 8194.000000
2950, 12088704.000000, 1817.000000, 8196.000000, 8197.000000, 8195.000000
2951, 12088864.000000, 1721.500000, 8205.000000, 8200.000000, 8204.000000
2952, 12089024.000000, 1619.000000, 8216.000000, 8204.000000, 8209.000000
2953, 12089184.000000, 1526.000000, 8225.000000, 8207.000000, 8216.000000
2954, 12089344.000000, 1442.000000, 8236.000000, 8207.000000, 8217.000000
2955, 12089504.000000, 1375.000000, 8253.000000, 8210.000000, 8226.000000
2956, 12089664.000000, 1321.000000, 8271.000000, 8212.000000, 8234.000000
2957, 12089824.000000, 1277.500000, 8293.000000, 8212.000000, 8244.000000
2958, 12089984.000000, 1245.000000, 8298.000000, 8215.000000, 8249.000000
2959, 12090144.000000, 1227.000000, 8286.000000, 8216.000000, 8248.000000
2960, 12090304.000000, 1217.000000, 8245.000000, 8216.000000, 8238.000000
2961, 12090464.000000, 1208.000000, 8206.000000, 8211.000000, 8219.000000
2962, 12090624.000000, 1197.000000, 8184.000000, 8207.000000, 8207.000000
2963, 12090784.000000, 1177.500000, 8182.000000, 8203.000000, 8200.000000
2964, 12090944.000000, 1147.000000, 8179.000000, 8202.000000, 8197.000000
2965, 12091104.000000, 1103.500000, 8187.000000, 8201.000000, 8199.000000
2966, 12091264.000000, 1052.000000, 8185.000000, 8200.000000, 8200.000000
2967, 12091424.000000, 1005.500000, 8187.000000, 8199.000000, 8199.000000
2968, 12091584.000000, 967.000000, 8189.000000, 8198.000000, 8199.000000
2969, 12091744.000000, 958.500000, 8187.000000, 8196.000000, 8194.000000
2970, 12091904.000000, 1022.000000, 8185.000000, 8194.000000, 8191.000000
2971, 12092064.000000, 1240.500000, 8187.000000, 8196.000000, 8196.000000
2972, 12092224.000000, 1589.000000, 8183.000000, 8194.000000, 8193.000000
2973, 12092384.000000, 1989.500000, 8186.000000, 8194.000000, 8193.000000
2974, 12092544.000000, 2313.000000, 8192.000000, 8200.000000, 8207.000000
2975, 12092704.000000, 2505.500000, 8196.000000, 8203.000000, 8215.000000
2976, 12092864.000000, 2590.000000, 8208.000000, 8209.000000, 8235.000000
2977, 12093024.000000, 2601.000000, 8209.000000, 8202.000000, 8214.000000
2978, 12093184.000000, 2582.000000, 8189.000000, 8187.000000, 8182.000000
2979, 12093344.000000, 2521.500000, 8183.000000, 8184.000000, 8175.000000
2980, 12093504.000000, 2417.000000, 8184.000000, 8182.000000, 8174.000000
2981, 12093664.000000, 2292.500000, 8176.000000, 8188.000000, 8173.000000
2982, 12093824.000000, 2201.000000, 8366.000000, 8234.000000, 8307.000000
2983, 12093984.000000, 2175.500000, 8267.000000, 8129.000000, 8216.000000
2984, 12094144.000000, 2204.000000, 8152.000000, 8102.000000, 8106.000000
2985, 12094304.000000, 2248.500000, 8177.000000, 8184.000000, 8171.000000
2986, 12094464.000000, 2272.000000, 8183.000000, 8194.000000, 8183.000000
2987, 12094624.000000, 2248.000000, 8187.000000, 8197.000000, 8191.000000
2988, 12094784.000000, 2191.000000, 8196.000000, 8199.000000, 8195.000000
2989, 12094944.000000, 2111.500000, 8203.000000, 8200.000000, 8200.000000
2990, 12095104.000000, 2026.000000, 8213.000000, 8200.000000, 8203.000000
2991, 12095264.000000, 1953.500000, 8226.000000, 8205.000000, 8213.000000
2992, 12095424.000000, 1891.000000, 8245.000000, 8208.000000, 8226.000000
2993, 12095584.000000, 1841.000000, 8267.000000, 8213.000000, 8236.000000
2994, 12095744.000000, 1789.000000, 8286.000000, 8210.000000, 8240.000000
2995, 12095904.000000, 1743.000000, 8289.000000, 8210.000000, 8244.000000
2996, 12096064.000000, 1706.000000, 8264.000000, 8210.000000, 8239.000000
2997, 12096224.000000, 1684.500000, 8225.000000, 8211.000000, 8230.000000
2998, 12096384.000000, 1671.000000, 8194.000000, 8202.000000, 8208.000000
2999, 12096544.000000, 1656.500000, 8178.000000, 8196.000000, 8196.000000
3000, 12096704.000000, 1632.000000, 8177.000000, 8192.000000, 8191.000000
3001, 12096864.000000, 1587.000000, 8177.000000, 8192.000000, 8191.000000
3002, 12097024.000000, 1531.000000, 8181.000000, 8192.000000, 8192.000000
3003, 12097184.000000, 1476.500000, 8183.000000, 8191.000000, 8192.000000
3004, 12097344.000000, 1429.000000, 8185.000000, 8188.000000, 8188.000000
3005, 12097504.000000, 1391.000000, 8184.000000, 8187.000000, 8187.000000
3006, 12097664.000000, 1380.000000, 8183.000000, 8184.000000, 8183.000000
3007, 12097824.000000, 1449.000000, 8184.000000, 8186.000000, 8186.000000
3008, 12097984.000000, 1655.000000, 8184.000000, 8184.000000, 8182.000000
3009, 12098144.000000, 1998.500000, 8183.000000, 8182.000000, 8181.000000
3010, 12098304.000000, 2379.000000, 8183.000000, 8182.000000, 8179.000000
3011, 12098464.000000, 2674.500000, 8187.000000, 8191.000000, 8197.000000
3012, 12098624.000000, 2846.000000, 8192.000000, 8195.000000, 8206.000000
3013, 12098784.000000, 2895.500000, 8211.000000, 8200.000000, 8226.000000
3014, 12098944.000000, 2882.000000, 8202.000000, 8189.000000, 8195.000000
3015, 12099104.000000, 2829.000000, 8185.000000, 8177.000000, 8168.000000
3016, 12099264.000000, 2740.000000, 8182.000000, 8174.000000, 8165.000000
3017, 12099424.000000, 2612.500000, 8184.000000, 8176.000000, 8168.000000
3018, 12099584.000000, 2470.000000, 8175.000000, 8190.000000, 8174.000000
3019, 12099744.000000, 2361.500000, 8445.000000, 8219.000000, 8335.000000
3020, 12099904.000000, 2306.000000, 8236.000000, 8065.000000, 8139.000000
3021, 12100064.000000, 2301.500000, 8168.000000, 8129.000000, 8136.000000
3022, 12100224.000000, 2312.000000, 8176.000000, 8184.000000, 8169.000000
3023, 12100384.000000, 2304.500000, 8180.000000, 8192.000000, 8179.000000
3024, 12100544.000000, 2263.000000, 8187.000000, 8195.000000, 8187.000000
3025, 12100704.000000, 2187.500000, 8192.000000, 8196.000000, 8191.000000
3026, 12100864.000000, 2095.000000, 8202.000000, 8199.000000, 8197.000000
3027, 12101024.000000, 2004.500000, 8208.000000, 8200.000000, 8200.000000
3028, 12101184.000000, 1929.000000, 8224.000000, 8205.000000, 8213.000000
3029, 12101344.000000, 1874.000000, 8242.000000, 8208.000000, 8222.000000
3030, 12101504.000000, 1831.000000, 8265.000000, 8211.000000, 8233.000000
3031, 12101664.000000, 1795.000000, 8281.000000, 8215.000000, 8245.000000
3032, 12101824.000000, 1770.000000, 8285.000000, 8215.000000, 8250.000000
3033, 12101984.000000, 1756.000000, 8256.000000, 8215.000000, 8241.000000
3034, 12102144.000000, 1753.000000, 8213.000000, 8207.000000, 8218.000000
3035, 12102304.000000, 1755.500000, 8183.000000, 8197.000000, 8196.000000
3036, 12102464.000000, 1752.000000, 8172.000000, 8191.000000, 8185.000000
3037, 12102624.000000, 1731.000000, 8170.000000, 8191.000000, 8184.000000
3038, 12102784.000000, 1692.000000, 8171.000000, 8191.000000, 8184.000000
3039, 12102944.000000, 1642.500000, 8176.000000, 8191.000000, 8188.000000
3040, 12103104.000000, 1594.000000, 8177.000000, 8189.000000, 8184.000000
3041, 12103264.000000, 1555.500000, 8178.000000, 8188.000000, 8184.000000
3042, 12103424.000000, 1532.000000, 8177.000000, 8186.000000, 8181.000000
3043, 12103584.000000, 1549.500000, 8176.000000, 8188.000000, 8181.000000
3044, 12103744.000000, 1664.000000, 8175.000000, 8185.000000, 8175.000000
3045, 12103904.000000, 1933.000000, 8176.000000, 8183.000000, 8174.000000
3046, 12104064.000000, 2318.000000, 8176.000000, 8184.000000, 8175.000000
3047, 12104224.000000, 2707.500000, 8177.000000, 8184.000000, 8175.000000
3048, 12104384.000000, 3003.000000, 8184.000000, 8191.000000, 8191.000000
3049, 12104544.000000, 3150.000000, 8187.000000, 8195.000000, 8199.000000
3050, 12104704.000000, 3183.000000, 8190.000000, 8194.000000, 8204.000000
3051, 12104864.000000, 3153.000000, 8203.000000, 8197.000000, 8207.000000
3052, 12105024.000000, 3095.000000, 8186.000000, 8185.000000, 8178.000000
3053, 12105184.000000, 3006.000000, 8178.000000, 8178.000000, 8164.000000
3054, 12105344.000000, 2872.000000, 8178.000000, 8178.000000, 8164.000000
3055, 12105504.000000, 2717.500000, 8179.000000, 8178.000000, 8165.000000
3056, 12105664.000000, 2586.000000, 8235.000000, 8229.000000, 8235.000000
3057, 12105824.000000, 2514.000000, 8439.000000, 8131.000000, 8271.000000
3058, 12105984.000000, 2495.000000, 8162.000000, 8065.000000, 8078.000000
3059, 12106144.000000, 2490.500000, 8166.000000, 8179.000000, 8161.000000
3060, 12106304.000000, 2465.000000, 8167.000000, 8190.000000, 8169.000000
3061, 12106464.000000, 2395.500000, 8171.000000, 8193.000000, 8176.000000
3062, 12106624.000000, 2293.000000, 8177.000000, 8197.000000, 8184.000000
3063, 12106784.000000, 2174.000000, 8186.000000, 8202.000000, 8195.000000
3064, 12106944.000000, 2064.000000, 8193.000000, 8205.000000, 8201.000000
3065, 12107104.000000, 1970.500000, 8203.000000, 8205.000000, 8202.000000
3066, 12107264.000000, 1892.000000, 8221.000000, 8210.000000, 8216.000000
3067, 12107424.000000, 1824.500000, 8239.000000, 8215.000000, 8227.000000
3068, 12107584.000000, 1767.000000, 8263.000000, 8219.000000, 8241.000000
3069, 12107744.000000, 1710.000000, 8269.000000, 8221.000000, 8247.000000
3070, 12107904.000000, 1660.000000, 8255.000000, 8223.000000, 8246.000000
3071, 12108064.000000, 1624.500000, 8210.000000, 8221.000000, 8230.000000
3072, 12108224.000000, 1605.000000, 8174.000000, 8216.000000, 8213.000000
3073, 12108384.000000, 1588.000000, 8155.000000, 8209.000000, 8196.000000
3074, 12108544.000000, 1564.000000, 8148.000000, 8208.000000, 8192.000000
3075, 12108704.000000, 1524.000000, 8147.000000, 8209.000000, 8192.000000
3076, 12108864.000000, 1474.000000, 8148.000000, 8213.000000, 8197.000000
3077, 12109024.000000, 1421.500000, 8151.000000, 8215.000000, 8199.000000
3078, 12109184.000000, 1381.000000, 8151.000000, 8217.000000, 8199.000000
3079, 12109344.000000, 1359.500000, 8147.000000, 8218.000000, 8197.000000
3080, 12109504.000000, 1361.000000, 8146.000000, 8222.000000, 8201.000000
3081, 12109664.000000, 1438.000000, 8142.000000, 8225.000000, 8201.000000
3082, 12109824.000000, 1637.000000, 8139.000000, 8229.000000, 8203.000000
3083, 12109984.000000, 1997.000000, 8140.000000, 8234.000000, 8207.000000
3084, 12110144.000000, 2420.000000, 8136.000000, 8236.000000, 8206.000000
3085, 12110304.000000, 2797.000000, 8132.000000, 8241.000000, 8210.000000
3086, 12110464.000000, 3045.000000, 8135.000000, 8254.000000, 8229.000000
3087, 12110624.000000, 3150.500000, 8136.000000, 8260.000000, 8238.000000
3088, 12110784.000000, 3162.000000, 8153.000000, 8268.000000, 8257.000000
3089, 12110944.000000, 3122.000000, 8145.000000, 8261.000000, 8231.000000
3090, 12111104.000000, 3051.000000, 8122.000000, 8252.000000, 8207.000000
3091, 12111264.000000, 2935.500000, 8119.000000, 8252.000000, 8203.000000
3092, 12111424.000000, 2787.000000, 8119.000000, 8256.000000, 8207.000000
3093, 12111584.000000, 2642.000000, 8105.000000, 8270.000000, 8211.000000
3094, 12111744.000000, 2542.000000, 8375.000000, 8299.000000, 8370.000000
3095, 12111904.000000, 2502.500000, 8174.000000, 8151.000000, 8186.000000
3096, 12112064.000000, 2498.000000, 8096.000000, 8220.000000, 8181.000000
3097, 12112224.000000, 2485.500000, 8098.000000, 8275.000000, 8208.000000
3098, 12112384.000000, 2439.000000, 8099.000000, 8280.000000, 8215.000000
3099, 12112544.000000, 2347.500000, 8101.000000, 8283.000000, 8218.000000
3100, 12112704.000000, 2231.000000, 8106.000000, 8286.000000, 8224.000000
3101, 12112864.000000, 2106.500000, 8112.000000, 8288.000000, 8226.000000
3102, 12113024.000000, 1989.000000, 8119.000000, 8293.000000, 8232.000000
3103, 12113184.000000, 1892.000000, 8136.000000, 8294.000000, 8238.000000
3104, 12113344.000000, 1807.000000, 8151.000000, 8295.000000, 8243.000000
3105, 12113504.000000, 1733.500000, 8174.000000, 8297.000000, 8252.000000
3106, 12113664.000000, 1664.000000, 8194.000000, 8298.000000, 8261.000000
3107, 12113824.000000, 1601.500000, 8192.000000, 8301.000000, 8266.000000
3108, 12113984.000000, 1548.000000, 8164.000000, 8299.000000, 8256.000000
3109, 12114144.000000, 1507.000000, 8117.000000, 8289.000000, 8228.000000
3110, 12114304.000000, 1471.000000, 8090.000000, 8277.000000, 8206.000000
3111, 12114464.000000, 1430.500000, 8075.000000, 8270.000000, 8191.000000
3112, 12114624.000000, 1377.000000, 8074.000000, 8263.000000, 8184.000000
3113, 12114784.000000, 1306.500000, 8077.000000, 8263.000000, 8184.000000
3114, 12114944.000000, 1227.000000, 8078.000000, 8256.000000, 8179.000000
3115, 12115104.000000, 1147.000000, 8081.000000, 8252.000000, 8175.000000
3116, 12115264.000000, 1082.000000, 8080.000000, 8246.000000, 8167.000000
3117, 12115424.000000, 1033.000000, 8081.000000, 8243.000000, 8166.000000
3118, 12115584.000000, 1014.000000, 8082.000000, 8241.000000, 8163.000000
3119, 12115744.000000, 1082.500000, 8084.000000, 8237.000000, 8160.000000
3120, 12115904.000000, 1298.000000, 8084.000000, 8237.000000, 8160.000000
3121, 12116064.000000, 1664.500000, 8089.000000, 8228.000000, 8153.000000
3122, 12116224.000000, 2080.000000, 8091.000000, 8224.000000, 8152.000000
3123, 12116384.000000, 2417.500000, 8102.000000, 8227.000000, 8164.000000
3124, 12116544.000000, 2619.000000, 8104.000000, 8227.000000, 8168.000000
3125, 12116704.000000, 2689.500000, 8121.000000, 8229.000000, 8181.000000
3126, 12116864.000000, 2682.000000, 8124.000000, 8221.000000, 8167.000000
3127, 12117024.000000, 2631.000000, 8110.000000, 8207.000000, 8140.000000
3128, 12117184.000000, 2537.000000, 8107.000000, 8200.000000, 8129.000000
3129, 12117344.000000, 2387.000000, 8112.000000, 8194.000000, 8126.000000
3130, 12117504.000000, 2212.000000, 8111.000000, 8192.000000, 8123.000000
3131, 12117664.000000, 2073.500000, 8235.000000, 8238.000000, 8222.000000
3132, 12117824.000000, 2002.000000, 8245.000000, 8161.000000, 8205.000000
3133, 12117984.000000, 1998.500000, 8086.000000, 8094.000000, 8047.000000
3134, 12118144.000000, 2016.000000, 8118.000000, 8177.000000, 8115.000000
3135, 12118304.000000, 2014.500000, 8122.000000, 8186.000000, 8127.000000
3136, 12118464.000000, 1975.000000, 8129.000000, 8187.000000, 8130.000000
3137, 12118624.000000, 1894.000000, 8143.000000, 8187.000000, 8138.000000
3138, 12118784.000000, 1792.000000, 8154.000000, 8188.000000, 8144.000000
3139, 12118944.000000, 1686.000000, 8164.000000, 8186.000000, 8147.000000
3140, 12119104.000000, 1593.000000, 8179.000000, 8184.000000, 8153.000000
3141, 12119264.000000, 1518.000000, 8199.000000, 8186.000000, 8164.000000
3142, 12119424.000000, 1461.000000, 8221.000000, 8183.000000, 8170.000000
3143, 12119584.000000, 1421.000000, 8244.000000, 8182.000000, 8178.000000
3144, 12119744.000000, 1394.000000, 8251.000000, 8180.000000, 8180.000000
3145, 12119904.000000, 1380.000000, 8235.000000, 8182.000000, 8184.000000
3146, 12120064.000000, 1381.000000, 8198.000000, 8184.000000, 8177.000000
3147, 12120224.000000, 1388.500000, 8163.000000, 8178.000000, 8164.000000
3148, 12120384.000000, 1391.000000, 8147.000000, 8172.000000, 8151.000000
3149, 12120544.000000, 1381.000000, 8142.000000, 8167.000000, 8141.000000
3150, 12120704.000000, 1351.000000, 8148.000000, 8165.000000, 8143.000000
3151, 12120864.000000, 1310.500000, 8152.000000, 8164.000000, 8145.000000
3152, 12121024.000000, 1265.000000, 8155.000000, 8162.000000, 8145.000000
3153, 12121184.000000, 1220.500000, 8161.000000, 8160.000000, 8143.000000
3154, 12121344.000000, 1184.000000, 8162.000000, 8158.000000, 8143.000000
3155, 12121504.000000, 1159.000000, 8161.000000, 8157.000000, 8140.000000
3156, 12121664.000000, 1177.000000, 8161.000000, 8156.000000, 8141.000000
3157, 12121824.000000, 1305.500000, 8166.000000, 8154.000000, 8142.000000
3158, 12121984.000000, 1590.000000, 8168.000000, 8153.000000, 8142.000000
3159, 12122144.000000, 1989.000000, 8170.000000, 8154.000000, 8145.000000
3160, 12122304.000000, 2387.000000, 8179.000000, 8159.000000, 8161.000000
3161, 12122464.000000, 2661.000000, 8186.000000, 8163.000000, 8170.000000
3162, 12122624.000000, 2797.000000, 8202.000000, 8164.000000, 8182.000000
3163, 12122784.000000, 2814.500000, 8187.000000, 8150.000000, 8142.000000
3164, 12122944.000000, 2776.000000, 8182.000000, 8139.000000, 8126.000000
3165, 12123104.000000, 2690.000000, 8182.000000, 8139.000000, 8124.000000
3166, 12123264.000000, 2548.000000, 8186.000000, 8136.000000, 8127.000000
3167, 12123424.000000, 2366.500000, 8196.000000, 8164.000000, 8156.000000
3168, 12123584.000000, 2199.000000, 8510.000000, 8119.000000, 8268.000000
3169, 12123744.000000, 2104.500000, 8176.000000, 8020.000000, 8058.000000
3170, 12123904.000000, 2081.000000, 8178.000000, 8113.000000, 8109.000000
3171, 12124064.000000, 2102.000000, 8186.000000, 8141.000000, 8130.000000
3172, 12124224.000000, 2118.000000, 8192.000000, 8146.000000, 8139.000000
3173, 12124384.000000, 2095.500000, 8199.000000, 8148.000000, 8146.000000
3174, 12124544.000000, 2034.000000, 8208.000000, 8151.000000, 8155.000000
3175, 12124704.000000, 1942.000000, 8214.000000, 8151.000000, 8159.000000
3176, 12124864.000000, 1843.000000, 8227.000000, 8155.000000, 8169.000000
3177, 12125024.000000, 1747.000000, 8241.000000, 8158.000000, 8178.000000
3178, 12125184.000000, 1664.000000, 8264.000000, 8160.000000, 8189.000000
3179, 12125344.000000, 1595.500000, 8290.000000, 8164.000000, 8204.000000
3180, 12125504.000000, 1540.000000, 8300.000000, 8163.000000, 8208.000000
3181, 12125664.000000, 1495.500000, 8294.000000, 8165.000000, 8212.000000
3182, 12125824.000000, 1464.000000, 8259.000000, 8168.000000, 8206.000000
3183, 12125984.000000, 1451.500000, 8220.000000, 8163.000000, 8189.000000
3184, 12126144.000000, 1449.000000, 8195.000000, 8156.000000, 8173.000000
3185, 12126304.000000, 1451.500000, 8186.000000, 8150.000000, 8163.000000
3186, 12126464.000000, 1445.000000, 8186.000000, 8152.000000, 8167.000000
3187, 12126624.000000, 1418.000000, 8191.000000, 8154.000000, 8172.000000
3188, 12126784.000000, 1376.000000, 8196.000000, 8153.000000, 8173.000000
3189, 12126944.000000, 1328.000000, 8197.000000, 8151.000000, 8171.000000
3190, 12127104.000000, 1286.000000, 8198.000000, 8149.000000, 8168.000000
3191, 12127264.000000, 1256.000000, 8198.000000, 8147.000000, 8166.000000
3192, 12127424.000000, 1254.000000, 8199.000000, 8149.000000, 8169.000000
3193, 12127584.000000, 1342.000000, 8199.000000, 8147.000000, 8165.000000
3194, 12127744.000000, 1568.000000, 8202.000000, 8148.000000, 8168.000000
3195, 12127904.000000, 1955.000000, 8204.000000, 8149.000000, 8170.000000
3196, 12128064.000000, 2386.000000, 8209.000000, 8154.000000, 8180.000000
3197, 12128224.000000, 2745.000000, 8216.000000, 8163.000000, 8200.000000
3198, 12128384.000000, 2955.000000, 8217.000000, 8165.000000, 8205.000000
3199, 12128544.000000, 3021.000000, 8237.000000, 8164.000000, 8209.000000
3200, 12128704.000000, 3001.000000, 8219.000000, 8152.000000, 8177.000000
3201, 12128864.000000, 2937.500000, 8210.000000, 8144.000000, 8161.000000
3202, 12129024.000000, 2838.000000, 8212.000000, 8145.000000, 8165.000000
3203, 12129184.000000, 2690.500000, 8215.000000, 8147.000000, 8167.000000
3204, 12129344.000000, 2523.000000, 8244.000000, 8186.000000, 8214.000000
3205, 12129504.000000, 2381.500000, 8519.000000, 8109.000000, 8290.000000
3206, 12129664.000000, 2306.000000, 8207.000000, 8016.000000, 8071.000000
3207, 12129824.000000, 2289.500000, 8207.000000, 8138.000000, 8159.000000
3208, 12129984.000000, 2296.000000, 8212.000000, 8157.000000, 8175.000000
3209, 12130144.000000, 2281.000000, 8217.000000, 8160.000000, 8178.000000
3210, 12130304.000000, 2229.000000, 8225.000000, 8161.000000, 8186.000000
3211, 12130464.000000, 2140.000000, 8231.000000, 8164.000000, 8191.000000
3212, 12130624.000000, 2039.000000, 8240.000000, 8168.000000, 8199.000000
3213, 12130784.000000, 1936.500000, 8252.000000, 8171.000000, 8208.000000
3214, 12130944.000000, 1844.000000, 8264.000000, 8174.000000, 8215.000000
3215, 12131104.000000, 1763.000000, 8287.000000, 8177.000000, 8227.000000
3216, 12131264.000000, 1692.000000, 8307.000000, 8178.000000, 8234.000000
3217, 12131424.000000, 1632.500000, 8318.000000, 8180.000000, 8243.000000
3218, 12131584.000000, 1580.000000, 8310.000000, 8178.000000, 8240.000000
3219, 12131744.000000, 1542.500000, 8270.000000, 8173.000000, 8224.000000
3220, 12131904.000000, 1518.000000, 8234.000000, 8164.000000, 8201.000000
3221, 12132064.000000, 1505.000000, 8213.000000, 8158.000000, 8185.000000
3222, 12132224.000000, 1488.000000, 8206.000000, 8156.000000, 8182.000000
3223, 12132384.000000, 1457.000000, 8207.000000, 8156.000000, 8181.000000
3224, 12132544.000000, 1408.000000, 8209.000000, 8158.000000, 8184.000000
3225, 12132704.000000, 1348.000000, 8211.000000, 8159.000000, 8185.000000
3226, 12132864.000000, 1292.000000, 8215.000000, 8158.000000, 8186.000000
3227, 12133024.000000, 1245.500000, 8214.000000, 8158.000000, 8184.000000
3228, 12133184.000000, 1213.000000, 8214.000000, 8157.000000, 8183.000000
3229, 12133344.000000, 1217.500000, 8213.000000, 8157.000000, 8182.000000
3230, 12133504.000000, 1333.000000, 8211.000000, 8157.000000, 8179.000000
3231, 12133664.000000, 1617.000000, 8211.000000, 8157.000000, 8179.000000
3232, 12133824.000000, 2041.000000, 8212.000000, 8159.000000, 8183.000000
3233, 12133984.000000, 2478.500000, 8215.000000, 8163.000000, 8191.000000
3234, 12134144.000000, 2815.000000, 8221.000000, 8170.000000, 8206.000000
3235, 12134304.000000, 2975.500000, 8221.000000, 8168.000000, 8206.000000
3236, 12134464.000000, 3019.000000, 8235.000000, 8172.000000, 8212.000000
3237, 12134624.000000, 2992.500000, 8221.000000, 8160.000000, 8184.000000
3238, 12134784.000000, 2935.000000, 8210.000000, 8152.000000, 8167.000000
3239, 12134944.000000, 2839.500000, 8208.000000, 8150.000000, 8164.000000
3240, 12135104.000000, 2695.000000, 8212.000000, 8151.000000, 8167.000000
3241, 12135264.000000, 2525.500000, 8222.000000, 8183.000000, 8200.000000
3242, 12135424.000000, 2381.000000, 8533.000000, 8124.000000, 8304.000000
3243, 12135584.000000, 2308.500000, 8216.000000, 8019.000000, 8082.000000
3244, 12135744.000000, 2289.000000, 8194.000000, 8140.000000, 8156.000000
3245, 12135904.000000, 2294.000000, 8194.000000, 8162.000000, 8168.000000
3246, 12136064.000000, 2275.000000, 8197.000000, 8167.000000, 8175.000000
3247, 12136224.000000, 2214.000000, 8202.000000, 8172.000000, 8182.000000
3248, 12136384.000000, 2121.000000, 8209.000000, 8175.000000, 8191.000000
3249, 12136544.000000, 2016.500000, 8218.000000, 8178.000000, 8198.000000
3250, 12136704.000000, 1917.000000, 8225.000000, 8180.000000, 8203.000000
3251, 12136864.000000, 1832.500000, 8240.000000, 8184.000000, 8213.000000
3252, 12137024.000000, 1764.000000, 8261.000000, 8189.000000, 8226.000000
3253, 12137184.000000, 1707.000000, 8283.000000, 8192.000000, 8236.000000
3254, 12137344.000000, 1659.000000, 8293.000000, 8195.000000, 8245.000000
3255, 12137504.000000, 1619.000000, 8285.000000, 8196.000000, 8247.000000
3256, 12137664.000000, 1590.000000, 8247.000000, 8195.000000, 8235.000000
3257, 12137824.000000, 1571.000000, 8203.000000, 8186.000000, 8208.000000
3258, 12137984.000000, 1561.000000, 8183.000000, 8178.000000, 8191.000000
3259, 12138144.000000, 1548.500000, 8175.000000, 8174.000000, 8184.000000
3260, 12138304.000000, 1520.000000, 8174.000000, 8172.000000, 8181.000000
3261, 12138464.000000, 1470.000000, 8177.000000, 8174.000000, 8185.000000
3262, 12138624.000000, 1413.000000, 8178.000000, 8175.000000, 8185.000000
3263, 12138784.000000, 1363.500000, 8176.000000, 8173.000000, 8181.000000
3264, 12138944.000000, 1329.000000, 8179.000000, 8174.000000, 8184.000000
3265, 12139104.000000, 1303.000000, 8175.000000, 8173.000000, 8179.000000
3266, 12139264.000000, 1302.000000, 8172.000000, 8174.000000, 8180.000000
3267, 12139424.000000, 1395.500000, 8172.000000, 8173.000000, 8177.000000
3268, 12139584.000000, 1635.000000, 8171.000000, 8174.000000, 8177.000000
3269, 12139744.000000, 2031.500000, 8172.000000, 8172.000000, 8174.000000
3270, 12139904.000000, 2479.000000, 8175.000000, 8172.000000, 8176.000000
3271, 12140064.000000, 2846.500000, 8183.000000, 8180.000000, 8195.000000
3272, 12140224.000000, 3062.000000, 8185.000000, 8184.000000, 8204.000000
3273, 12140384.000000, 3128.000000, 8203.000000, 8190.000000, 8220.000000
3274, 12140544.000000, 3110.000000, 8191.000000, 8178.000000, 8188.000000
3275, 12140704.000000, 3054.000000, 8177.000000, 8168.000000, 8167.000000
3276, 12140864.000000, 2967.000000, 8175.000000, 8166.000000, 8162.000000
3277, 12141024.000000, 2828.000000, 8175.000000, 8167.000000, 8165.000000
3278, 12141184.000000, 2649.000000, 8172.000000, 8188.000000, 8182.000000
3279, 12141344.000000, 2482.000000, 8491.000000, 8179.000000, 8331.000000
3280, 12141504.000000, 2364.000000, 8199.000000, 8050.000000, 8116.000000
3281, 12141664.000000, 2306.500000, 8166.000000, 8142.000000, 8152.000000
3282, 12141824.000000, 2283.000000, 8166.000000, 8177.000000, 8169.000000
3283, 12141984.000000, 2246.000000, 8173.000000, 8182.000000, 8177.000000
3284, 12142144.000000, 2174.000000, 8180.000000, 8187.000000, 8184.000000
3285, 12142304.000000, 2064.000000, 8183.000000, 8189.000000, 8188.000000
3286, 12142464.000000, 1935.000000, 8194.000000, 8189.000000, 8193.000000
3287, 12142624.000000, 1807.500000, 8205.000000, 8190.000000, 8198.000000
3288, 12142784.000000, 1693.000000, 8214.000000, 8195.000000, 8207.000000
3289, 12142944.000000, 1596.000000, 8237.000000, 8196.000000, 8215.000000
3290, 12143104.000000, 1512.000000, 8256.000000, 8200.000000, 8226.000000
3291, 12143264.000000, 1440.500000, 8271.000000, 8202.000000, 8234.000000
3292, 12143424.000000, 1378.000000, 8267.000000, 8204.000000, 8239.000000
3293, 12143584.000000, 1331.000000, 8239.000000, 8203.000000, 8231.000000
3294, 12143744.000000, 1299.000000, 8200.000000, 8197.000000, 8213.000000
3295, 12143904.000000, 1277.000000, 8168.000000, 8189.000000, 8192.000000
3296, 12144064.000000, 1258.000000, 8157.000000, 8186.000000, 8182.000000
3297, 12144224.000000, 1225.000000, 8155.000000, 8184.000000, 8181.000000
3298, 12144384.000000, 1175.000000, 8158.000000, 8187.000000, 8184.000000
3299, 12144544.000000, 1110.000000, 8162.000000, 8183.000000, 8182.000000
3300, 12144704.000000, 1046.000000, 8166.000000, 8180.000000, 8180.000000
3301, 12144864.000000, 992.000000, 8166.000000, 8181.000000, 8181.000000
3302, 12145024.000000, 950.000000, 8165.000000, 8179.000000, 8178.000000
3303, 12145184.000000, 926.000000, 8165.000000, 8180.000000, 8179.000000
3304, 12145344.000000, 959.000000, 8164.000000, 8180.000000, 8177.000000
3305, 12145504.000000, 1133.000000, 8165.000000, 8177.000000, 8178.000000
3306, 12145664.000000, 1457.000000, 8165.000000, 8177.000000, 8176.000000
3307, 12145824.000000, 1886.500000, 8175.000000, 8187.000000, 8195.000000
3308, 12145984.000000, 2281.000000, 8180.000000, 8191.000000, 8204.000000
3309, 12146144.000000, 2540.500000, 8185.000000, 8194.000000, 8216.000000
3310, 12146304.000000, 2649.000000, 8194.000000, 8192.000000, 8208.000000
3311, 12146464.000000, 2651.000000, 8171.000000, 8180.000000, 8177.000000
3312, 12146624.000000, 2603.000000, 8172.000000, 8174.000000, 8168.000000
3313, 12146784.000000, 2511.500000, 8167.000000, 8176.000000, 8169.000000
3314, 12146944.000000, 2365.000000, 8173.000000, 8176.000000, 8167.000000
3315, 12147104.000000, 2169.500000, 8288.000000, 8226.000000, 8269.000000
3316, 12147264.000000, 1988.000000, 8308.000000, 8148.000000, 8252.000000
3317, 12147424.000000, 1877.500000, 8134.000000, 8084.000000, 8092.000000
3318, 12147584.000000, 1848.000000, 8168.000000, 8172.000000, 8163.000000
3319, 12147744.000000, 1862.500000, 8176.000000, 8183.000000, 8176.000000
3320, 12147904.000000, 1874.000000, 8180.000000, 8187.000000, 8182.000000
3321, 12148064.000000, 1848.000000, 8188.000000, 8188.000000, 8190.000000
3322, 12148224.000000, 1787.000000, 8194.000000, 8190.000000, 8192.000000
3323, 12148384.000000, 1702.000000, 8205.000000, 8195.000000, 8201.000000
3324, 12148544.000000, 1618.000000, 8217.000000, 8196.000000, 8206.000000
3325, 12148704.000000, 1542.000000, 8235.000000, 8197.000000, 8213.000000
3326, 12148864.000000, 1480.000000, 8257.000000, 8198.000000, 8224.000000
3327, 12149024.000000, 1425.500000, 8276.000000, 8199.000000, 8232.000000
3328, 12149184.000000, 1379.000000, 8281.000000, 8200.000000, 8236.000000
3329, 12149344.000000, 1339.500000, 8263.000000, 8205.000000, 8239.000000
3330, 12149504.000000, 1328.000000, 8221.000000, 8204.000000, 8224.000000
3331, 12149664.000000, 1337.000000, 8187.000000, 8200.000000, 8208.000000
3332, 12149824.000000, 1343.000000, 8170.000000, 8193.000000, 8197.000000
3333, 12149984.000000, 1337.000000, 8163.000000, 8192.000000, 8192.000000
3334, 12150144.000000, 1305.000000, 8166.000000, 8191.000000, 8191.000000
