3018, 7885088.000000, 1561.000000, 8262.000000, 8200.000000, 8216.000000
3019, 7885248.000000, 1517.000000, 8269.000000, 8202.000000, 8224.000000
3020, 7885408.000000, 1509.500000, 8257.000000, 8205.000000, 8225.000000
3021, 7885568.000000, 1518.000000, 8217.000000, 8207.000000, 8217.000000
3022, 7885728.000000, 1524.000000, 8179.000000, 8202.000000, 8197.000000
3023, 7885888.000000, 1516.000000, 8160.000000, 8196.000000, 8184.000000
3024, 7886048.000000, 1488.500000, 8154.000000, 8192.000000, 8178.000000
3025, 7886208.000000, 1445.000000, 8155.000000, 8191.000000, 8178.000000
3026, 7886368.000000, 1392.000000, 8162.000000, 8191.000000, 8180.000000
3027, 7886528.000000, 1342.000000, 8164.000000, 8191.000000, 8180.000000
3028, 7886688.000000, 1300.000000, 8167.000000, 8187.000000, 8178.000000
3029, 7886848.000000, 1272.000000, 8165.000000, 8186.000000, 8175.000000
3030, 7887008.000000, 1272.000000, 8164.000000, 8186.000000, 8173.000000
3031, 7887168.000000, 1329.000000, 8164.000000, 8184.000000, 8171.000000
3032, 7887328.000000, 1468.500000, 8163.000000, 8183.000000, 8169.000000
3033, 7887488.000000, 1672.000000, 8162.000000, 8181.000000, 8168.000000
3034, 7887648.000000, 1885.000000, 8170.000000, 8188.000000, 8183.000000
3035, 7887808.000000, 2055.000000, 8170.000000, 8188.000000, 8185.000000
3036, 7887968.000000, 2154.500000, 8190.000000, 8195.000000, 8205.000000
3037, 7888128.000000, 2196.000000, 8184.000000, 8186.000000, 8180.000000
3038, 7888288.000000, 2198.500000, 8165.000000, 8174.000000, 8155.000000
3039, 7888448.000000, 2181.000000, 8161.000000, 8172.000000, 8151.000000
3040, 7888608.000000, 2137.500000, 8163.000000, 8172.000000, 8152.000000
3041, 7888768.000000, 2072.000000, 8154.000000, 8183.000000, 8157.000000
3042, 7888928.000000, 2006.500000, 8444.000000, 8196.000000, 8305.000000
3043, 7889088.000000, 1961.000000, 8217.000000, 8103.000000, 8173.000000
3044, 7889248.000000, 1950.500000, 8151.000000, 8140.000000, 8136.000000
3045, 7889408.000000, 1960.000000, 8156.000000, 8178.000000, 8153.000000
3046, 7889568.000000, 1971.000000, 8159.000000, 8182.000000, 8159.000000
3047, 7889728.000000, 1967.000000, 8166.000000, 8185.000000, 8163.000000
3048, 7889888.000000, 1945.500000, 8174.000000, 8186.000000, 8169.000000
3049, 7890048.000000, 1910.000000, 8183.000000, 8188.000000, 8173.000000
3050, 7890208.000000, 1866.500000, 8190.000000, 8189.000000, 8179.000000
3051, 7890368.000000, 1822.000000, 8203.000000, 8190.000000, 8185.000000
3052, 7890528.000000, 1783.000000, 8223.000000, 8192.000000, 8192.000000
3053, 7890688.000000, 1754.000000, 8244.000000, 8194.000000, 8202.000000
3054, 7890848.000000, 1733.500000, 8260.000000, 8199.000000, 8215.000000
3055, 7891008.000000, 1719.000000, 8258.000000, 8201.000000, 8220.000000
3056, 7891168.000000, 1712.000000, 8226.000000, 8208.000000, 8218.000000
3057, 7891328.000000, 1710.000000, 8187.000000, 8205.000000, 8201.000000
3058, 7891488.000000, 1712.000000, 8159.000000, 8201.000000, 8184.000000
3059, 7891648.000000, 1712.000000, 8146.000000, 8197.000000, 8176.000000
3060, 7891808.000000, 1707.500000, 8147.000000, 8198.000000, 8179.000000
3061, 7891968.000000, 1697.000000, 8149.000000, 8201.000000, 8182.000000
3062, 7892128.000000, 1680.000000, 8152.000000, 8203.000000, 8184.000000
3063, 7892288.000000, 1660.000000, 8152.000000, 8204.000000, 8185.000000
3064, 7892448.000000, 1640.500000, 8149.000000, 8204.000000, 8185.000000
3065, 7892608.000000, 1632.000000, 8149.000000, 8204.000000, 8183.000000
3066, 7892768.000000, 1657.500000, 8148.000000, 8204.000000, 8184.000000
3067, 7892928.000000, 1748.000000, 8145.000000, 8206.000000, 8184.000000
3068, 7893088.000000, 1911.500000, 8149.000000, 8205.000000, 8182.000000
3069, 7893248.000000, 2104.000000, 8144.000000, 8208.000000, 8185.000000
3070, 7893408.000000, 2264.500000, 8153.000000, 8214.000000, 8201.000000
3071, 7893568.000000, 2363.000000, 8154.000000, 8218.000000, 8204.000000
3072, 7893728.000000, 2397.000000, 8167.000000, 8224.000000, 8224.000000
3073, 7893888.000000, 2391.000000, 8167.000000, 8197.000000, 8184.000000
3074, 7894048.000000, 2368.000000, 8148.000000, 8185.000000, 8155.000000
3075, 7894208.000000, 2333.000000, 8146.000000, 8183.000000, 8154.000000
3076, 7894368.000000, 2280.500000, 8150.000000, 8186.000000, 8159.000000
3077, 7894528.000000, 2213.000000, 8140.000000, 8194.000000, 8159.000000
3078, 7894688.000000, 2150.000000, 8375.000000, 8217.000000, 8286.000000
3079, 7894848.000000, 2110.000000, 8193.000000, 8151.000000, 8203.000000
3080, 7895008.000000, 2099.500000, 8122.000000, 8133.000000, 8118.000000
3081, 7895168.000000, 2101.000000, 8147.000000, 8191.000000, 8156.000000
3082, 7895328.000000, 2097.500000, 8149.000000, 8197.000000, 8166.000000
3083, 7895488.000000, 2078.000000, 8155.000000, 8200.000000, 8171.000000
3084, 7895648.000000, 2035.000000, 8164.000000, 8201.000000, 8176.000000
3085, 7895808.000000, 1973.000000, 8168.000000, 8204.000000, 8183.000000
3086, 7895968.000000, 1901.000000, 8185.000000, 8203.000000, 8188.000000
3087, 7896128.000000, 1827.000000, 8197.000000, 8206.000000, 8193.000000
3088, 7896288.000000, 1764.000000, 8211.000000, 8207.000000, 8201.000000
3089, 7896448.000000, 1715.000000, 8235.000000, 8206.000000, 8208.000000
3090, 7896608.000000, 1683.500000, 8254.000000, 8208.000000, 8220.000000
3091, 7896768.000000, 1671.000000, 8253.000000, 8212.000000, 8228.000000
3092, 7896928.000000, 1676.000000, 8229.000000, 8215.000000, 8225.000000
3093, 7897088.000000, 1691.000000, 8184.000000, 8214.000000, 8210.000000
3094, 7897248.000000, 1711.500000, 8155.000000, 8208.000000, 8193.000000
3095, 7897408.000000, 1724.000000, 8141.000000, 8201.000000, 8182.000000
3096, 7897568.000000, 1719.500000, 8141.000000, 8201.000000, 8180.000000
3097, 7897728.000000, 1700.000000, 8144.000000, 8198.000000, 8179.000000
3098, 7897888.000000, 1666.500000, 8147.000000, 8196.000000, 8179.000000
3099, 7898048.000000, 1631.000000, 8152.000000, 8192.000000, 8175.000000
3100, 7898208.000000, 1601.500000, 8154.000000, 8192.000000, 8178.000000
3101, 7898368.000000, 1588.000000, 8155.000000, 8189.000000, 8174.000000
3102, 7898528.000000, 1613.000000, 8155.000000, 8188.000000, 8173.000000
3103, 7898688.000000, 1702.000000, 8153.000000, 8186.000000, 8171.000000
3104, 7898848.000000, 1871.000000, 8156.000000, 8184.000000, 8171.000000
3105, 7899008.000000, 2081.000000, 8157.000000, 8186.000000, 8174.000000
3106, 7899168.000000, 2270.000000, 8166.000000, 8191.000000, 8189.000000
3107, 7899328.000000, 2398.000000, 8169.000000, 8195.000000, 8197.000000
3108, 7899488.000000, 2458.000000, 8185.000000, 8197.000000, 8205.000000
3109, 7899648.000000, 2477.000000, 8170.000000, 8186.000000, 8175.000000
3110, 7899808.000000, 2473.500000, 8160.000000, 8178.000000, 8160.000000
3111, 7899968.000000, 2457.000000, 8159.000000, 8177.000000, 8158.000000
3112, 7900128.000000, 2418.500000, 8162.000000, 8178.000000, 8157.000000
3113, 7900288.000000, 2354.000000, 8171.000000, 8205.000000, 8186.000000
3114, 7900448.000000, 2291.500000, 8498.000000, 8164.000000, 8311.000000
3115, 7900608.000000, 2258.000000, 8171.000000, 8071.000000, 8108.000000
3116, 7900768.000000, 2259.000000, 8154.000000, 8168.000000, 8154.000000
3117, 7900928.000000, 2280.000000, 8159.000000, 8191.000000, 8166.000000
3118, 7901088.000000, 2298.000000, 8164.000000, 8197.000000, 8174.000000
3119, 7901248.000000, 2298.000000, 8172.000000, 8201.000000, 8183.000000
3120, 7901408.000000, 2275.500000, 8180.000000, 8205.000000, 8190.000000
3121, 7901568.000000, 2239.000000, 8190.000000, 8207.000000, 8197.000000
3122, 7901728.000000, 2195.000000, 8204.000000, 8212.000000, 8207.000000
3123, 7901888.000000, 2153.000000, 8219.000000, 8219.000000, 8220.000000
3124, 7902048.000000, 2115.000000, 8241.000000, 8230.000000, 8238.000000
3125, 7902208.000000, 2086.000000, 8265.000000, 8238.000000, 8256.000000
3126, 7902368.000000, 2065.000000, 8280.000000, 8237.000000, 8261.000000
3127, 7902528.000000, 2047.000000, 8272.000000, 8240.000000, 8266.000000
3128, 7902688.000000, 2032.000000, 8233.000000, 8239.000000, 8253.000000
3129, 7902848.000000, 2017.000000, 8195.000000, 8232.000000, 8231.000000
3130, 7903008.000000, 2002.500000, 8173.000000, 8225.000000, 8214.000000
3131, 7903168.000000, 1986.000000, 8168.000000, 8222.000000, 8211.000000
3132, 7903328.000000, 1962.500000, 8171.000000, 8222.000000, 8211.000000
3133, 7903488.000000, 1937.000000, 8173.000000, 8221.000000, 8210.000000
3134, 7903648.000000, 1913.500000, 8178.000000, 8221.000000, 8213.000000
3135, 7903808.000000, 1896.000000, 8182.000000, 8221.000000, 8214.000000
3136, 7903968.000000, 1882.000000, 8184.000000, 8220.000000, 8214.000000
3137, 7904128.000000, 1882.000000, 8184.000000, 8221.000000, 8213.000000
3138, 7904288.000000, 1918.000000, 8181.000000, 8217.000000, 8207.000000
3139, 7904448.000000, 2022.000000, 8182.000000, 8216.000000, 8205.000000
3140, 7904608.000000, 2203.500000, 8186.000000, 8216.000000, 8209.000000
3141, 7904768.000000, 2417.000000, 8187.000000, 8216.000000, 8208.000000
3142, 7904928.000000, 2602.500000, 8198.000000, 8224.000000, 8229.000000
3143, 7905088.000000, 2731.000000, 8200.000000, 8226.000000, 8232.000000
3144, 7905248.000000, 2798.000000, 8222.000000, 8232.000000, 8251.000000
3145, 7905408.000000, 2827.000000, 8212.000000, 8222.000000, 8226.000000
3146, 7905568.000000, 2830.500000, 8195.000000, 8213.000000, 8204.000000
3147, 7905728.000000, 2814.000000, 8191.000000, 8208.000000, 8195.000000
3148, 7905888.000000, 2762.500000, 8194.000000, 8206.000000, 8193.000000
3149, 7906048.000000, 2688.000000, 8186.000000, 8217.000000, 8198.000000
3150, 7906208.000000, 2612.000000, 8493.000000, 8233.000000, 8367.000000
3151, 7906368.000000, 2561.000000, 8256.000000, 8094.000000, 8172.000000
3152, 7906528.000000, 2538.500000, 8186.000000, 8179.000000, 8184.000000
3153, 7906688.000000, 2528.000000, 8187.000000, 8216.000000, 8198.000000
3154, 7906848.000000, 2509.500000, 8192.000000, 8219.000000, 8204.000000
3155, 7907008.000000, 2473.000000, 8199.000000, 8221.000000, 8209.000000
3156, 7907168.000000, 2419.000000, 8207.000000, 8222.000000, 8215.000000
3157, 7907328.000000, 2355.000000, 8218.000000, 8224.000000, 8221.000000
3158, 7907488.000000, 2293.000000, 8227.000000, 8224.000000, 8226.000000
3159, 7907648.000000, 2236.000000, 8241.000000, 8226.000000, 8234.000000
3160, 7907808.000000, 2188.000000, 8261.000000, 8230.000000, 8247.000000
3161, 7907968.000000, 2148.000000, 8282.000000, 8233.000000, 8260.000000
3162, 7908128.000000, 2108.500000, 8298.000000, 8235.000000, 8269.000000
3163, 7908288.000000, 2073.000000, 8297.000000, 8236.000000, 8275.000000
3164, 7908448.000000, 2039.000000, 8265.000000, 8234.000000, 8264.000000
3165, 7908608.000000, 2007.000000, 8224.000000, 8230.000000, 8248.000000
3166, 7908768.000000, 1977.000000, 8200.000000, 8221.000000, 8231.000000
3167, 7908928.000000, 1943.000000, 8191.000000, 8219.000000, 8225.000000
3168, 7909088.000000, 1903.500000, 8189.000000, 8220.000000, 8225.000000
3169, 7909248.000000, 1861.000000, 8197.000000, 8223.000000, 8235.000000
3170, 7909408.000000, 1821.500000, 8200.000000, 8226.000000, 8240.000000
3171, 7909568.000000, 1788.000000, 8203.000000, 8229.000000, 8247.000000
3172, 7909728.000000, 1766.000000, 8206.000000, 8231.000000, 8251.000000
3173, 7909888.000000, 1757.000000, 8206.000000, 8235.000000, 8255.000000
3174, 7910048.000000, 1787.500000, 8205.000000, 8237.000000, 8257.000000
3175, 7910208.000000, 1883.000000, 8203.000000, 8241.000000, 8261.000000
3176, 7910368.000000, 2064.500000, 8206.000000, 8246.000000, 8270.000000
3177, 7910528.000000, 2287.000000, 8207.000000, 8251.000000, 8276.000000
3178, 7910688.000000, 2483.500000, 8208.000000, 8255.000000, 8283.000000
3179, 7910848.000000, 2612.000000, 8216.000000, 8263.000000, 8304.000000
3180, 7911008.000000, 2661.500000, 8217.000000, 8269.000000, 8313.000000
3181, 7911168.000000, 2664.000000, 8239.000000, 8279.000000, 8333.000000
3182, 7911328.000000, 2647.500000, 8221.000000, 8268.000000, 8306.000000
3183, 7911488.000000, 2624.000000, 8211.000000, 8264.000000, 8296.000000
3184, 7911648.000000, 2584.500000, 8208.000000, 8266.000000, 8298.000000
3185, 7911808.000000, 2532.000000, 8211.000000, 8268.000000, 8304.000000
3186, 7911968.000000, 2484.000000, 8217.000000, 8296.000000, 8334.000000
3187, 7912128.000000, 2454.000000, 8554.000000, 8265.000000, 8477.000000
3188, 7912288.000000, 2446.500000, 8240.000000, 8160.000000, 8267.000000
3189, 7912448.000000, 2444.000000, 8204.000000, 8262.000000, 8311.000000
3190, 7912608.000000, 2426.500000, 8203.000000, 8285.000000, 8323.000000
3191, 7912768.000000, 2390.000000, 8207.000000, 8290.000000, 8331.000000
3192, 7912928.000000, 2335.500000, 8213.000000, 8293.000000, 8338.000000
3193, 7913088.000000, 2277.000000, 8219.000000, 8294.000000, 8343.000000
3194, 7913248.000000, 2225.000000, 8223.000000, 8295.000000, 8345.000000
3195, 7913408.000000, 2179.000000, 8234.000000, 8299.000000, 8354.000000
3196, 7913568.000000, 2142.500000, 8246.000000, 8301.000000, 8360.000000
3197, 7913728.000000, 2111.000000, 8264.000000, 8303.000000, 8368.000000
3198, 7913888.000000, 2078.500000, 8285.000000, 8304.000000, 8379.000000
3199, 7914048.000000, 2033.000000, 8291.000000, 8304.000000, 8381.000000
3200, 7914208.000000, 1970.500000, 8282.000000, 8307.000000, 8384.000000
3201, 7914368.000000, 1906.000000, 8242.000000, 8302.000000, 8366.000000
3202, 7914528.000000, 1852.000000, 8199.000000, 8292.000000, 8338.000000
3203, 7914688.000000, 1810.000000, 8172.000000, 8281.000000, 8315.000000
3204, 7914848.000000, 1772.000000, 8165.000000, 8275.000000, 8304.000000
3205, 7915008.000000, 1731.000000, 8163.000000, 8272.000000, 8298.000000
3206, 7915168.000000, 1684.000000, 8164.000000, 8271.000000, 8299.000000
3207, 7915328.000000, 1634.000000, 8164.000000, 8265.000000, 8291.000000
3208, 7915488.000000, 1592.500000, 8165.000000, 8263.000000, 8286.000000
3209, 7915648.000000, 1567.000000, 8161.000000, 8257.000000, 8277.000000
3210, 7915808.000000, 1566.000000, 8160.000000, 8254.000000, 8272.000000
3211, 7915968.000000, 1600.000000, 8161.000000, 8253.000000, 8271.000000
3212, 7916128.000000, 1700.000000, 8155.000000, 8247.000000, 8261.000000
3213, 7916288.000000, 1861.000000, 8157.000000, 8247.000000, 8261.000000
3214, 7916448.000000, 2045.000000, 8156.000000, 8240.000000, 8253.000000
3215, 7916608.000000, 2190.000000, 8159.000000, 8240.000000, 8255.000000
3216, 7916768.000000, 2263.500000, 8167.000000, 8242.000000, 8268.000000
3217, 7916928.000000, 2271.000000, 8168.000000, 8241.000000, 8266.000000
3218, 7917088.000000, 2240.000000, 8191.000000, 8245.000000, 8283.000000
3219, 7917248.000000, 2199.000000, 8179.000000, 8230.000000, 8250.000000
3220, 7917408.000000, 2154.000000, 8164.000000, 8218.000000, 8226.000000
3221, 7917568.000000, 2097.000000, 8165.000000, 8216.000000, 8223.000000
3222, 7917728.000000, 2025.000000, 8165.000000, 8210.000000, 8215.000000
3223, 7917888.000000, 1956.000000, 8157.000000, 8219.000000, 8217.000000
3224, 7918048.000000, 1911.500000, 8460.000000, 8219.000000, 8357.000000
3225, 7918208.000000, 1896.000000, 8206.000000, 8126.000000, 8214.000000
3226, 7918368.000000, 1892.500000, 8156.000000, 8168.000000, 8187.000000
3227, 7918528.000000, 1885.000000, 8159.000000, 8198.000000, 8193.000000
3228, 7918688.000000, 1857.500000, 8161.000000, 8197.000000, 8190.000000
3229, 7918848.000000, 1810.000000, 8167.000000, 8198.000000, 8193.000000
3230, 7919008.000000, 1752.500000, 8174.000000, 8196.000000, 8195.000000
3231, 7919168.000000, 1700.000000, 8179.000000, 8195.000000, 8195.000000
3232, 7919328.000000, 1657.500000, 8192.000000, 8194.000000, 8197.000000
3233, 7919488.000000, 1627.000000, 8204.000000, 8192.000000, 8199.000000
3234, 7919648.000000, 1611.000000, 8221.000000, 8191.000000, 8201.000000
3235, 7919808.000000, 1606.000000, 8243.000000, 8193.000000, 8210.000000
3236, 7919968.000000, 1605.500000, 8254.000000, 8192.000000, 8216.000000
3237, 7920128.000000, 1604.000000, 8254.000000, 8191.000000, 8219.000000
3238, 7920288.000000, 1592.500000, 8225.000000, 8192.000000, 8211.000000
3239, 7920448.000000, 1575.000000, 8183.000000, 8187.000000, 8192.000000
3240, 7920608.000000, 1552.500000, 8157.000000, 8179.000000, 8173.000000
3241, 7920768.000000, 1529.000000, 8148.000000, 8172.000000, 8162.000000
3242, 7920928.000000, 1508.500000, 8149.000000, 8172.000000, 8161.000000
3243, 7921088.000000, 1483.000000, 8152.000000, 8169.000000, 8160.000000
3244, 7921248.000000, 1460.500000, 8152.000000, 8166.000000, 8155.000000
3245, 7921408.000000, 1441.000000, 8153.000000, 8164.000000, 8153.000000
3246, 7921568.000000, 1430.500000, 8153.000000, 8161.000000, 8148.000000
3247, 7921728.000000, 1428.000000, 8152.000000, 8160.000000, 8147.000000
3248, 7921888.000000, 1447.500000, 8150.000000, 8158.000000, 8143.000000
3249, 7922048.000000, 1519.000000, 8147.000000, 8155.000000, 8140.000000
3250, 7922208.000000, 1664.000000, 8148.000000, 8156.000000, 8140.000000
3251, 7922368.000000, 1861.000000, 8148.000000, 8154.000000, 8140.000000
3252, 7922528.000000, 2046.500000, 8152.000000, 8154.000000, 8141.000000
3253, 7922688.000000, 2179.000000, 8160.000000, 8159.000000, 8155.000000
3254, 7922848.000000, 2240.000000, 8158.000000, 8158.000000, 8153.000000
3255, 7923008.000000, 2254.000000, 8181.000000, 8165.000000, 8175.000000
3256, 7923168.000000, 2250.000000, 8168.000000, 8156.000000, 8151.000000
3257, 7923328.000000, 2233.000000, 8155.000000, 8146.000000, 8131.000000
3258, 7923488.000000, 2199.500000, 8155.000000, 8142.000000, 8125.000000
3259, 7923648.000000, 2144.000000, 8156.000000, 8142.000000, 8127.000000
3260, 7923808.000000, 2092.500000, 8146.000000, 8149.000000, 8126.000000
3261, 7923968.000000, 2060.000000, 8443.000000, 8157.000000, 8273.000000
3262, 7924128.000000, 2050.500000, 8190.000000, 8077.000000, 8145.000000
3263, 7924288.000000, 2047.000000, 8143.000000, 8104.000000, 8104.000000
3264, 7924448.000000, 2033.500000, 8149.000000, 8140.000000, 8115.000000
3265, 7924608.000000, 1999.000000, 8154.000000, 8143.000000, 8121.000000
3266, 7924768.000000, 1946.000000, 8164.000000, 8145.000000, 8128.000000
3267, 7924928.000000, 1882.000000, 8171.000000, 8146.000000, 8133.000000
3268, 7925088.000000, 1823.000000, 8182.000000, 8147.000000, 8138.000000
3269, 7925248.000000, 1772.000000, 8193.000000, 8147.000000, 8141.000000
3270, 7925408.000000, 1731.500000, 8208.000000, 8149.000000, 8147.000000
3271, 7925568.000000, 1706.000000, 8226.000000, 8148.000000, 8154.000000
3272, 7925728.000000, 1688.000000, 8249.000000, 8152.000000, 8165.000000
3273, 7925888.000000, 1676.000000, 8261.000000, 8154.000000, 8171.000000
3274, 7926048.000000, 1675.000000, 8259.000000, 8152.000000, 8170.000000
3275, 7926208.000000, 1684.000000, 8229.000000, 8158.000000, 8168.000000
3276, 7926368.000000, 1704.500000, 8190.000000, 8158.000000, 8156.000000
3277, 7926528.000000, 1728.000000, 8162.000000, 8152.000000, 8139.000000
3278, 7926688.000000, 1739.500000, 8155.000000, 8148.000000, 8131.000000
3279, 7926848.000000, 1736.000000, 8156.000000, 8145.000000, 8128.000000
3280, 7927008.000000, 1706.500000, 8158.000000, 8145.000000, 8128.000000
3281, 7927168.000000, 1655.000000, 8163.000000, 8146.000000, 8130.000000
3282, 7927328.000000, 1597.000000, 8162.000000, 8145.000000, 8130.000000
3283, 7927488.000000, 1547.000000, 8163.000000, 8145.000000, 8129.000000
3284, 7927648.000000, 1515.500000, 8162.000000, 8143.000000, 8126.000000
3285, 7927808.000000, 1511.000000, 8161.000000, 8144.000000, 8125.000000
3286, 7927968.000000, 1562.500000, 8161.000000, 8144.000000, 8125.000000
3287, 7928128.000000, 1689.000000, 8165.000000, 8146.000000, 8131.000000
3288, 7928288.000000, 1882.500000, 8168.000000, 8146.000000, 8133.000000
3289, 7928448.000000, 2076.000000, 8173.000000, 8149.000000, 8138.000000
3290, 7928608.000000, 2211.000000, 8177.000000, 8158.000000, 8155.000000
3291, 7928768.000000, 2270.000000, 8182.000000, 8163.000000, 8163.000000
3292, 7928928.000000, 2263.500000, 8200.000000, 8168.000000, 8180.000000
3293, 7929088.000000, 2227.000000, 8201.000000, 8166.000000, 8169.000000
3294, 7929248.000000, 2179.500000, 8183.000000, 8158.000000, 8147.000000
3295, 7929408.000000, 2124.000000, 8181.000000, 8157.000000, 8145.000000
3296, 7929568.000000, 2066.000000, 8186.000000, 8159.000000, 8150.000000
3297, 7929728.000000, 2022.000000, 8179.000000, 8168.000000, 8151.000000
3298, 7929888.000000, 2013.500000, 8413.000000, 8204.000000, 8296.000000
3299, 7930048.000000, 2039.000000, 8305.000000, 8102.000000, 8212.000000
3300, 7930208.000000, 2080.000000, 8190.000000, 8125.000000, 8143.000000
3301, 7930368.000000, 2113.000000, 8193.000000, 8181.000000, 8171.000000
3302, 7930528.000000, 2121.000000, 8199.000000, 8188.000000, 8180.000000
3303, 7930688.000000, 2105.000000, 8205.000000, 8191.000000, 8185.000000
3304, 7930848.000000, 2072.000000, 8213.000000, 8194.000000, 8191.000000
3305, 7931008.000000, 2036.000000, 8225.000000, 8199.000000, 8202.000000
3306, 7931168.000000, 2001.500000, 8236.000000, 8203.000000, 8211.000000
3307, 7931328.000000, 1974.000000, 8252.000000, 8210.000000, 8223.000000
3308, 7931488.000000, 1949.500000, 8272.000000, 8213.000000, 8231.000000
3309, 7931648.000000, 1929.000000, 8295.000000, 8217.000000, 8243.000000
3310, 7931808.000000, 1904.000000, 8313.000000, 8223.000000, 8255.000000
3311, 7931968.000000, 1881.000000, 8316.000000, 8228.000000, 8264.000000
3312, 7932128.000000, 1862.500000, 8295.000000, 8234.000000, 8266.000000
3313, 7932288.000000, 1848.000000, 8260.000000, 8232.000000, 8252.000000
3314, 7932448.000000, 1842.000000, 8231.000000, 8226.000000, 8233.000000
3315, 7932608.000000, 1847.000000, 8219.000000, 8222.000000, 8223.000000
3316, 7932768.000000, 1851.000000, 8221.000000, 8223.000000, 8225.000000
3317, 7932928.000000, 1846.000000, 8226.000000, 8224.000000, 8226.000000
3318, 7933088.000000, 1828.000000, 8232.000000, 8226.000000, 8230.000000
3319, 7933248.000000, 1806.000000, 8231.000000, 8223.000000, 8224.000000
3320, 7933408.000000, 1785.000000, 8232.000000, 8223.000000, 8225.000000
3321, 7933568.000000, 1762.000000, 8232.000000, 8224.000000, 8224.000000
3322, 7933728.000000, 1750.000000, 8233.000000, 8224.000000, 8224.000000
3323, 7933888.000000, 1778.000000, 8233.000000, 8221.000000, 8221.000000
3324, 7934048.000000, 1887.000000, 8234.000000, 8221.000000, 8220.000000
3325, 7934208.000000, 2060.000000, 8234.000000, 8220.000000, 8217.000000
3326, 7934368.000000, 2247.000000, 8237.000000, 8219.000000, 8216.000000
3327, 7934528.000000, 2394.000000, 8241.000000, 8224.000000, 8230.000000
3328, 7934688.000000, 2473.500000, 8243.000000, 8222.000000, 8227.000000
3329, 7934848.000000, 2499.000000, 8257.000000, 8225.000000, 8239.000000
3330, 7935008.000000, 2494.500000, 8262.000000, 8220.000000, 8228.000000
3331, 7935168.000000, 2475.000000, 8236.000000, 8209.000000, 8200.000000
3332, 7935328.000000, 2438.500000, 8240.000000, 8202.000000, 8193.000000
3333, 7935488.000000, 2383.000000, 8238.000000, 8199.000000, 8189.000000
3334, 7935648.000000, 2322.000000, 8233.000000, 8200.000000, 8187.000000
3335, 7935808.000000, 2279.000000, 8359.000000, 8238.000000, 8272.000000
3336, 7935968.000000, 2258.500000, 8355.000000, 8183.000000, 8281.000000
3337, 7936128.000000, 2257.000000, 8199.000000, 8122.000000, 8126.000000
3338, 7936288.000000, 2250.500000, 8219.000000, 8195.000000, 8176.000000
3339, 7936448.000000, 2229.000000, 8217.000000, 8199.000000, 8177.000000
3340, 7936608.000000, 2181.500000, 8222.000000, 8196.000000, 8177.000000
3341, 7936768.000000, 2116.000000, 8228.000000, 8197.000000, 8182.000000
3342, 7936928.000000, 2039.500000, 8234.000000, 8200.000000, 8189.000000
3343, 7937088.000000, 1959.000000, 8244.000000, 8202.000000, 8196.000000
3344, 7937248.000000, 1875.000000, 8253.000000, 8201.000000, 8199.000000
3345, 7937408.000000, 1793.000000, 8268.000000, 8203.000000, 8209.000000
3346, 7937568.000000, 1715.000000, 8287.000000, 8203.000000, 8217.000000
3347, 7937728.000000, 1646.000000, 8302.000000, 8206.000000, 8226.000000
3348, 7937888.000000, 1587.000000, 8304.000000, 8205.000000, 8227.000000
3349, 7938048.000000, 1537.000000, 8287.000000, 8208.000000, 8228.000000
3350, 7938208.000000, 1496.000000, 8243.000000, 8207.000000, 8212.000000
3351, 7938368.000000, 1458.000000, 8208.000000, 8200.000000, 8192.000000
3352, 7938528.000000, 1420.000000, 8191.000000, 8194.000000, 8179.000000
3353, 7938688.000000, 1384.000000, 8188.000000, 8193.000000, 8176.000000
3354, 7938848.000000, 1349.000000, 8189.000000, 8190.000000, 8173.000000
3355, 7939008.000000, 1314.000000, 8189.000000, 8188.000000, 8171.000000
3356, 7939168.000000, 1281.000000, 8191.000000, 8187.000000, 8172.000000
3357, 7939328.000000, 1254.000000, 8191.000000, 8184.000000, 8169.000000
3358, 7939488.000000, 1235.000000, 8186.000000, 8181.000000, 8164.000000
3359, 7939648.000000, 1230.000000, 8182.000000, 8179.000000, 8160.000000
3360, 7939808.000000, 1251.000000, 8180.000000, 8176.000000, 8157.000000
3361, 7939968.000000, 1341.000000, 8180.000000, 8175.000000, 8156.000000
3362, 7940128.000000, 1522.000000, 8178.000000, 8174.000000, 8154.000000
3363, 7940288.000000, 1756.000000, 8179.000000, 8175.000000, 8156.000000
3364, 7940448.000000, 1962.000000, 8182.000000, 8180.000000, 8169.000000
3365, 7940608.000000, 2092.000000, 8182.000000, 8180.000000, 8171.000000
3366, 7940768.000000, 2132.000000, 8202.000000, 8184.000000, 8184.000000
3367, 7940928.000000, 2127.000000, 8181.000000, 8169.000000, 8147.000000
3368, 7941088.000000, 2105.000000, 8167.000000, 8161.000000, 8130.000000
3369, 7941248.000000, 2074.000000, 8168.000000, 8159.000000, 8130.000000
3370, 7941408.000000, 2028.000000, 8170.000000, 8159.000000, 8130.000000
3371, 7941568.000000, 1970.000000, 8186.000000, 8187.000000, 8164.000000
3372, 7941728.000000, 1922.000000, 8488.000000, 8142.000000, 8282.000000
3373, 7941888.000000, 1902.000000, 8164.000000, 8050.000000, 8070.000000
3374, 7942048.000000, 1916.500000, 8153.000000, 8149.000000, 8122.000000
3375, 7942208.000000, 1950.000000, 8155.000000, 8166.000000, 8133.000000
3376, 7942368.000000, 1980.000000, 8158.000000, 8170.000000, 8139.000000
3377, 7942528.000000, 1987.000000, 8165.000000, 8173.000000, 8146.000000
3378, 7942688.000000, 1969.500000, 8170.000000, 8173.000000, 8150.000000
3379, 7942848.000000, 1938.000000, 8176.000000, 8175.000000, 8154.000000
3380, 7943008.000000, 1905.000000, 8185.000000, 8177.000000, 8160.000000
3381, 7943168.000000, 1878.000000, 8196.000000, 8178.000000, 8166.000000
3382, 7943328.000000, 1858.500000, 8214.000000, 8183.000000, 8179.000000
3383, 7943488.000000, 1843.000000, 8231.000000, 8187.000000, 8190.000000
3384, 7943648.000000, 1826.000000, 8234.000000, 8189.000000, 8196.000000
3385, 7943808.000000, 1809.000000, 8226.000000, 8189.000000, 8197.000000
3386, 7943968.000000, 1795.000000, 8192.000000, 8188.000000, 8189.000000
3387, 7944128.000000, 1786.000000, 8154.000000, 8180.000000, 8166.000000
3388, 7944288.000000, 1785.000000, 8133.000000, 8175.000000, 8153.000000
3389, 7944448.000000, 1782.000000, 8128.000000, 8172.000000, 8149.000000
3390, 7944608.000000, 1775.000000, 8128.000000, 8172.000000, 8149.000000
3391, 7944768.000000, 1759.000000, 8128.000000, 8172.000000, 8149.000000
3392, 7944928.000000, 1735.000000, 8128.000000, 8170.000000, 8149.000000
3393, 7945088.000000, 1714.000000, 8126.000000, 8171.000000, 8150.000000
3394, 7945248.000000, 1701.500000, 8127.000000, 8170.000000, 8150.000000
3395, 7945408.000000, 1698.000000, 8122.000000, 8166.000000, 8141.000000
3396, 7945568.000000, 1717.000000, 8121.000000, 8165.000000, 8141.000000
3397, 7945728.000000, 1785.000000, 8120.000000, 8164.000000, 8141.000000
3398, 7945888.000000, 1948.000000, 8122.000000, 8168.000000, 8147.000000
3399, 7946048.000000, 2177.000000, 8123.000000, 8168.000000, 8149.000000
3400, 7946208.000000, 2409.000000, 8128.000000, 8175.000000, 8164.000000
3401, 7946368.000000, 2571.000000, 8127.000000, 8173.000000, 8165.000000
3402, 7946528.000000, 2647.000000, 8148.000000, 8181.000000, 8179.000000
3403, 7946688.000000, 2659.000000, 8126.000000, 8167.000000, 8146.000000
3404, 7946848.000000, 2638.500000, 8116.000000, 8162.000000, 8133.000000
3405, 7947008.000000, 2608.000000, 8115.000000, 8159.000000, 8129.000000
3406, 7947168.000000, 2558.500000, 8115.000000, 8160.000000, 8130.000000
3407, 7947328.000000, 2493.000000, 8144.000000, 8194.000000, 8173.000000
3408, 7947488.000000, 2421.500000, 8427.000000, 8140.000000, 8280.000000
3409, 7947648.000000, 2378.000000, 8115.000000, 8055.000000, 8069.000000
3410, 7947808.000000, 2369.000000, 8107.000000, 8154.000000, 8125.000000
3411, 7947968.000000, 2382.000000, 8106.000000, 8171.000000, 8135.000000
3412, 7948128.000000, 2393.500000, 8113.000000, 8174.000000, 8141.000000
3413, 7948288.000000, 2392.000000, 8116.000000, 8177.000000, 8146.000000
3414, 7948448.000000, 2361.500000, 8124.000000, 8179.000000, 8153.000000
3415, 7948608.000000, 2311.000000, 8130.000000, 8177.000000, 8151.000000
3416, 7948768.000000, 2250.000000, 8142.000000, 8178.000000, 8158.000000
3417, 7948928.000000, 2186.000000, 8157.000000, 8182.000000, 8168.000000
3418, 7949088.000000, 2122.000000, 8175.000000, 8184.000000, 8176.000000
3419, 7949248.000000, 2067.000000, 8191.000000, 8186.000000, 8183.000000
3420, 7949408.000000, 2022.000000, 8200.000000, 8188.000000, 8192.000000
3421, 7949568.000000, 1987.000000, 8189.000000, 8190.000000, 8195.000000
3422, 7949728.000000, 1959.000000, 8154.000000, 8188.000000, 8182.000000
3423, 7949888.000000, 1938.000000, 8120.000000, 8181.000000, 8164.000000
3424, 7950048.000000, 1923.000000, 8102.000000, 8174.000000, 8151.000000
3425, 7950208.000000, 1911.000000, 8097.000000, 8168.000000, 8142.000000
3426, 7950368.000000, 1895.000000, 8101.000000, 8171.000000, 8148.000000
3427, 7950528.000000, 1870.000000, 8106.000000, 8172.000000, 8150.000000
3428, 7950688.000000, 1836.000000, 8110.000000, 8173.000000, 8152.000000
3429, 7950848.000000, 1802.000000, 8109.000000, 8173.000000, 8151.000000
3430, 7951008.000000, 1775.000000, 8109.000000, 8168.000000, 8146.000000
3431, 7951168.000000, 1763.000000, 8110.000000, 8169.000000, 8146.000000
3432, 7951328.000000, 1773.500000, 8112.000000, 8169.000000, 8147.000000
3433, 7951488.000000, 1848.000000, 8113.000000, 8171.000000, 8148.000000
3434, 7951648.000000, 2101.000000, 8115.000000, 8167.000000, 8145.000000
3435, 7951808.000000, 2423.000000, 8116.000000, 8169.000000, 8146.000000
3436, 7951968.000000, 2630.000000, 8124.000000, 8175.000000, 8163.000000
3437, 7952128.000000, 2673.000000, 8126.000000, 8177.000000, 8166.000000
3438, 7952288.000000, 2645.500000, 8138.000000, 8181.000000, 8178.000000
3439, 7952448.000000, 2600.000000, 8146.000000, 8176.000000, 8167.000000
3440, 7952608.000000, 2548.000000, 8125.000000, 8163.000000, 8138.000000
3441, 7952768.000000, 2485.000000, 8122.000000, 8163.000000, 8134.000000
3442, 7952928.000000, 2425.000000, 8122.000000, 8161.000000, 8132.000000
3443, 7953088.000000, 2387.000000, 8117.000000, 8166.000000, 8133.000000
3444, 7953248.000000, 2381.000000, 8318.000000, 8204.000000, 8259.000000
3445, 7953408.000000, 2394.000000, 8253.000000, 8101.000000, 8195.000000
3446, 7953568.000000, 2407.000000, 8114.000000, 8104.000000, 8099.000000
3447, 7953728.000000, 2403.000000, 8122.000000, 8168.000000, 8135.000000
3448, 7953888.000000, 2371.000000, 8126.000000, 8170.000000, 8137.000000
3449, 7954048.000000, 2313.000000, 8132.000000, 8174.000000, 8145.000000
3450, 7954208.000000, 2239.500000, 8138.000000, 8175.000000, 8148.000000
3451, 7954368.000000, 2163.000000, 8146.000000, 8178.000000, 8155.000000
3452, 7954528.000000, 2090.000000, 8159.000000, 8180.000000, 8163.000000
3453, 7954688.000000, 2026.000000, 8173.000000, 8183.000000, 8170.000000
3454, 7954848.000000, 1971.500000, 8191.000000, 8183.000000, 8178.000000
3455, 7955008.000000, 1926.000000, 8210.000000, 8186.000000, 8187.000000
3456, 7955168.000000, 1881.500000, 8224.000000, 8191.000000, 8199.000000
3457, 7955328.000000, 1841.000000, 8226.000000, 8195.000000, 8207.000000
3458, 7955488.000000, 1806.000000, 8208.000000, 8198.000000, 8206.000000
3459, 7955648.000000, 1782.000000, 8171.000000, 8195.000000, 8192.000000
3460, 7955808.000000, 1766.500000, 8140.000000, 8190.000000, 8173.000000
3461, 7955968.000000, 1747.000000, 8130.000000, 8189.000000, 8167.000000
3462, 7956128.000000, 1714.000000, 8132.000000, 8191.000000, 8172.000000
3463, 7956288.000000, 1668.000000, 8136.000000, 8195.000000, 8175.000000
3464, 7956448.000000, 1611.500000, 8142.000000, 8198.000000, 8180.000000
3465, 7956608.000000, 1556.000000, 8142.000000, 8199.000000, 8181.000000
3466, 7956768.000000, 1506.000000, 8141.000000, 8205.000000, 8186.000000
3467, 7956928.000000, 1471.000000, 8142.000000, 8210.000000, 8192.000000
3468, 7957088.000000, 1498.500000, 8143.000000, 8215.000000, 8196.000000
3469, 7957248.000000, 1619.000000, 8143.000000, 8220.000000, 8199.000000
3470, 7957408.000000, 1835.500000, 8146.000000, 8228.000000, 8207.000000
3471, 7957568.000000, 2068.000000, 8146.000000, 8233.000000, 8210.000000
3472, 7957728.000000, 2240.500000, 8153.000000, 8242.000000, 8225.000000
3473, 7957888.000000, 2317.000000, 8160.000000, 8257.000000, 8249.000000
3474, 7958048.000000, 2318.000000, 8161.000000, 8259.000000, 8248.000000
3475, 7958208.000000, 2279.000000, 8179.000000, 8272.000000, 8265.000000
3476, 7958368.000000, 2226.500000, 8161.000000, 8263.000000, 8238.000000
3477, 7958528.000000, 2165.000000, 8151.000000, 8263.000000, 8229.000000
3478, 7958688.000000, 2093.500000, 8155.000000, 8266.000000, 8233.000000
3479, 7958848.000000, 2034.000000, 8153.000000, 8269.000000, 8234.000000
3480, 7959008.000000, 2010.500000, 8185.000000, 8307.000000, 8278.000000
3481, 7959168.000000, 2025.000000, 8451.000000, 8259.000000, 8383.000000
3482, 7959328.000000, 2063.500000, 8149.000000, 8185.000000, 8189.000000
3483, 7959488.000000, 2100.000000, 8147.000000, 8279.000000, 8238.000000
3484, 7959648.000000, 2112.000000, 8144.000000, 8293.000000, 8244.000000
3485, 7959808.000000, 2091.000000, 8146.000000, 8295.000000, 8244.000000
3486, 7959968.000000, 2039.500000, 8153.000000, 8299.000000, 8252.000000
3487, 7960128.000000, 1975.000000, 8160.000000, 8302.000000, 8256.000000
3488, 7960288.000000, 1909.000000, 8168.000000, 8304.000000, 8261.000000
3489, 7960448.000000, 1849.000000, 8176.000000, 8307.000000, 8264.000000
3490, 7960608.000000, 1802.500000, 8188.000000, 8307.000000, 8266.000000
3491, 7960768.000000, 1764.000000, 8204.000000, 8306.000000, 8271.000000
3492, 7960928.000000, 1733.000000, 8220.000000, 8310.000000, 8278.000000
3493, 7961088.000000, 1703.000000, 8226.000000, 8312.000000, 8282.000000
3494, 7961248.000000, 1681.500000, 8216.000000, 8311.000000, 8280.000000
3495, 7961408.000000, 1672.000000, 8179.000000, 8305.000000, 8260.000000
3496, 7961568.000000, 1677.000000, 8140.000000, 8293.000000, 8234.000000
3497, 7961728.000000, 1682.000000, 8123.000000, 8284.000000, 8215.000000
3498, 7961888.000000, 1678.000000, 8119.000000, 8277.000000, 8204.000000
3499, 7962048.000000, 1662.000000, 8119.000000, 8269.000000, 8196.000000
3500, 7962208.000000, 1639.000000, 8121.000000, 8262.000000, 8188.000000
3501, 7962368.000000, 1617.000000, 8120.000000, 8261.000000, 8186.000000
3502, 7962528.000000, 1599.500000, 8119.000000, 8255.000000, 8176.000000
3503, 7962688.000000, 1588.000000, 8119.000000, 8249.000000, 8172.000000
3504, 7962848.000000, 1607.500000, 8117.000000, 8239.000000, 8160.000000
3505, 7963008.000000, 1706.000000, 8115.000000, 8233.000000, 8153.000000
3506, 7963168.000000, 1907.000000, 8117.000000, 8227.000000, 8148.000000
3507, 7963328.000000, 2170.000000, 8118.000000, 8222.000000, 8144.000000
3508, 7963488.000000, 2405.500000, 8121.000000, 8215.000000, 8139.000000
3509, 7963648.000000, 2556.000000, 8127.000000, 8217.000000, 8151.000000
3510, 7963808.000000, 2604.000000, 8128.000000, 8213.000000, 8146.000000
3511, 7963968.000000, 2596.000000, 8153.000000, 8212.000000, 8157.000000
3512, 7964128.000000, 2558.500000, 8133.000000, 8195.000000, 8123.000000
3513, 7964288.000000, 2503.000000, 8122.000000, 8183.000000, 8104.000000
3514, 7964448.000000, 2429.000000, 8123.000000, 8178.000000, 8099.000000
3515, 7964608.000000, 2351.000000, 8127.000000, 8172.000000, 8094.000000
3516, 7964768.000000, 2302.500000, 8128.000000, 8186.000000, 8105.000000
3517, 7964928.000000, 2297.000000, 8458.000000, 8167.000000, 8257.000000
3518, 7965088.000000, 2329.000000, 8163.000000, 8077.000000, 8085.000000
3519, 7965248.000000, 2364.000000, 8125.000000, 8144.000000, 8083.000000
3520, 7965408.000000, 2381.500000, 8123.000000, 8162.000000, 8087.000000
3521, 7965568.000000, 2366.000000, 8125.000000, 8162.000000, 8087.000000
3522, 7965728.000000, 2323.000000, 8134.000000, 8161.000000, 8092.000000
3523, 7965888.000000, 2262.000000, 8143.000000, 8162.000000, 8099.000000
3524, 7966048.000000, 2195.000000, 8151.000000, 8158.000000, 8100.000000
3525, 7966208.000000, 2140.000000, 8160.000000, 8158.000000, 8106.000000
3526, 7966368.000000, 2098.000000, 8173.000000, 8154.000000, 8107.000000
3527, 7966528.000000, 2071.000000, 8194.000000, 8155.000000, 8116.000000
3528, 7966688.000000, 2056.500000, 8213.000000, 8156.000000, 8125.000000
3529, 7966848.000000, 2046.000000, 8224.000000, 8156.000000, 8131.000000
3530, 7967008.000000, 2035.500000, 8221.000000, 8158.000000, 8137.000000
3531, 7967168.000000, 2020.000000, 8195.000000, 8161.000000, 8134.000000
3532, 7967328.000000, 1997.000000, 8156.000000, 8155.000000, 8116.000000
3533, 7967488.000000, 1970.000000, 8133.000000, 8148.000000, 8102.000000
3534, 7967648.000000, 1938.500000, 8130.000000, 8145.000000, 8097.000000
3535, 7967808.000000, 1906.000000, 8136.000000, 8143.000000, 8097.000000
3536, 7967968.000000, 1873.000000, 8135.000000, 8138.000000, 8095.000000
3537, 7968128.000000, 1846.000000, 8135.000000, 8137.000000, 8096.000000
3538, 7968288.000000, 1827.500000, 8140.000000, 8138.000000, 8097.000000
3539, 7968448.000000, 1823.000000, 8139.000000, 8136.000000, 8096.000000
3540, 7968608.000000, 1836.500000, 8136.000000, 8133.000000, 8093.000000
3541, 7968768.000000, 1890.000000, 8139.000000, 8130.000000, 8092.000000
3542, 7968928.000000, 2033.500000, 8137.000000, 8120.000000, 8083.000000
3543, 7969088.000000, 2245.000000, 8137.000000, 8115.000000, 8078.000000
3544, 7969248.000000, 2465.000000, 8137.000000, 8115.000000, 8080.000000
3545, 7969408.000000, 2613.000000, 8144.000000, 8126.000000, 8103.000000
3546, 7969568.000000, 2656.000000, 8145.000000, 8130.000000, 8110.000000
3547, 7969728.000000, 2614.000000, 8165.000000, 8142.000000, 8139.000000
3548, 7969888.000000, 2528.000000, 8163.000000, 8138.000000, 8124.000000
3549, 7970048.000000, 2425.000000, 8146.000000, 8124.000000, 8099.000000
3550, 7970208.000000, 2301.500000, 8146.000000, 8122.000000, 8095.000000
3551, 7970368.000000, 2162.000000, 8150.000000, 8122.000000, 8099.000000
3552, 7970528.000000, 2028.500000, 8143.000000, 8131.000000, 8102.000000
3553, 7970688.000000, 1937.000000, 8396.000000, 8155.000000, 8246.000000
3554, 7970848.000000, 1892.500000, 8193.000000, 8086.000000, 8154.000000
3555, 7971008.000000, 1882.000000, 8139.000000, 8074.000000, 8076.000000
3556, 7971168.000000, 1875.500000, 8153.000000, 8128.000000, 8109.000000
3557, 7971328.000000, 1859.000000, 8158.000000, 8133.000000, 8116.000000
3558, 7971488.000000, 1821.500000, 8165.000000, 8135.000000, 8124.000000
3559, 7971648.000000, 1767.000000, 8174.000000, 8137.000000, 8130.000000
3560, 7971808.000000, 1708.000000, 8183.000000, 8139.000000, 8136.000000
3561, 7971968.000000, 1654.000000, 8193.000000, 8141.000000, 8143.000000
3562, 7972128.000000, 1610.000000, 8206.000000, 8145.000000, 8153.000000
3563, 7972288.000000, 1575.000000, 8225.000000, 8146.000000, 8161.000000
3564, 7972448.000000, 1549.000000, 8247.000000, 8147.000000, 8169.000000
3565, 7972608.000000, 1529.000000, 8259.000000, 8147.000000, 8175.000000
3566, 7972768.000000, 1519.000000, 8256.000000, 8145.000000, 8177.000000
3567, 7972928.000000, 1520.000000, 8231.000000, 8150.000000, 8179.000000
3568, 7973088.000000, 1527.500000, 8194.000000, 8149.000000, 8169.000000
3569, 7973248.000000, 1540.000000, 8166.000000, 8144.000000, 8154.000000
3570, 7973408.000000, 1548.000000, 8158.000000, 8141.000000, 8147.000000
3571, 7973568.000000, 1541.000000, 8160.000000, 8138.000000, 8144.000000
3572, 7973728.000000, 1516.500000, 8166.000000, 8139.000000, 8149.000000
3573, 7973888.000000, 1480.000000, 8165.000000, 8141.000000, 8150.000000
3574, 7974048.000000, 1437.000000, 8168.000000, 8141.000000, 8152.000000
3575, 7974208.000000, 1393.000000, 8166.000000, 8139.000000, 8147.000000
3576, 7974368.000000, 1359.500000, 8165.000000, 8140.000000, 8147.000000
3577, 7974528.000000, 1378.000000, 8163.000000, 8140.000000, 8148.000000
3578, 7974688.000000, 1493.500000, 8166.000000, 8140.000000, 8148.000000
3579, 7974848.000000, 1723.000000, 8169.000000, 8140.000000, 8148.000000
3580, 7975008.000000, 2009.500000, 8177.000000, 8147.000000, 8168.000000
3581, 7975168.000000, 2259.000000, 8182.000000, 8151.000000, 8177.000000
3582, 7975328.000000, 2396.000000, 8193.000000, 8157.000000, 8193.000000
3583, 7975488.000000, 2439.000000, 8198.000000, 8157.000000, 8186.000000
3584, 7975648.000000, 2417.000000, 8182.000000, 8144.000000, 8158.000000
3585, 7975808.000000, 2367.000000, 8183.000000, 8143.000000, 8156.000000
3586, 7975968.000000, 2300.000000, 8188.000000, 8146.000000, 8162.000000
3587, 7976128.000000, 2214.000000, 8185.000000, 8152.000000, 8164.000000
3588, 7976288.000000, 2133.000000, 8378.000000, 8198.000000, 8297.000000
3589, 7976448.000000, 2089.000000, 8321.000000, 8102.000000, 8245.000000
3590, 7976608.000000, 2098.000000, 8186.000000, 8099.000000, 8142.000000
3591, 7976768.000000, 2129.000000, 8198.000000, 8170.000000, 8189.000000
3592, 7976928.000000, 2155.000000, 8204.000000, 8181.000000, 8202.000000
3593, 7977088.000000, 2157.000000, 8212.000000, 8188.000000, 8212.000000
3594, 7977248.000000, 2134.500000, 8222.000000, 8196.000000, 8225.000000
3595, 7977408.000000, 2091.000000, 8234.000000, 8200.000000, 8233.000000
3596, 7977568.000000, 2033.500000, 8245.000000, 8204.000000, 8242.000000
3597, 7977728.000000, 1970.000000, 8261.000000, 8211.000000, 8254.000000
3598, 7977888.000000, 1906.000000, 8280.000000, 8219.000000, 8269.000000
3599, 7978048.000000, 1852.000000, 8301.000000, 8225.000000, 8283.000000
3600, 7978208.000000, 1811.500000, 8314.000000, 8227.000000, 8291.000000
3601, 7978368.000000, 1789.000000, 8319.000000, 8231.000000, 8299.000000
3602, 7978528.000000, 1785.000000, 8297.000000, 8238.000000, 8301.000000
3603, 7978688.000000, 1798.000000, 8263.000000, 8235.000000, 8287.000000
3604, 7978848.000000, 1817.000000, 8236.000000, 8228.000000, 8268.000000
3605, 7979008.000000, 1833.000000, 8229.000000, 8225.000000, 8261.000000
3606, 7979168.000000, 1835.500000, 8232.000000, 8227.000000, 8263.000000
3607, 7979328.000000, 1825.000000, 8236.000000, 8227.000000, 8265.000000
3608, 7979488.000000, 1801.500000, 8243.000000, 8228.000000, 8267.000000
3609, 7979648.000000, 1774.000000, 8245.000000, 8229.000000, 8269.000000
3610, 7979808.000000, 1748.500000, 8246.000000, 8227.000000, 8266.000000
3611, 7979968.000000, 1734.000000, 8245.000000, 8227.000000, 8265.000000
3612, 7980128.000000, 1760.000000, 8243.000000, 8224.000000, 8261.000000
3613, 7980288.000000, 1868.000000, 8245.000000, 8226.000000, 8264.000000
3614, 7980448.000000, 2111.500000, 8248.000000, 8227.000000, 8265.000000
3615, 7980608.000000, 2423.000000, 8249.000000, 8226.000000, 8263.000000
3616, 7980768.000000, 2712.000000, 8255.000000, 8232.000000, 8277.000000
3617, 7980928.000000, 2891.000000, 8257.000000, 8233.000000, 8281.000000
3618, 7981088.000000, 2956.500000, 8269.000000, 8237.000000, 8295.000000
3619, 7981248.000000, 2945.000000, 8268.000000, 8232.000000, 8276.000000
3620, 7981408.000000, 2895.500000, 8248.000000, 8218.000000, 8248.000000
3621, 7981568.000000, 2822.000000, 8245.000000, 8214.000000, 8240.000000
3622, 7981728.000000, 2714.000000, 8247.000000, 8214.000000, 8238.000000
3623, 7981888.000000, 2597.000000, 8235.000000, 8220.000000, 8236.000000
3624, 7982048.000000, 2505.500000, 8469.000000, 8253.000000, 8377.000000
3625, 7982208.000000, 2473.000000, 8343.000000, 8140.000000, 8274.000000
3626, 7982368.000000, 2487.000000, 8237.000000, 8157.000000, 8202.000000
3627, 7982528.000000, 2521.000000, 8240.000000, 8212.000000, 8225.000000
3628, 7982688.000000, 2541.000000, 8238.000000, 8212.000000, 8228.000000
3629, 7982848.000000, 2531.000000, 8240.000000, 8212.000000, 8227.000000
3630, 7983008.000000, 2484.000000, 8250.000000, 8212.000000, 8226.000000
3631, 7983168.000000, 2417.000000, 8256.000000, 8208.000000, 8228.000000
3632, 7983328.000000, 2346.500000, 8267.000000, 8209.000000, 8232.000000
3633, 7983488.000000, 2285.000000, 8275.000000, 8208.000000, 8236.000000
3634, 7983648.000000, 2236.500000, 8287.000000, 8206.000000, 8240.000000
3635, 7983808.000000, 2193.000000, 8311.000000, 8208.000000, 8248.000000
3636, 7983968.000000, 2153.500000, 8321.000000, 8206.000000, 8253.000000
3637, 7984128.000000, 2117.000000, 8318.000000, 8211.000000, 8262.000000
3638, 7984288.000000, 2084.500000, 8293.000000, 8218.000000, 8262.000000
3639, 7984448.000000, 2059.000000, 8253.000000, 8213.000000, 8245.000000
3640, 7984608.000000, 2034.500000, 8227.000000, 8205.000000, 8227.000000
3641, 7984768.000000, 2006.000000, 8210.000000, 8204.000000, 8219.000000
3642, 7984928.000000, 1961.000000, 8207.000000, 8202.000000, 8217.000000
3643, 7985088.000000, 1899.000000, 8210.000000, 8202.000000, 8217.000000
3644, 7985248.000000, 1821.000000, 8214.000000, 8202.000000, 8220.000000
3645, 7985408.000000, 1744.000000, 8213.000000, 8199.000000, 8218.000000
3646, 7985568.000000, 1674.500000, 8210.000000, 8193.000000, 8210.000000
3647, 7985728.000000, 1613.000000, 8208.000000, 8193.000000, 8209.000000
3648, 7985888.000000, 1582.500000, 8210.000000, 8189.000000, 8206.000000
3649, 7986048.000000, 1653.000000, 8210.000000, 8187.000000, 8206.000000
3650, 7986208.000000, 1860.000000, 8209.000000, 8184.000000, 8202.000000
3651, 7986368.000000, 2150.000000, 8212.000000, 8184.000000, 8206.000000
3652, 7986528.000000, 2399.500000, 8217.000000, 8190.000000, 8220.000000
3653, 7986688.000000, 2544.000000, 8213.000000, 8192.000000, 8223.000000
3654, 7986848.000000, 2560.000000, 8230.000000, 8193.000000, 8231.000000
3655, 7987008.000000, 2511.000000, 8214.000000, 8180.000000, 8196.000000
3656, 7987168.000000, 2436.000000, 8199.000000, 8171.000000, 8177.000000
3657, 7987328.000000, 2352.000000, 8195.000000, 8167.000000, 8172.000000
3658, 7987488.000000, 2253.500000, 8199.000000, 8167.000000, 8171.000000
3659, 7987648.000000, 2142.000000, 8211.000000, 8192.000000, 8200.000000
3660, 7987808.000000, 2065.000000, 8507.000000, 8142.000000, 8301.000000
3661, 7987968.000000, 2041.000000, 8184.000000, 8066.000000, 8116.000000
3662, 7988128.000000, 2067.500000, 8182.000000, 8149.000000, 8155.000000
3663, 7988288.000000, 2109.000000, 8185.000000, 8164.000000, 8161.000000
3664, 7988448.000000, 2131.500000, 8192.000000, 8168.000000, 8169.000000
3665, 7988608.000000, 2121.000000, 8196.000000, 8168.000000, 8170.000000
3666, 7988768.000000, 2076.500000, 8202.000000, 8170.000000, 8174.000000
3667, 7988928.000000, 2016.000000, 8209.000000, 8170.000000, 8178.000000
3668, 7989088.000000, 1954.000000, 8223.000000, 8171.000000, 8183.000000
3669, 7989248.000000, 1907.000000, 8236.000000, 8174.000000, 8192.000000
3670, 7989408.000000, 1876.500000, 8253.000000, 8174.000000, 8196.000000
3671, 7989568.000000, 1855.000000, 8268.000000, 8175.000000, 8203.000000
3672, 7989728.000000, 1830.000000, 8274.000000, 8176.000000, 8208.000000
3673, 7989888.000000, 1799.000000, 8261.000000, 8180.000000, 8211.000000
3674, 7990048.000000, 1765.500000, 8225.000000, 8179.000000, 8202.000000
3675, 7990208.000000, 1735.000000, 8189.000000, 8172.000000, 8183.000000
3676, 7990368.000000, 1709.500000, 8164.000000, 8164.000000, 8164.000000
3677, 7990528.000000, 1690.000000, 8161.000000, 8162.000000, 8162.000000
3678, 7990688.000000, 1668.500000, 8159.000000, 8159.000000, 8158.000000
3679, 7990848.000000, 1639.000000, 8162.000000, 8158.000000, 8159.000000
3680, 7991008.000000, 1609.500000, 8164.000000, 8156.000000, 8158.000000
3681, 7991168.000000, 1584.000000, 8161.000000, 8151.000000, 8151.000000
3682, 7991328.000000, 1568.500000, 8160.000000, 8150.000000, 8148.000000
3683, 7991488.000000, 1565.000000, 8155.000000, 8148.000000, 8143.000000
3684, 7991648.000000, 1622.500000, 8153.000000, 8145.000000, 8140.000000
3685, 7991808.000000, 1785.000000, 8151.000000, 8144.000000, 8136.000000
3686, 7991968.000000, 2090.500000, 8152.000000, 8142.000000, 8135.000000
3687, 7992128.000000, 2447.000000, 8151.000000, 8146.000000, 8140.000000
3688, 7992288.000000, 2747.000000, 8159.000000, 8154.000000, 8159.000000
3689, 7992448.000000, 2920.000000, 8157.000000, 8155.000000, 8159.000000
3690, 7992608.000000, 2969.500000, 8177.000000, 8160.000000, 8171.000000
3691, 7992768.000000, 2947.000000, 8157.000000, 8146.000000, 8136.000000
3692, 7992928.000000, 2894.500000, 8142.000000, 8139.000000, 8119.000000
3693, 7993088.000000, 2819.000000, 8140.000000, 8138.000000, 8117.000000
3694, 7993248.000000, 2712.500000, 8144.000000, 8141.000000, 8120.000000
3695, 7993408.000000, 2596.000000, 8150.000000, 8163.000000, 8142.000000
3696, 7993568.000000, 2511.500000, 8474.000000, 8121.000000, 8270.000000
3697, 7993728.000000, 2485.000000, 8143.000000, 8028.000000, 8058.000000
3698, 7993888.000000, 2506.500000, 8131.000000, 8126.000000, 8105.000000
3699, 7994048.000000, 2541.000000, 8136.000000, 8145.000000, 8117.000000
3700, 7994208.000000, 2547.500000, 8141.000000, 8150.000000, 8125.000000
3701, 7994368.000000, 2519.000000, 8149.000000, 8153.000000, 8130.000000
3702, 7994528.000000, 2452.500000, 8155.000000, 8155.000000, 8132.000000
3703, 7994688.000000, 2369.000000, 8165.000000, 8157.000000, 8140.000000
3704, 7994848.000000, 2282.500000, 8174.000000, 8160.000000, 8143.000000
3705, 7995008.000000, 2201.000000, 8190.000000, 8160.000000, 8150.000000
3706, 7995168.000000, 2125.000000, 8209.000000, 8162.000000, 8157.000000
3707, 7995328.000000, 2051.000000, 8228.000000, 8165.000000, 8170.000000
3708, 7995488.000000, 1985.500000, 8236.000000, 8170.000000, 8182.000000
3709, 7995648.000000, 1929.000000, 8228.000000, 8171.000000, 8184.000000
3710, 7995808.000000, 1890.500000, 8191.000000, 8170.000000, 8172.000000
3711, 7995968.000000, 1863.000000, 8152.000000, 8163.000000, 8150.000000
3712, 7996128.000000, 1848.000000, 8135.000000, 8157.000000, 8140.000000
3713, 7996288.000000, 1834.000000, 8130.000000, 8156.000000, 8138.000000
3714, 7996448.000000, 1814.000000, 8135.000000, 8157.000000, 8142.000000
3715, 7996608.000000, 1784.000000, 8138.000000, 8158.000000, 8143.000000
3716, 7996768.000000, 1748.000000, 8144.000000, 8156.000000, 8143.000000
3717, 7996928.000000, 1715.000000, 8139.000000, 8155.000000, 8139.000000
3718, 7997088.000000, 1685.000000, 8140.000000, 8155.000000, 8138.000000
3719, 7997248.000000, 1663.000000, 8138.000000, 8157.000000, 8140.000000
3720, 7997408.000000, 1697.500000, 8142.000000, 8157.000000, 8141.000000
3721, 7997568.000000, 1857.000000, 8142.000000, 8156.000000, 8140.000000
3722, 7997728.000000, 2154.500000, 8145.000000, 8157.000000, 8143.000000
3723, 7997888.000000, 2509.000000, 8146.000000, 8159.000000, 8146.000000
3724, 7998048.000000, 2795.000000, 8157.000000, 8168.000000, 8168.000000
3725, 7998208.000000, 2957.000000, 8156.000000, 8168.000000, 8169.000000
3726, 7998368.000000, 2992.500000, 8178.000000, 8172.000000, 8180.000000
3727, 7998528.000000, 2964.000000, 8159.000000, 8163.000000, 8154.000000
3728, 7998688.000000, 2910.000000, 8148.000000, 8157.000000, 8141.000000
3729, 7998848.000000, 2838.000000, 8148.000000, 8157.000000, 8139.000000
3730, 7999008.000000, 2741.500000, 8150.000000, 8161.000000, 8144.000000
3731, 7999168.000000, 2626.000000, 8160.000000, 8183.000000, 8167.000000
3732, 7999328.000000, 2541.500000, 8486.000000, 8144.000000, 8297.000000
3733, 7999488.000000, 2509.000000, 8163.000000, 8055.000000, 8097.000000
3734, 7999648.000000, 2522.500000, 8146.000000, 8150.000000, 8137.000000
3735, 7999808.000000, 2548.000000, 8144.000000, 8167.000000, 8144.000000
3736, 7999968.000000, 2549.000000, 8150.000000, 8171.000000, 8150.000000
3737, 8000128.000000, 2515.000000, 8157.000000, 8174.000000, 8158.000000
3738, 8000288.000000, 2448.500000, 8163.000000, 8174.000000, 8160.000000
3739, 8000448.000000, 2363.000000, 8173.000000, 8177.000000, 8168.000000
3740, 8000608.000000, 2273.500000, 8185.000000, 8181.000000, 8176.000000
3741, 8000768.000000, 2193.000000, 8202.000000, 8182.000000, 8182.000000
3742, 8000928.000000, 2124.500000, 8222.000000, 8186.000000, 8193.000000
3743, 8001088.000000, 2059.000000, 8241.000000, 8191.000000, 8205.000000
3744, 8001248.000000, 1991.500000, 8250.000000, 8194.000000, 8212.000000
3745, 8001408.000000, 1927.000000, 8244.000000, 8197.000000, 8217.000000
3746, 8001568.000000, 1870.500000, 8208.000000, 8199.000000, 8209.000000
3747, 8001728.000000, 1822.000000, 8172.000000, 8194.000000, 8190.000000
3748, 8001888.000000, 1781.000000, 8154.000000, 8189.000000, 8177.000000
3749, 8002048.000000, 1742.000000, 8150.000000, 8186.000000, 8173.000000
3750, 8002208.000000, 1700.500000, 8154.000000, 8188.000000, 8176.000000
3751, 8002368.000000, 1654.000000, 8156.000000, 8185.000000, 8172.000000
3752, 8002528.000000, 1602.500000, 8159.000000, 8184.000000, 8173.000000
3753, 8002688.000000, 1554.000000, 8159.000000, 8182.000000, 8171.000000
3754, 8002848.000000, 1515.500000, 8159.000000, 8185.000000, 8174.000000
3755, 8003008.000000, 1495.000000, 8157.000000, 8182.000000, 8168.000000
3756, 8003168.000000, 1531.500000, 8155.000000, 8181.000000, 8166.000000
3757, 8003328.000000, 1671.000000, 8157.000000, 8181.000000, 8167.000000
3758, 8003488.000000, 1957.500000, 8158.000000, 8181.000000, 8168.000000
3759, 8003648.000000, 2306.000000, 8160.000000, 8182.000000, 8170.000000
3760, 8003808.000000, 2607.500000, 8170.000000, 8190.000000, 8190.000000
3761, 8003968.000000, 2781.000000, 8167.000000, 8189.000000, 8189.000000
3762, 8004128.000000, 2831.000000, 8187.000000, 8198.000000, 8208.000000
3763, 8004288.000000, 2807.000000, 8179.000000, 8188.000000, 8185.000000
3764, 8004448.000000, 2752.500000, 8161.000000, 8179.000000, 8164.000000
3765, 8004608.000000, 2680.000000, 8160.000000, 8177.000000, 8161.000000
3766, 8004768.000000, 2574.000000, 8161.000000, 8176.000000, 8161.000000
3767, 8004928.000000, 2458.000000, 8149.000000, 8186.000000, 8161.000000
3768, 8005088.000000, 2369.000000, 8438.000000, 8206.000000, 8319.000000
3769, 8005248.000000, 2340.000000, 8229.000000, 8098.000000, 8182.000000
3770, 8005408.000000, 2360.000000, 8153.000000, 8144.000000, 8147.000000
3771, 8005568.000000, 2399.000000, 8153.000000, 8179.000000, 8156.000000
3772, 8005728.000000, 2418.000000, 8156.000000, 8184.000000, 8161.000000
3773, 8005888.000000, 2397.000000, 8166.000000, 8188.000000, 8168.000000
3774, 8006048.000000, 2326.500000, 8174.000000, 8191.000000, 8176.000000
3775, 8006208.000000, 2228.000000, 8182.000000, 8192.000000, 8181.000000
3776, 8006368.000000, 2123.000000, 8195.000000, 8194.000000, 8187.000000
3777, 8006528.000000, 2030.000000, 8206.000000, 8194.000000, 8189.000000
3778, 8006688.000000, 1953.500000, 8226.000000, 8197.000000, 8199.000000
3779, 8006848.000000, 1891.000000, 8247.000000, 8198.000000, 8208.000000
3780, 8007008.000000, 1846.500000, 8259.000000, 8201.000000, 8215.000000
3781, 8007168.000000, 1817.000000, 8258.000000, 8203.000000, 8220.000000
3782, 8007328.000000, 1802.500000, 8229.000000, 8205.000000, 8215.000000
3783, 8007488.000000, 1801.000000, 8188.000000, 8203.000000, 8196.000000
3784, 8007648.000000, 1805.000000, 8162.000000, 8195.000000, 8180.000000
3785, 8007808.000000, 1808.000000, 8155.000000, 8191.000000, 8172.000000
3786, 8007968.000000, 1795.000000, 8154.000000, 8189.000000, 8169.000000
3787, 8008128.000000, 1764.000000, 8158.000000, 8189.000000, 8172.000000
3788, 8008288.000000, 1720.500000, 8160.000000, 8187.000000, 8171.000000
3789, 8008448.000000, 1671.000000, 8161.000000, 8186.000000, 8167.000000
3790, 8008608.000000, 1620.500000, 8161.000000, 8187.000000, 8170.000000
3791, 8008768.000000, 1573.000000, 8158.000000, 8188.000000, 8169.000000
3792, 8008928.000000, 1559.000000, 8157.000000, 8184.000000, 8166.000000
3793, 8009088.000000, 1634.000000, 8158.000000, 8185.000000, 8164.000000
3794, 8009248.000000, 1849.500000, 8155.000000, 8184.000000, 8163.000000
3795, 8009408.000000, 2186.000000, 8160.000000, 8183.000000, 8163.000000
3796, 8009568.000000, 2538.500000, 8166.000000, 8184.000000, 8172.000000
3797, 8009728.000000, 2806.000000, 8164.000000, 8187.000000, 8176.000000
3798, 8009888.000000, 2924.500000, 8175.000000, 8192.000000, 8188.000000
3799, 8010048.000000, 2932.000000, 8186.000000, 8190.000000, 8185.000000
3800, 8010208.000000, 2861.500000, 8162.000000, 8181.000000, 8158.000000
3801, 8010368.000000, 2751.000000, 8160.000000, 8178.000000, 8154.000000
3802, 8010528.000000, 2607.000000, 8165.000000, 8180.000000, 8155.000000
3803, 8010688.000000, 2436.000000, 8159.000000, 8184.000000, 8159.000000
3804, 8010848.000000, 2283.000000, 8275.000000, 8219.000000, 8239.000000
3805, 8011008.000000, 2181.000000, 8297.000000, 8174.000000, 8263.000000
3806, 8011168.000000, 2145.500000, 8135.000000, 8112.000000, 8111.000000
3807, 8011328.000000, 2139.000000, 8160.000000, 8186.000000, 8160.000000
3808, 8011488.000000, 2129.500000, 8159.000000, 8196.000000, 8169.000000
3809, 8011648.000000, 2091.000000, 8166.000000, 8200.000000, 8180.000000
3810, 8011808.000000, 2015.000000, 8175.000000, 8205.000000, 8189.000000
3811, 8011968.000000, 1914.000000, 8178.000000, 8210.000000, 8198.000000
3812, 8012128.000000, 1806.500000, 8187.000000, 8212.000000, 8204.000000
3813, 8012288.000000, 1710.000000, 8200.000000, 8216.000000, 8211.000000
3814, 8012448.000000, 1633.500000, 8215.000000, 8222.000000, 8224.000000
3815, 8012608.000000, 1574.000000, 8237.000000, 8216.000000, 8227.000000
3816, 8012768.000000, 1528.000000, 8252.000000, 8218.000000, 8235.000000
3817, 8012928.000000, 1489.000000, 8257.000000, 8228.000000, 8252.000000
3818, 8013088.000000, 1459.000000, 8237.000000, 8233.000000, 8252.000000
3819, 8013248.000000, 1441.000000, 8195.000000, 8249.000000, 8258.000000
3820, 8013408.000000, 1432.000000, 8165.000000, 8256.000000, 8255.000000
3821, 8013568.000000, 1420.000000, 8152.000000, 8260.000000, 8251.000000
3822, 8013728.000000, 1392.500000, 8151.000000, 8258.000000, 8250.000000
3823, 8013888.000000, 1346.000000, 8157.000000, 8260.000000, 8258.000000
3824, 8014048.000000, 1283.500000, 8164.000000, 8264.000000, 8261.000000
3825, 8014208.000000, 1213.000000, 8163.000000, 8263.000000, 8263.000000
3826, 8014368.000000, 1143.000000, 8166.000000, 8266.000000, 8268.000000
3827, 8014528.000000, 1081.000000, 8168.000000, 8242.000000, 8245.000000
3828, 8014688.000000, 1039.500000, 8169.000000, 8244.000000, 8248.000000
3829, 8014848.000000, 1044.000000, 8171.000000, 8250.000000, 8255.000000
3830, 8015008.000000, 1176.000000, 8176.000000, 8253.000000, 8259.000000
3831, 8015168.000000, 1453.000000, 8177.000000, 8258.000000, 8265.000000
3832, 8015328.000000, 1823.500000, 8187.000000, 8270.000000, 8284.000000
3833, 8015488.000000, 2144.000000, 8190.000000, 8277.000000, 8297.000000
3834, 8015648.000000, 2328.000000, 8194.000000, 8282.000000, 8306.000000
3835, 8015808.000000, 2371.000000, 8210.000000, 8285.000000, 8308.000000
3836, 8015968.000000, 2328.000000, 8195.000000, 8275.000000, 8280.000000
3837, 8016128.000000, 2254.000000, 8185.000000, 8272.000000, 8269.000000
3838, 8016288.000000, 2155.500000, 8191.000000, 8275.000000, 8272.000000
3839, 8016448.000000, 2024.000000, 8193.000000, 8280.000000, 8276.000000
3840, 8016608.000000, 1863.000000, 8253.000000, 8319.000000, 8335.000000
3841, 8016768.000000, 1709.000000, 8408.000000, 8258.000000, 8379.000000
3842, 8016928.000000, 1595.000000, 8160.000000, 8191.000000, 8205.000000
3843, 8017088.000000, 1517.000000, 8188.000000, 8278.000000, 8267.000000
3844, 8017248.000000, 1437.000000, 8191.000000, 8290.000000, 8275.000000
3845, 8017408.000000, 1327.000000, 8200.000000, 8296.000000, 8283.000000
3846, 8017568.000000, 1181.000000, 8207.000000, 8297.000000, 8286.000000
3847, 8017728.000000, 1024.000000, 8213.000000, 8302.000000, 8295.000000
3848, 8017888.000000, 874.000000, 8225.000000, 8303.000000, 8298.000000
3849, 8018048.000000, 747.000000, 8240.000000, 8306.000000, 8307.000000
3850, 8018208.000000, 663.500000, 8258.000000, 8304.000000, 8309.000000
3851, 8018368.000000, 633.000000, 8277.000000, 8304.000000, 8312.000000
3852, 8018528.000000, 656.500000, 8298.000000, 8303.000000, 8319.000000
3853, 8018688.000000, 717.000000, 8300.000000, 8302.000000, 8321.000000
3854, 8018848.000000, 790.000000, 8285.000000, 8305.000000, 8322.000000
3855, 8019008.000000, 861.000000, 8246.000000, 8303.000000, 8308.000000
3856, 8019168.000000, 928.500000, 8212.000000, 8297.000000, 8290.000000
3857, 8019328.000000, 989.000000, 8195.000000, 8288.000000, 8273.000000
3858, 8019488.000000, 1038.000000, 8191.000000, 8283.000000, 8266.000000
3859, 8019648.000000, 1071.000000, 8192.000000, 8280.000000, 8263.000000
3860, 8019808.000000, 1090.500000, 8199.000000, 8275.000000, 8259.000000
3861, 8019968.000000, 1106.000000, 8200.000000, 8270.000000, 8253.000000
3862, 8020128.000000, 1122.000000, 8198.000000, 8265.000000, 8248.000000
3863, 8020288.000000, 1145.000000, 8199.000000, 8263.000000, 8245.000000
3864, 8020448.000000, 1168.500000, 8195.000000, 8260.000000, 8241.000000
3865, 8020608.000000, 1235.000000, 8193.000000, 8259.000000, 8237.000000
3866, 8020768.000000, 1416.500000, 8190.000000, 8256.000000, 8232.000000
3867, 8020928.000000, 1771.000000, 8193.000000, 8258.000000, 8236.000000
3868, 8021088.000000, 2242.500000, 8198.000000, 8263.000000, 8252.000000
3869, 8021248.000000, 2689.000000, 8200.000000, 8267.000000, 8258.000000
3870, 8021408.000000, 2979.000000, 8213.000000, 8268.000000, 8271.000000
3871, 8021568.000000, 3112.000000, 8212.000000, 8257.000000, 8246.000000
3872, 8021728.000000, 3122.500000, 8191.000000, 8239.000000, 8212.000000
3873, 8021888.000000, 3082.000000, 8190.000000, 8230.000000, 8202.000000
3874, 8022048.000000, 3023.500000, 8190.000000, 8227.000000, 8199.000000
3875, 8022208.000000, 2938.000000, 8183.000000, 8227.000000, 8194.000000
3876, 8022368.000000, 2829.500000, 8364.000000, 8261.000000, 8309.000000
3877, 8022528.000000, 2738.000000, 8294.000000, 8158.000000, 8237.000000
3878, 8022688.000000, 2706.500000, 8165.000000, 8142.000000, 8131.000000
3879, 8022848.000000, 2724.000000, 8181.000000, 8210.000000, 8178.000000
3880, 8023008.000000, 2753.000000, 8184.000000, 8212.000000, 8180.000000
3881, 8023168.000000, 2745.000000, 8188.000000, 8211.000000, 8180.000000
3882, 8023328.000000, 2681.500000, 8196.000000, 8211.000000, 8187.000000
3883, 8023488.000000, 2573.000000, 8200.000000, 8209.000000, 8188.000000
3884, 8023648.000000, 2446.500000, 8205.000000, 8209.000000, 8191.000000
3885, 8023808.000000, 2326.000000, 8221.000000, 8206.000000, 8193.000000
3886, 8023968.000000, 2229.000000, 8234.000000, 8204.000000, 8197.000000
3887, 8024128.000000, 2154.000000, 8256.000000, 8201.000000, 8203.000000
3888, 8024288.000000, 2098.500000, 8269.000000, 8198.000000, 8206.000000
3889, 8024448.000000, 2058.000000, 8269.000000, 8198.000000, 8210.000000
3890, 8024608.000000, 2027.000000, 8241.000000, 8196.000000, 8204.000000
3891, 8024768.000000, 2006.000000, 8200.000000, 8191.000000, 8184.000000
3892, 8024928.000000, 1990.500000, 8168.000000, 8182.000000, 8165.000000
3893, 8025088.000000, 1975.000000, 8151.000000, 8174.000000, 8152.000000
3894, 8025248.000000, 1948.000000, 8149.000000, 8175.000000, 8152.000000
3895, 8025408.000000, 1914.000000, 8152.000000, 8172.000000, 8151.000000
3896, 8025568.000000, 1862.500000, 8154.000000, 8171.000000, 8151.000000
3897, 8025728.000000, 1802.000000, 8155.000000, 8168.000000, 8149.000000
3898, 8025888.000000, 1737.000000, 8154.000000, 8167.000000, 8149.000000
3899, 8026048.000000, 1675.000000, 8153.000000, 8166.000000, 8149.000000
3900, 8026208.000000, 1634.500000, 8156.000000, 8167.000000, 8150.000000
3901, 8026368.000000, 1654.000000, 8153.000000, 8166.000000, 8147.000000
3902, 8026528.000000, 1831.000000, 8150.000000, 8165.000000, 8148.000000
3903, 8026688.000000, 2168.000000, 8157.000000, 8167.000000, 8151.000000
3904, 8026848.000000, 2595.500000, 8159.000000, 8169.000000, 8160.000000
3905, 8027008.000000, 2957.000000, 8166.000000, 8177.000000, 8175.000000
3906, 8027168.000000, 3168.500000, 8164.000000, 8173.000000, 8177.000000
3907, 8027328.000000, 3230.000000, 8176.000000, 8163.000000, 8169.000000
3908, 8027488.000000, 3191.000000, 8167.000000, 8149.000000, 8138.000000
3909, 8027648.000000, 3118.000000, 8160.000000, 8144.000000, 8130.000000
3910, 8027808.000000, 3020.000000, 8152.000000, 8144.000000, 8129.000000
3911, 8027968.000000, 2894.000000, 8162.000000, 8149.000000, 8136.000000
3912, 8028128.000000, 2736.000000, 8202.000000, 8179.000000, 8185.000000
3913, 8028288.000000, 2589.000000, 8382.000000, 8126.000000, 8240.000000
3914, 8028448.000000, 2492.000000, 8128.000000, 8055.000000, 8069.000000
3915, 8028608.000000, 2449.000000, 8149.000000, 8140.000000, 8127.000000
3916, 8028768.000000, 2434.000000, 8153.000000, 8152.000000, 8139.000000
3917, 8028928.000000, 2418.000000, 8163.000000, 8152.000000, 8142.000000
3918, 8029088.000000, 2371.000000, 8163.000000, 8152.000000, 8144.000000
3919, 8029248.000000, 2297.000000, 8179.000000, 8155.000000, 8150.000000
3920, 8029408.000000, 2199.500000, 8188.000000, 8156.000000, 8158.000000
3921, 8029568.000000, 2097.000000, 8201.000000, 8154.000000, 8161.000000
3922, 8029728.000000, 2001.500000, 8213.000000, 8152.000000, 8165.000000
3923, 8029888.000000, 1914.000000, 8238.000000, 8153.000000, 8175.000000
3924, 8030048.000000, 1836.500000, 8257.000000, 8156.000000, 8188.000000
3925, 8030208.000000, 1767.000000, 8266.000000, 8157.000000, 8195.000000
3926, 8030368.000000, 1711.500000, 8245.000000, 8158.000000, 8194.000000
3927, 8030528.000000, 1672.000000, 8203.000000, 8160.000000, 8184.000000
3928, 8030688.000000, 1641.500000, 8168.000000, 8155.000000, 8168.000000
3929, 8030848.000000, 1614.000000, 8154.000000, 8149.000000, 8155.000000
3930, 8031008.000000, 1579.000000, 8147.000000, 8145.000000, 8152.000000
3931, 8031168.000000, 1527.000000, 8147.000000, 8144.000000, 8151.000000
3932, 8031328.000000, 1456.000000, 8152.000000, 8141.000000, 8149.000000
3933, 8031488.000000, 1373.000000, 8154.000000, 8140.000000, 8148.000000
3934, 8031648.000000, 1286.500000, 8158.000000, 8141.000000, 8153.000000
3935, 8031808.000000, 1207.000000, 8158.000000, 8140.000000, 8152.000000
3936, 8031968.000000, 1140.000000, 8156.000000, 8140.000000, 8149.000000
3937, 8032128.000000, 1121.000000, 8156.000000, 8138.000000, 8145.000000
3938, 8032288.000000, 1222.000000, 8156.000000, 8137.000000, 8146.000000
3939, 8032448.000000, 1502.000000, 8156.000000, 8139.000000, 8146.000000
3940, 8032608.000000, 1932.500000, 8158.000000, 8140.000000, 8148.000000
3941, 8032768.000000, 2374.000000, 8167.000000, 8149.000000, 8167.000000
3942, 8032928.000000, 2675.000000, 8168.000000, 8151.000000, 8170.000000
3943, 8033088.000000, 2819.000000, 8184.000000, 8155.000000, 8181.000000
3944, 8033248.000000, 2829.500000, 8168.000000, 8143.000000, 8150.000000
3945, 8033408.000000, 2783.000000, 8159.000000, 8138.000000, 8137.000000
3946, 8033568.000000, 2701.000000, 8158.000000, 8136.000000, 8133.000000
3947, 8033728.000000, 2576.000000, 8157.000000, 8136.000000, 8132.000000
3948, 8033888.000000, 2424.500000, 8169.000000, 8162.000000, 8162.000000
3949, 8034048.000000, 2322.000000, 8487.000000, 8123.000000, 8285.000000
3950, 8034208.000000, 2317.500000, 8149.000000, 8028.000000, 8072.000000
3951, 8034368.000000, 2357.000000, 8147.000000, 8119.000000, 8120.000000
3952, 8034528.000000, 2365.500000, 8155.000000, 8145.000000, 8136.000000
3953, 8034688.000000, 2325.000000, 8160.000000, 8149.000000, 8143.000000
3954, 8034848.000000, 2246.500000, 8166.000000, 8154.000000, 8152.000000
3955, 8035008.000000, 2147.000000, 8179.000000, 8157.000000, 8159.000000
3956, 8035168.000000, 2039.000000, 8187.000000, 8158.000000, 8164.000000
3957, 8035328.000000, 1940.000000, 8191.000000, 8159.000000, 8167.000000
3958, 8035488.000000, 1857.000000, 8212.000000, 8163.000000, 8179.000000
3959, 8035648.000000, 1799.000000, 8230.000000, 8167.000000, 8189.000000
3960, 8035808.000000, 1765.000000, 8255.000000, 8168.000000, 8199.000000
3961, 8035968.000000, 1747.000000, 8263.000000, 8170.000000, 8204.000000
3962, 8036128.000000, 1736.500000, 8255.000000, 8172.000000, 8209.000000
3963, 8036288.000000, 1730.000000, 8212.000000, 8172.000000, 8196.000000
3964, 8036448.000000, 1719.500000, 8173.000000, 8168.000000, 8178.000000
3965, 8036608.000000, 1702.000000, 8155.000000, 8161.000000, 8163.000000
3966, 8036768.000000, 1667.000000, 8147.000000, 8156.000000, 8153.000000
3967, 8036928.000000, 1623.000000, 8151.000000, 8157.000000, 8157.000000
3968, 8037088.000000, 1575.500000, 8151.000000, 8159.000000, 8159.000000
3969, 8037248.000000, 1540.000000, 8157.000000, 8158.000000, 8160.000000
3970, 8037408.000000, 1513.500000, 8160.000000, 8159.000000, 8161.000000
3971, 8037568.000000, 1498.000000, 8159.000000, 8156.000000, 8157.000000
3972, 8037728.000000, 1542.000000, 8156.000000, 8157.000000, 8156.000000
3973, 8037888.000000, 1705.000000, 8157.000000, 8157.000000, 8155.000000
3974, 8038048.000000, 2052.000000, 8159.000000, 8156.000000, 8155.000000
3975, 8038208.000000, 2486.000000, 8162.000000, 8158.000000, 8159.000000
3976, 8038368.000000, 2879.000000, 8160.000000, 8157.000000, 8155.000000
3977, 8038528.000000, 3132.000000, 8169.000000, 8166.000000, 8176.000000
3978, 8038688.000000, 3239.500000, 8170.000000, 8170.000000, 8182.000000
3979, 8038848.000000, 3252.000000, 8188.000000, 8177.000000, 8203.000000
3980, 8039008.000000, 3225.500000, 8181.000000, 8169.000000, 8177.000000
3981, 8039168.000000, 3182.000000, 8164.000000, 8159.000000, 8154.000000
3982, 8039328.000000, 3084.500000, 8160.000000, 8156.000000, 8148.000000
3983, 8039488.000000, 2935.000000, 8162.000000, 8157.000000, 8152.000000
3984, 8039648.000000, 2779.500000, 8154.000000, 8172.000000, 8160.000000
3985, 8039808.000000, 2678.000000, 8446.000000, 8188.000000, 8318.000000
3986, 8039968.000000, 2646.000000, 8198.000000, 8063.000000, 8134.000000
3987, 8040128.000000, 2646.000000, 8151.000000, 8125.000000, 8137.000000
3988, 8040288.000000, 2631.000000, 8159.000000, 8170.000000, 8163.000000
3989, 8040448.000000, 2574.000000, 8163.000000, 8176.000000, 8170.000000
3990, 8040608.000000, 2471.500000, 8173.000000, 8182.000000, 8182.000000
3991, 8040768.000000, 2346.000000, 8177.000000, 8186.000000, 8187.000000
3992, 8040928.000000, 2219.000000, 8186.000000, 8189.000000, 8194.000000
3993, 8041088.000000, 2108.000000, 8196.000000, 8195.000000, 8205.000000
3994, 8041248.000000, 2021.500000, 8210.000000, 8200.000000, 8215.000000
3995, 8041408.000000, 1962.000000, 8232.000000, 8206.000000, 8228.000000
3996, 8041568.000000, 1924.000000, 8255.000000, 8210.000000, 8241.000000
3997, 8041728.000000, 1901.000000, 8269.000000, 8210.000000, 8248.000000
3998, 8041888.000000, 1887.000000, 8267.000000, 8211.000000, 8252.000000
3999, 8042048.000000, 1881.000000, 8227.000000, 8211.000000, 8239.000000
4000, 8042208.000000, 1879.500000, 8185.000000, 8205.000000, 8221.000000
4001, 8042368.000000, 1874.000000, 8163.000000, 8198.000000, 8202.000000
4002, 8042528.000000, 1848.000000, 8153.000000, 8191.000000, 8192.000000
4003, 8042688.000000, 1801.000000, 8148.000000, 8194.000000, 8190.000000
4004, 8042848.000000, 1734.500000, 8152.000000, 8193.000000, 8193.000000
4005, 8043008.000000, 1658.000000, 8156.000000, 8194.000000, 8195.000000
4006, 8043168.000000, 1579.500000, 8161.000000, 8193.000000, 8195.000000
4007, 8043328.000000, 1518.000000, 8162.000000, 8191.000000, 8190.000000
4008, 8043488.000000, 1502.000000, 8160.000000, 8190.000000, 8188.000000
4009, 8043648.000000, 1603.000000, 8162.000000, 8192.000000, 8189.000000
4010, 8043808.000000, 1875.000000, 8157.000000, 8190.000000, 8186.000000
4011, 8043968.000000, 2278.000000, 8155.000000, 8192.000000, 8185.000000
4012, 8044128.000000, 2671.000000, 8155.000000, 8193.000000, 8186.000000
4013, 8044288.000000, 2949.000000, 8158.000000, 8192.000000, 8187.000000
4014, 8044448.000000, 3059.000000, 8165.000000, 8202.000000, 8205.000000
4015, 8044608.000000, 3062.000000, 8168.000000, 8202.000000, 8209.000000
4016, 8044768.000000, 3014.500000, 8190.000000, 8208.000000, 8226.000000
4017, 8044928.000000, 2962.000000, 8173.000000, 8197.000000, 8199.000000
4018, 8045088.000000, 2889.000000, 8163.000000, 8190.000000, 8184.000000
4019, 8045248.000000, 2764.000000, 8165.000000, 8188.000000, 8183.000000
4020, 8045408.000000, 2595.000000, 8167.000000, 8188.000000, 8183.000000
4021, 8045568.000000, 2439.000000, 8176.000000, 8205.000000, 8202.000000
4022, 8045728.000000, 2346.000000, 8491.000000, 8176.000000, 8324.000000
4023, 8045888.000000, 2304.000000, 8165.000000, 8086.000000, 8137.000000
4024, 8046048.000000, 2283.000000, 8155.000000, 8164.000000, 8170.000000
4025, 8046208.000000, 2238.000000, 8163.000000, 8191.000000, 8181.000000
4026, 8046368.000000, 2151.000000, 8167.000000, 8195.000000, 8188.000000
4027, 8046528.000000, 2028.000000, 8173.000000, 8196.000000, 8191.000000
4028, 8046688.000000, 1892.000000, 8180.000000, 8196.000000, 8193.000000
4029, 8046848.000000, 1766.000000, 8188.000000, 8197.000000, 8197.000000
4030, 8047008.000000, 1670.000000, 8201.000000, 8198.000000, 8203.000000
4031, 8047168.000000, 1610.000000, 8217.000000, 8197.000000, 8205.000000
4032, 8047328.000000, 1576.500000, 8238.000000, 8199.000000, 8213.000000
4033, 8047488.000000, 1560.000000, 8262.000000, 8200.000000, 8224.000000
4034, 8047648.000000, 1557.000000, 8274.000000, 8202.000000, 8232.000000
4035, 8047808.000000, 1561.000000, 8263.000000, 8203.000000, 8233.000000
4036, 8047968.000000, 1582.500000, 8222.000000, 8203.000000, 8220.000000
4037, 8048128.000000, 1610.000000, 8183.000000, 8196.000000, 8199.000000
4038, 8048288.000000, 1630.000000, 8160.000000, 8188.000000, 8182.000000
4039, 8048448.000000, 1632.000000, 8153.000000, 8185.000000, 8174.000000
4040, 8048608.000000, 1600.500000, 8153.000000, 8185.000000, 8174.000000
4041, 8048768.000000, 1538.000000, 8157.000000, 8183.000000, 8173.000000
4042, 8048928.000000, 1458.500000, 8160.000000, 8182.000000, 8172.000000
4043, 8049088.000000, 1378.000000, 8165.000000, 8179.000000, 8172.000000
4044, 8049248.000000, 1315.000000, 8164.000000, 8178.000000, 8169.000000
4045, 8049408.000000, 1293.000000, 8165.000000, 8177.000000, 8170.000000
4046, 8049568.000000, 1398.500000, 8164.000000, 8175.000000, 8166.000000
4047, 8049728.000000, 1664.000000, 8162.000000, 8173.000000, 8162.000000
4048, 8049888.000000, 2067.000000, 8161.000000, 8173.000000, 8160.000000
4049, 8050048.000000, 2469.000000, 8165.000000, 8175.000000, 8166.000000
4050, 8050208.000000, 2762.000000, 8167.000000, 8173.000000, 8164.000000
4051, 8050368.000000, 2906.000000, 8172.000000, 8183.000000, 8183.000000
4052, 8050528.000000, 2929.000000, 8173.000000, 8184.000000, 8186.000000
4053, 8050688.000000, 2905.000000, 8192.000000, 8191.000000, 8204.000000
4054, 8050848.000000, 2860.000000, 8180.000000, 8178.000000, 8173.000000
4055, 8051008.000000, 2784.000000, 8163.000000, 8169.000000, 8151.000000
4056, 8051168.000000, 2657.500000, 8164.000000, 8168.000000, 8149.000000
4057, 8051328.000000, 2515.000000, 8166.000000, 8167.000000, 8149.000000
4058, 8051488.000000, 2407.500000, 8158.000000, 8182.000000, 8157.000000
4059, 8051648.000000, 2365.000000, 8475.000000, 8185.000000, 8317.000000
4060, 8051808.000000, 2371.500000, 8201.000000, 8053.000000, 8110.000000
4061, 8051968.000000, 2382.000000, 8153.000000, 8139.000000, 8132.000000
4062, 8052128.000000, 2355.000000, 8158.000000, 8175.000000, 8150.000000
4063, 8052288.000000, 2290.000000, 8163.000000, 8180.000000, 8156.000000
4064, 8052448.000000, 2193.000000, 8171.000000, 8182.000000, 8163.000000
4065, 8052608.000000, 2088.000000, 8181.000000, 8185.000000, 8171.000000
4066, 8052768.000000, 1991.000000, 8189.000000, 8186.000000, 8177.000000
4067, 8052928.000000, 1911.000000, 8199.000000, 8188.000000, 8180.000000
4068, 8053088.000000, 1853.500000, 8212.000000, 8190.000000, 8185.000000
4069, 8053248.000000, 1809.000000, 8235.000000, 8196.000000, 8202.000000
4070, 8053408.000000, 1772.000000, 8262.000000, 8197.000000, 8213.000000
4071, 8053568.000000, 1736.000000, 8274.000000, 8198.000000, 8220.000000
4072, 8053728.000000, 1696.000000, 8270.000000, 8196.000000, 8217.000000
4073, 8053888.000000, 1658.000000, 8232.000000, 8192.000000, 8204.000000
4074, 8054048.000000, 1624.000000, 8192.000000, 8184.000000, 8181.000000
4075, 8054208.000000, 1591.000000, 8169.000000, 8177.000000, 8165.000000
4076, 8054368.000000, 1553.500000, 8159.000000, 8174.000000, 8157.000000
4077, 8054528.000000, 1506.000000, 8157.000000, 8172.000000, 8154.000000
4078, 8054688.000000, 1450.500000, 8161.000000, 8173.000000, 8156.000000
4079, 8054848.000000, 1401.000000, 8164.000000, 8175.000000, 8160.000000
4080, 8055008.000000, 1368.000000, 8166.000000, 8175.000000, 8161.000000
4081, 8055168.000000, 1350.000000, 8167.000000, 8173.000000, 8158.000000
4082, 8055328.000000, 1364.000000, 8168.000000, 8171.000000, 8156.000000
4083, 8055488.000000, 1463.000000, 8167.000000, 8171.000000, 8154.000000
4084, 8055648.000000, 1727.000000, 8168.000000, 8170.000000, 8155.000000
4085, 8055808.000000, 2122.000000, 8169.000000, 8170.000000, 8156.000000
4086, 8055968.000000, 2538.500000, 8169.000000, 8170.000000, 8156.000000
4087, 8056128.000000, 2851.000000, 8170.000000, 8170.000000, 8155.000000
4088, 8056288.000000, 3001.000000, 8175.000000, 8177.000000, 8171.000000
4089, 8056448.000000, 3027.000000, 8177.000000, 8181.000000, 8180.000000
4090, 8056608.000000, 2991.500000, 8183.000000, 8182.000000, 8185.000000
4091, 8056768.000000, 2949.000000, 8194.000000, 8184.000000, 8186.000000
4092, 8056928.000000, 2888.500000, 8172.000000, 8168.000000, 8152.000000
4093, 8057088.000000, 2782.000000, 8168.000000, 8166.000000, 8145.000000
4094, 8057248.000000, 2635.500000, 8169.000000, 8167.000000, 8147.000000
4095, 8057408.000000, 2506.000000, 8172.000000, 8169.000000, 8149.000000
4096, 8057568.000000, 2427.000000, 8254.000000, 8214.000000, 8226.000000
4097, 8057728.000000, 2388.000000, 8406.000000, 8123.000000, 8251.000000
4098, 8057888.000000, 2355.000000, 8154.000000, 8073.000000, 8075.000000
4099, 8058048.000000, 2307.000000, 8165.000000, 8172.000000, 8149.000000
4100, 8058208.000000, 2244.500000, 8163.000000, 8181.000000, 8155.000000
4101, 8058368.000000, 2168.000000, 8171.000000, 8184.000000, 8161.000000
4102, 8058528.000000, 2083.500000, 8176.000000, 8186.000000, 8165.000000
4103, 8058688.000000, 1994.000000, 8186.000000, 8188.000000, 8173.000000
4104, 8058848.000000, 1904.500000, 8195.000000, 8190.000000, 8179.000000
4105, 8059008.000000, 1818.000000, 8208.000000, 8194.000000, 8190.000000
4106, 8059168.000000, 1728.000000, 8226.000000, 8198.000000, 8196.000000
4107, 8059328.000000, 1650.000000, 8242.000000, 8198.000000, 8204.000000
4108, 8059488.000000, 1600.500000, 8264.000000, 8200.000000, 8215.000000
4109, 8059648.000000, 1586.000000, 8267.000000, 8205.000000, 8220.000000
4110, 8059808.000000, 1617.500000, 8247.000000, 8206.000000, 8222.000000
4111, 8059968.000000, 1673.000000, 8201.000000, 8206.000000, 8205.000000
4112, 8060128.000000, 1727.500000, 8170.000000, 8198.000000, 8183.000000
4113, 8060288.000000, 1749.000000, 8150.000000, 8196.000000, 8175.000000
4114, 8060448.000000, 1731.000000, 8147.000000, 8193.000000, 8170.000000
4115, 8060608.000000, 1677.000000, 8149.000000, 8197.000000, 8174.000000
4116, 8060768.000000, 1593.000000, 8151.000000, 8196.000000, 8172.000000
4117, 8060928.000000, 1503.000000, 8149.000000, 8196.000000, 8173.000000
4118, 8061088.000000, 1436.000000, 8150.000000, 8198.000000, 8175.000000
4119, 8061248.000000, 1399.000000, 8151.000000, 8200.000000, 8178.000000
4120, 8061408.000000, 1407.500000, 8152.000000, 8203.000000, 8180.000000
4121, 8061568.000000, 1512.000000, 8149.000000, 8201.000000, 8174.000000
4122, 8061728.000000, 1752.500000, 8151.000000, 8203.000000, 8179.000000
4123, 8061888.000000, 2090.000000, 8151.000000, 8205.000000, 8181.000000
4124, 8062048.000000, 2408.000000, 8154.000000, 8205.000000, 8183.000000
4125, 8062208.000000, 2626.000000, 8157.000000, 8208.000000, 8188.000000
4126, 8062368.000000, 2707.500000, 8162.000000, 8214.000000, 8201.000000
4127, 8062528.000000, 2700.000000, 8165.000000, 8218.000000, 8209.000000
4128, 8062688.000000, 2646.000000, 8177.000000, 8223.000000, 8222.000000
4129, 8062848.000000, 2568.000000, 8183.000000, 8222.000000, 8215.000000
4130, 8063008.000000, 2450.500000, 8163.000000, 8210.000000, 8186.000000
4131, 8063168.000000, 2290.000000, 8158.000000, 8209.000000, 8180.000000
4132, 8063328.000000, 2129.500000, 8159.000000, 8209.000000, 8180.000000
4133, 8063488.000000, 2018.000000, 8155.000000, 8213.000000, 8180.000000
4134, 8063648.000000, 1984.000000, 8302.000000, 8254.000000, 8284.000000
4135, 8063808.000000, 1995.000000, 8287.000000, 8167.000000, 8249.000000
4136, 8063968.000000, 2011.000000, 8130.000000, 8140.000000, 8122.000000
4137, 8064128.000000, 2001.000000, 8148.000000, 8217.000000, 8179.000000
4138, 8064288.000000, 1957.500000, 8152.000000, 8228.000000, 8189.000000
4139, 8064448.000000, 1895.000000, 8153.000000, 8230.000000, 8195.000000
4140, 8064608.000000, 1829.000000, 8161.000000, 8233.000000, 8198.000000
4141, 8064768.000000, 1770.000000, 8168.000000, 8237.000000, 8206.000000
4142, 8064928.000000, 1726.000000, 8177.000000, 8236.000000, 8207.000000
4143, 8065088.000000, 1694.000000, 8191.000000, 8240.000000, 8215.000000
4144, 8065248.000000, 1669.000000, 8206.000000, 8241.000000, 8222.000000
4145, 8065408.000000, 1648.000000, 8228.000000, 8239.000000, 8226.000000
4146, 8065568.000000, 1627.000000, 8243.000000, 8239.000000, 8232.000000
4147, 8065728.000000, 1606.000000, 8247.000000, 8238.000000, 8234.000000
4148, 8065888.000000, 1585.000000, 8228.000000, 8243.000000, 8234.000000
4149, 8066048.000000, 1564.000000, 8183.000000, 8244.000000, 8223.000000
4150, 8066208.000000, 1536.000000, 8153.000000, 8239.000000, 8208.000000
4151, 8066368.000000, 1505.000000, 8137.000000, 8229.000000, 8190.000000
4152, 8066528.000000, 1466.500000, 8137.000000, 8232.000000, 8193.000000
4153, 8066688.000000, 1420.000000, 8139.000000, 8230.000000, 8192.000000
4154, 8066848.000000, 1371.500000, 8144.000000, 8233.000000, 8198.000000
4155, 8067008.000000, 1316.000000, 8148.000000, 8232.000000, 8198.000000
4156, 8067168.000000, 1256.500000, 8149.000000, 8227.000000, 8194.000000
4157, 8067328.000000, 1197.000000, 8152.000000, 8224.000000, 8193.000000
4158, 8067488.000000, 1174.500000, 8152.000000, 8223.000000, 8192.000000
4159, 8067648.000000, 1249.000000, 8153.000000, 8220.000000, 8191.000000
4160, 8067808.000000, 1486.500000, 8156.000000, 8218.000000, 8191.000000
4161, 8067968.000000, 1851.000000, 8159.000000, 8215.000000, 8190.000000
4162, 8068128.000000, 2222.500000, 8161.000000, 8215.000000, 8190.000000
4163, 8068288.000000, 2490.000000, 8163.000000, 8212.000000, 8190.000000
4164, 8068448.000000, 2606.500000, 8174.000000, 8217.000000, 8206.000000
4165, 8068608.000000, 2626.000000, 8173.000000, 8220.000000, 8209.000000
4166, 8068768.000000, 2597.500000, 8187.000000, 8221.000000, 8221.000000
4167, 8068928.000000, 2548.000000, 8193.000000, 8216.000000, 8208.000000
4168, 8069088.000000, 2466.500000, 8172.000000, 8201.000000, 8177.000000
4169, 8069248.000000, 2345.000000, 8169.000000, 8198.000000, 8172.000000
4170, 8069408.000000, 2225.000000, 8170.000000, 8197.000000, 8172.000000
4171, 8069568.000000, 2155.000000, 8166.000000, 8198.000000, 8168.000000
4172, 8069728.000000, 2149.500000, 8328.000000, 8234.000000, 8276.000000
4173, 8069888.000000, 2180.000000, 8310.000000, 8138.000000, 8234.000000
4174, 8070048.000000, 2205.000000, 8152.000000, 8118.000000, 8113.000000
4175, 8070208.000000, 2199.000000, 8168.000000, 8190.000000, 8163.000000
4176, 8070368.000000, 2153.500000, 8176.000000, 8195.000000, 8170.000000
4177, 8070528.000000, 2080.000000, 8180.000000, 8197.000000, 8174.000000
4178, 8070688.000000, 2002.500000, 8185.000000, 8196.000000, 8175.000000
4179, 8070848.000000, 1935.000000, 8196.000000, 8198.000000, 8182.000000
4180, 8071008.000000, 1878.500000, 8206.000000, 8198.000000, 8187.000000
4181, 8071168.000000, 1827.000000, 8218.000000, 8197.000000, 8190.000000
4182, 8071328.000000, 1777.000000, 8238.000000, 8196.000000, 8196.000000
4183, 8071488.000000, 1725.000000, 8261.000000, 8199.000000, 8210.000000
4184, 8071648.000000, 1678.500000, 8276.000000, 8200.000000, 8219.000000
4185, 8071808.000000, 1634.000000, 8278.000000, 8202.000000, 8226.000000
4186, 8071968.000000, 1592.500000, 8256.000000, 8203.000000, 8223.000000
4187, 8072128.000000, 1549.000000, 8214.000000, 8198.000000, 8204.000000
4188, 8072288.000000, 1509.500000, 8180.000000, 8189.000000, 8184.000000
4189, 8072448.000000, 1475.000000, 8171.000000, 8184.000000, 8177.000000
4190, 8072608.000000, 1445.500000, 8171.000000, 8182.000000, 8175.000000
4191, 8072768.000000, 1418.000000, 8175.000000, 8181.000000, 8177.000000
4192, 8072928.000000, 1383.500000, 8181.000000, 8181.000000, 8179.000000
4193, 8073088.000000, 1344.000000, 8184.000000, 8178.000000, 8178.000000
4194, 8073248.000000, 1301.000000, 8182.000000, 8177.000000, 8179.000000
4195, 8073408.000000, 1264.000000, 8181.000000, 8178.000000, 8176.000000
4196, 8073568.000000, 1267.000000, 8181.000000, 8177.000000, 8177.000000
4197, 8073728.000000, 1361.000000, 8180.000000, 8177.000000, 8176.000000
4198, 8073888.000000, 1626.000000, 8180.000000, 8178.000000, 8177.000000
4199, 8074048.000000, 2005.000000, 8179.000000, 8178.000000, 8178.000000
4200, 8074208.000000, 2389.000000, 8181.000000, 8179.000000, 8181.000000
4201, 8074368.000000, 2649.000000, 8187.000000, 8186.000000, 8196.000000
4202, 8074528.000000, 2743.500000, 8192.000000, 8192.000000, 8211.000000
4203, 8074688.000000, 2721.000000, 8193.000000, 8190.000000, 8210.000000
4204, 8074848.000000, 2649.000000, 8207.000000, 8196.000000, 8219.000000
4205, 8075008.000000, 2569.000000, 8191.000000, 8186.000000, 8196.000000
4206, 8075168.000000, 2479.500000, 8181.000000, 8182.000000, 8184.000000
4207, 8075328.000000, 2369.000000, 8179.000000, 8181.000000, 8183.000000
4208, 8075488.000000, 2258.500000, 8181.000000, 8184.000000, 8188.000000
4209, 8075648.000000, 2191.000000, 8224.000000, 8225.000000, 8243.000000
4210, 8075808.000000, 2174.000000, 8469.000000, 8160.000000, 8326.000000
4211, 8075968.000000, 2189.000000, 8169.000000, 8084.000000, 8124.000000
4212, 8076128.000000, 2192.000000, 8170.000000, 8186.000000, 8190.000000
4213, 8076288.000000, 2156.000000, 8171.000000, 8198.000000, 8199.000000
4214, 8076448.000000, 2073.500000, 8177.000000, 8203.000000, 8210.000000
4215, 8076608.000000, 1974.000000, 8180.000000, 8205.000000, 8214.000000
4216, 8076768.000000, 1875.000000, 8187.000000, 8207.000000, 8219.000000
4217, 8076928.000000, 1787.000000, 8195.000000, 8209.000000, 8226.000000
4218, 8077088.000000, 1716.000000, 8208.000000, 8214.000000, 8236.000000
4219, 8077248.000000, 1657.000000, 8222.000000, 8217.000000, 8244.000000
4220, 8077408.000000, 1607.500000, 8244.000000, 8218.000000, 8254.000000
4221, 8077568.000000, 1569.000000, 8264.000000, 8223.000000, 8268.000000
4222, 8077728.000000, 1537.500000, 8267.000000, 8226.000000, 8273.000000
4223, 8077888.000000, 1517.000000, 8251.000000, 8228.000000, 8276.000000
4224, 8078048.000000, 1513.000000, 8211.000000, 8227.000000, 8263.000000
4225, 8078208.000000, 1526.000000, 8174.000000, 8219.000000, 8242.000000
4226, 8078368.000000, 1536.500000, 8154.000000, 8213.000000, 8225.000000
4227, 8078528.000000, 1535.000000, 8150.000000, 8212.000000, 8223.000000
4228, 8078688.000000, 1507.500000, 8151.000000, 8209.000000, 8219.000000
4229, 8078848.000000, 1462.000000, 8152.000000, 8211.000000, 8221.000000
4230, 8079008.000000, 1411.500000, 8158.000000, 8208.000000, 8220.000000
4231, 8079168.000000, 1367.000000, 8156.000000, 8208.000000, 8219.000000
4232, 8079328.000000, 1341.000000, 8152.000000, 8202.000000, 8208.000000
4233, 8079488.000000, 1344.000000, 8153.000000, 8200.000000, 8205.000000
4234, 8079648.000000, 1412.500000, 8152.000000, 8200.000000, 8204.000000
4235, 8079808.000000, 1592.000000, 8152.000000, 8199.000000, 8203.000000
4236, 8079968.000000, 1908.500000, 8155.000000, 8199.000000, 8205.000000
4237, 8080128.000000, 2284.000000, 8154.000000, 8197.000000, 8199.000000
4238, 8080288.000000, 2599.500000, 8155.000000, 8197.000000, 8201.000000
4239, 8080448.000000, 2792.000000, 8161.000000, 8205.000000, 8219.000000
4240, 8080608.000000, 2852.500000, 8163.000000, 8204.000000, 8218.000000
4241, 8080768.000000, 2843.000000, 8186.000000, 8210.000000, 8237.000000
4242, 8080928.000000, 2809.500000, 8170.000000, 8199.000000, 8209.000000
4243, 8081088.000000, 2758.000000, 8156.000000, 8189.000000, 8188.000000
4244, 8081248.000000, 2672.500000, 8153.000000, 8186.000000, 8183.000000
4245, 8081408.000000, 2564.000000, 8157.000000, 8186.000000, 8184.000000
4246, 8081568.000000, 2474.500000, 8149.000000, 8199.000000, 8190.000000
4247, 8081728.000000, 2428.000000, 8470.000000, 8197.000000, 8343.000000
4248, 8081888.000000, 2424.500000, 8205.000000, 8091.000000, 8173.000000
4249, 8082048.000000, 2432.000000, 8147.000000, 8159.000000, 8168.000000
4250, 8082208.000000, 2423.500000, 8149.000000, 8189.000000, 8178.000000
4251, 8082368.000000, 2387.000000, 8157.000000, 8194.000000, 8186.000000
4252, 8082528.000000, 2322.500000, 8162.000000, 8196.000000, 8189.000000
4253, 8082688.000000, 2241.000000, 8171.000000, 8196.000000, 8195.000000
4254, 8082848.000000, 2155.500000, 8177.000000, 8196.000000, 8197.000000
4255, 8083008.000000, 2073.000000, 8187.000000, 8198.000000, 8202.000000
4256, 8083168.000000, 2000.500000, 8204.000000, 8200.000000, 8211.000000
4257, 8083328.000000, 1939.000000, 8224.000000, 8198.000000, 8214.000000
4258, 8083488.000000, 1890.500000, 8245.000000, 8199.000000, 8223.000000
4259, 8083648.000000, 1846.000000, 8255.000000, 8202.000000, 8229.000000
4260, 8083808.000000, 1808.500000, 8251.000000, 8204.000000, 8232.000000
4261, 8083968.000000, 1782.000000, 8219.000000, 8206.000000, 8225.000000
4262, 8084128.000000, 1763.000000, 8180.000000, 8200.000000, 8205.000000
4263, 8084288.000000, 1747.000000, 8153.000000, 8191.000000, 8186.000000
4264, 8084448.000000, 1726.500000, 8147.000000, 8187.000000, 8178.000000
4265, 8084608.000000, 1692.000000, 8148.000000, 8187.000000, 8177.000000
4266, 8084768.000000, 1647.000000, 8153.000000, 8187.000000, 8178.000000
4267, 8084928.000000, 1594.000000, 8157.000000, 8184.000000, 8176.000000
4268, 8085088.000000, 1548.000000, 8157.000000, 8184.000000, 8176.000000
4269, 8085248.000000, 1511.000000, 8158.000000, 8183.000000, 8176.000000
4270, 8085408.000000, 1478.500000, 8158.000000, 8179.000000, 8170.000000
4271, 8085568.000000, 1477.000000, 8161.000000, 8182.000000, 8175.000000
4272, 8085728.000000, 1561.500000, 8158.000000, 8179.000000, 8170.000000
4273, 8085888.000000, 1796.000000, 8158.000000, 8179.000000, 8170.000000
4274, 8086048.000000, 2151.000000, 8160.000000, 8177.000000, 8169.000000
4275, 8086208.000000, 2512.000000, 8161.000000, 8177.000000, 8168.000000
4276, 8086368.000000, 2756.500000, 8167.000000, 8181.000000, 8178.000000
4277, 8086528.000000, 2865.000000, 8170.000000, 8185.000000, 8189.000000
4278, 8086688.000000, 2851.500000, 8173.000000, 8184.000000, 8188.000000
4279, 8086848.000000, 2794.000000, 8192.000000, 8187.000000, 8194.000000
4280, 8087008.000000, 2716.000000, 8172.000000, 8176.000000, 8166.000000
4281, 8087168.000000, 2615.000000, 8166.000000, 8173.000000, 8159.000000
4282, 8087328.000000, 2498.500000, 8165.000000, 8171.000000, 8156.000000
4283, 8087488.000000, 2393.000000, 8165.000000, 8172.000000, 8159.000000
4284, 8087648.000000, 2336.500000, 8204.000000, 8203.000000, 8198.000000
4285, 8087808.000000, 2322.000000, 8450.000000, 8151.000000, 8294.000000
4286, 8087968.000000, 2333.500000, 8162.000000, 8078.000000, 8103.000000
4287, 8088128.000000, 2336.000000, 8159.000000, 8168.000000, 8151.000000
4288, 8088288.000000, 2309.500000, 8157.000000, 8178.000000, 8154.000000
4289, 8088448.000000, 2255.000000, 8162.000000, 8180.000000, 8159.000000
4290, 8088608.000000, 2185.500000, 8169.000000, 8183.000000, 8165.000000
4291, 8088768.000000, 2107.000000, 8179.000000, 8189.000000, 8172.000000
4292, 8088928.000000, 2028.000000, 8191.000000, 8190.000000, 8179.000000
4293, 8089088.000000, 1956.000000, 8200.000000, 8188.000000, 8181.000000
4294, 8089248.000000, 1902.000000, 8214.000000, 8188.000000, 8186.000000
4295, 8089408.000000, 1866.000000, 8237.000000, 8189.000000, 8192.000000
4296, 8089568.000000, 1849.500000, 8255.000000, 8193.000000, 8202.000000
4297, 8089728.000000, 1849.000000, 8262.000000, 8195.000000, 8207.000000
4298, 8089888.000000, 1860.500000, 8255.000000, 8199.000000, 8212.000000
4299, 8090048.000000, 1874.000000, 8213.000000, 8204.000000, 8207.000000
4300, 8090208.000000, 1873.500000, 8179.000000, 8199.000000, 8188.000000
4301, 8090368.000000, 1851.000000, 8161.000000, 8188.000000, 8171.000000
4302, 8090528.000000, 1799.500000, 8156.000000, 8185.000000, 8166.000000
4303, 8090688.000000, 1730.000000, 8158.000000, 8184.000000, 8165.000000
4304, 8090848.000000, 1652.000000, 8160.000000, 8184.000000, 8166.000000
4305, 8091008.000000, 1573.000000, 8165.000000, 8189.000000, 8172.000000
4306, 8091168.000000, 1501.000000, 8166.000000, 8184.000000, 8166.000000
4307, 8091328.000000, 1428.000000, 8166.000000, 8185.000000, 8167.000000
4308, 8091488.000000, 1356.000000, 8167.000000, 8185.000000, 8166.000000
4309, 8091648.000000, 1312.000000, 8167.000000, 8184.000000, 8165.000000
4310, 8091808.000000, 1384.500000, 8170.000000, 8186.000000, 8167.000000
4311, 8091968.000000, 1605.000000, 8173.000000, 8190.000000, 8175.000000
4312, 8092128.000000, 1936.000000, 8173.000000, 8189.000000, 8172.000000
4313, 8092288.000000, 2244.000000, 8175.000000, 8190.000000, 8176.000000
4314, 8092448.000000, 2431.000000, 8180.000000, 8199.000000, 8194.000000
4315, 8092608.000000, 2473.000000, 8185.000000, 8196.000000, 8193.000000
4316, 8092768.000000, 2411.500000, 8208.000000, 8206.000000, 8214.000000
4317, 8092928.000000, 2310.000000, 8189.000000, 8192.000000, 8179.000000
4318, 8093088.000000, 2200.000000, 8178.000000, 8183.000000, 8161.000000
4319, 8093248.000000, 2077.000000, 8178.000000, 8182.000000, 8160.000000
4320, 8093408.000000, 1962.000000, 8179.000000, 8183.000000, 8160.000000
4321, 8093568.000000, 1896.000000, 8187.000000, 8206.000000, 8184.000000
4322, 8093728.000000, 1904.000000, 8512.000000, 8167.000000, 8309.000000
4323, 8093888.000000, 1972.000000, 8188.000000, 8088.000000, 8128.000000
4324, 8094048.000000, 2059.500000, 8171.000000, 8163.000000, 8146.000000
4325, 8094208.000000, 2121.000000, 8176.000000, 8186.000000, 8159.000000
4326, 8094368.000000, 2120.500000, 8177.000000, 8191.000000, 8164.000000
4327, 8094528.000000, 2069.000000, 8188.000000, 8191.000000, 8168.000000
4328, 8094688.000000, 1977.000000, 8195.000000, 8190.000000, 8169.000000
4329, 8094848.000000, 1870.000000, 8205.000000, 8193.000000, 8177.000000
4330, 8095008.000000, 1758.500000, 8213.000000, 8191.000000, 8178.000000
4331, 8095168.000000, 1653.000000, 8231.000000, 8196.000000, 8191.000000
4332, 8095328.000000, 1560.000000, 8247.000000, 8196.000000, 8196.000000
4333, 8095488.000000, 1484.000000, 8270.000000, 8197.000000, 8206.000000
4334, 8095648.000000, 1427.500000, 8279.000000, 8199.000000, 8216.000000
4335, 8095808.000000, 1394.000000, 8269.000000, 8202.000000, 8220.000000
4336, 8095968.000000, 1387.000000, 8235.000000, 8203.000000, 8211.000000
4337, 8096128.000000, 1394.000000, 8198.000000, 8197.000000, 8192.000000
4338, 8096288.000000, 1396.500000, 8175.000000, 8190.000000, 8176.000000
4339, 8096448.000000, 1384.000000, 8169.000000, 8187.000000, 8171.000000
4340, 8096608.000000, 1354.500000, 8173.000000, 8186.000000, 8171.000000
4341, 8096768.000000, 1318.000000, 8178.000000, 8188.000000, 8176.000000
4342, 8096928.000000, 1274.500000, 8182.000000, 8186.000000, 8175.000000
4343, 8097088.000000, 1229.000000, 8181.000000, 8185.000000, 8173.000000
4344, 8097248.000000, 1188.500000, 8180.000000, 8184.000000, 8173.000000
4345, 8097408.000000, 1169.000000, 8177.000000, 8183.000000, 8170.000000
4346, 8097568.000000, 1193.500000, 8178.000000, 8185.000000, 8173.000000
4347, 8097728.000000, 1316.000000, 8179.000000, 8183.000000, 8170.000000
4348, 8097888.000000, 1606.000000, 8178.000000, 8184.000000, 8172.000000
4349, 8098048.000000, 2021.000000, 8181.000000, 8182.000000, 8172.000000
4350, 8098208.000000, 2448.000000, 8188.000000, 8192.000000, 8194.000000
4351, 8098368.000000, 2759.000000, 8190.000000, 8194.000000, 8198.000000
4352, 8098528.000000, 2901.500000, 8211.000000, 8198.000000, 8210.000000
4353, 8098688.000000, 2920.000000, 8192.000000, 8184.000000, 8177.000000
4354, 8098848.000000, 2874.500000, 8180.000000, 8176.000000, 8159.000000
4355, 8099008.000000, 2806.000000, 8179.000000, 8176.000000, 8159.000000
4356, 8099168.000000, 2704.500000, 8182.000000, 8177.000000, 8160.000000
4357, 8099328.000000, 2576.000000, 8184.000000, 8196.000000, 8176.000000
4358, 8099488.000000, 2459.500000, 8517.000000, 8170.000000, 8318.000000
4359, 8099648.000000, 2397.000000, 8200.000000, 8072.000000, 8122.000000
4360, 8099808.000000, 2407.000000, 8167.000000, 8156.000000, 8141.000000
4361, 8099968.000000, 2458.000000, 8170.000000, 8182.000000, 8155.000000
4362, 8100128.000000, 2508.500000, 8175.000000, 8185.000000, 8161.000000
4363, 8100288.000000, 2523.000000, 8181.000000, 8187.000000, 8165.000000
4364, 8100448.000000, 2493.500000, 8190.000000, 8191.000000, 8175.000000
4365, 8100608.000000, 2431.000000, 8199.000000, 8193.000000, 8183.000000
4366, 8100768.000000, 2344.000000, 8211.000000, 8194.000000, 8186.000000
4367, 8100928.000000, 2254.000000, 8228.000000, 8197.000000, 8196.000000
4368, 8101088.000000, 2170.000000, 8250.000000, 8196.000000, 8202.000000
4369, 8101248.000000, 2095.000000, 8268.000000, 8202.000000, 8216.000000
4370, 8101408.000000, 2029.500000, 8272.000000, 8202.000000, 8220.000000
4371, 8101568.000000, 1975.000000, 8265.000000, 8206.000000, 8224.000000
4372, 8101728.000000, 1936.000000, 8226.000000, 8205.000000, 8211.000000
4373, 8101888.000000, 1917.000000, 8186.000000, 8194.000000, 8187.000000
4374, 8102048.000000, 1917.000000, 8163.000000, 8185.000000, 8169.000000
4375, 8102208.000000, 1919.000000, 8153.000000, 8189.000000, 8168.000000
4376, 8102368.000000, 1908.500000, 8161.000000, 8186.000000, 8167.000000
4377, 8102528.000000, 1866.000000, 8163.000000, 8184.000000, 8168.000000
4378, 8102688.000000, 1798.500000, 8164.000000, 8184.000000, 8165.000000
4379, 8102848.000000, 1720.000000, 8164.000000, 8183.000000, 8164.000000
4380, 8103008.000000, 1646.000000, 8163.000000, 8184.000000, 8166.000000
4381, 8103168.000000, 1589.000000, 8163.000000, 8183.000000, 8165.000000
4382, 8103328.000000, 1568.500000, 8165.000000, 8181.000000, 8164.000000
4383, 8103488.000000, 1625.000000, 8163.000000, 8181.000000, 8161.000000
4384, 8103648.000000, 1820.500000, 8164.000000, 8180.000000, 8161.000000
4385, 8103808.000000, 2149.000000, 8163.000000, 8182.000000, 8162.000000
4386, 8103968.000000, 2517.500000, 8171.000000, 8188.000000, 8175.000000
4387, 8104128.000000, 2809.000000, 8175.000000, 8190.000000, 8184.000000
4388, 8104288.000000, 2945.500000, 8177.000000, 8190.000000, 8185.000000
4389, 8104448.000000, 2952.000000, 8194.000000, 8197.000000, 8197.000000
4390, 8104608.000000, 2877.500000, 8173.000000, 8184.000000, 8165.000000
4391, 8104768.000000, 2778.000000, 8167.000000, 8179.000000, 8156.000000
4392, 8104928.000000, 2661.000000, 8168.000000, 8179.000000, 8156.000000
4393, 8105088.000000, 2517.000000, 8171.000000, 8178.000000, 8157.000000
4394, 8105248.000000, 2367.000000, 8217.000000, 8212.000000, 8206.000000
4395, 8105408.000000, 2266.000000, 8427.000000, 8156.000000, 8280.000000
4396, 8105568.000000, 2246.500000, 8159.000000, 8089.000000, 8106.000000
4397, 8105728.000000, 2284.000000, 8163.000000, 8171.000000, 8149.000000
4398, 8105888.000000, 2319.500000, 8166.000000, 8183.000000, 8159.000000
4399, 8106048.000000, 2319.000000, 8169.000000, 8186.000000, 8164.000000
4400, 8106208.000000, 2260.500000, 8175.000000, 8191.000000, 8175.000000
4401, 8106368.000000, 2160.000000, 8186.000000, 8191.000000, 8180.000000
4402, 8106528.000000, 2045.500000, 8194.000000, 8194.000000, 8185.000000
4403, 8106688.000000, 1942.000000, 8204.000000, 8194.000000, 8189.000000
4404, 8106848.000000, 1853.000000, 8223.000000, 8195.000000, 8197.000000
4405, 8107008.000000, 1775.000000, 8245.000000, 8197.000000, 8209.000000
4406, 8107168.000000, 1701.500000, 8265.000000, 8200.000000, 8220.000000
4407, 8107328.000000, 1628.000000, 8269.000000, 8204.000000, 8228.000000
4408, 8107488.000000, 1562.000000, 8253.000000, 8204.000000, 8224.000000
4409, 8107648.000000, 1512.000000, 8212.000000, 8205.000000, 8213.000000
4410, 8107808.000000, 1481.500000, 8178.000000, 8199.000000, 8195.000000
4411, 8107968.000000, 1463.000000, 8164.000000, 8195.000000, 8186.000000
4412, 8108128.000000, 1447.500000, 8162.000000, 8192.000000, 8181.000000
4413, 8108288.000000, 1428.000000, 8165.000000, 8192.000000, 8183.000000
4414, 8108448.000000, 1407.000000, 8166.000000, 8189.000000, 8179.000000
4415, 8108608.000000, 1384.000000, 8171.000000, 8189.000000, 8182.000000
4416, 8108768.000000, 1361.000000, 8170.000000, 8189.000000, 8180.000000
4417, 8108928.000000, 1338.000000, 8169.000000, 8186.000000, 8176.000000
4418, 8109088.000000, 1323.000000, 8169.000000, 8185.000000, 8175.000000
4419, 8109248.000000, 1336.000000, 8169.000000, 8187.000000, 8177.000000
4420, 8109408.000000, 1459.000000, 8167.000000, 8183.000000, 8172.000000
4421, 8109568.000000, 1732.000000, 8169.000000, 8185.000000, 8175.000000
4422, 8109728.000000, 2146.000000, 8176.000000, 8187.000000, 8182.000000
4423, 8109888.000000, 2564.000000, 8179.000000, 8193.000000, 8195.000000
4424, 8110048.000000, 2867.000000, 8180.000000, 8192.000000, 8195.000000
4425, 8110208.000000, 3015.000000, 8199.000000, 8198.000000, 8208.000000
4426, 8110368.000000, 3039.000000, 8182.000000, 8186.000000, 8177.000000
4427, 8110528.000000, 2998.000000, 8171.000000, 8178.000000, 8163.000000
4428, 8110688.000000, 2916.500000, 8169.000000, 8176.000000, 8158.000000
4429, 8110848.000000, 2805.000000, 8172.000000, 8176.000000, 8160.000000
4430, 8111008.000000, 2672.500000, 8194.000000, 8206.000000, 8195.000000
4431, 8111168.000000, 2558.000000, 8494.000000, 8160.000000, 8314.000000
4432, 8111328.000000, 2500.000000, 8182.000000, 8076.000000, 8114.000000
4433, 8111488.000000, 2505.000000, 8166.000000, 8171.000000, 8157.000000
4434, 8111648.000000, 2549.000000, 8166.000000, 8185.000000, 8165.000000
4435, 8111808.000000, 2586.000000, 8172.000000, 8188.000000, 8170.000000
4436, 8111968.000000, 2588.500000, 8177.000000, 8190.000000, 8175.000000
4437, 8112128.000000, 2557.000000, 8185.000000, 8194.000000, 8181.000000
4438, 8112288.000000, 2487.500000, 8194.000000, 8194.000000, 8185.000000
4439, 8112448.000000, 2395.000000, 8204.000000, 8199.000000, 8194.000000
4440, 8112608.000000, 2288.500000, 8220.000000, 8200.000000, 8200.000000
4441, 8112768.000000, 2186.000000, 8243.000000, 8202.000000, 8211.000000
4442, 8112928.000000, 2103.500000, 8262.000000, 8206.000000, 8222.000000
4443, 8113088.000000, 2046.000000, 8266.000000, 8206.000000, 8226.000000
4444, 8113248.000000, 2015.500000, 8258.000000, 8210.000000, 8231.000000
4445, 8113408.000000, 1994.000000, 8216.000000, 8208.000000, 8217.000000
4446, 8113568.000000, 1964.500000, 8180.000000, 8202.000000, 8197.000000
4447, 8113728.000000, 1934.000000, 8158.000000, 8194.000000, 8179.000000
4448, 8113888.000000, 1908.000000, 8162.000000, 8192.000000, 8179.000000
4449, 8114048.000000, 1883.000000, 8160.000000, 8189.000000, 8175.000000
4450, 8114208.000000, 1847.500000, 8164.000000, 8188.000000, 8175.000000
4451, 8114368.000000, 1791.000000, 8165.000000, 8190.000000, 8179.000000
4452, 8114528.000000, 1724.500000, 8168.000000, 8185.000000, 8174.000000
4453, 8114688.000000, 1659.000000, 8167.000000, 8185.000000, 8172.000000
4454, 8114848.000000, 1605.500000, 8161.000000, 8181.000000, 8166.000000
4455, 8115008.000000, 1578.000000, 8160.000000, 8181.000000, 8167.000000
4456, 8115168.000000, 1634.500000, 8168.000000, 8181.000000, 8168.000000
4457, 8115328.000000, 1841.000000, 8168.000000, 8183.000000, 8170.000000
4458, 8115488.000000, 2274.500000, 8163.000000, 8182.000000, 8168.000000
4459, 8115648.000000, 2790.000000, 8166.000000, 8188.000000, 8182.000000
4460, 8115808.000000, 3027.000000, 8172.000000, 8188.000000, 8186.000000
4461, 8115968.000000, 3096.000000, 8193.000000, 8199.000000, 8207.000000
4462, 8116128.000000, 3040.500000, 8184.000000, 8185.000000, 8181.000000
4463, 8116288.000000, 2944.000000, 8162.000000, 8174.000000, 8159.000000
4464, 8116448.000000, 2811.500000, 8159.000000, 8177.000000, 8158.000000
4465, 8116608.000000, 2643.000000, 8160.000000, 8182.000000, 8164.000000
4466, 8116768.000000, 2484.500000, 8153.000000, 8186.000000, 8161.000000
4467, 8116928.000000, 2372.000000, 8405.000000, 8210.000000, 8299.000000
4468, 8117088.000000, 2307.500000, 8188.000000, 8151.000000, 8211.000000
4469, 8117248.000000, 2259.000000, 8142.000000, 8140.000000, 8140.000000
4470, 8117408.000000, 2189.000000, 8158.000000, 8193.000000, 8174.000000
4471, 8117568.000000, 2085.000000, 8166.000000, 8199.000000, 8183.000000
4472, 8117728.000000, 1940.500000, 8174.000000, 8205.000000, 8194.000000
4473, 8117888.000000, 1768.000000, 8184.000000, 8209.000000, 8203.000000
4474, 8118048.000000, 1592.500000, 8195.000000, 8215.000000, 8214.000000
4475, 8118208.000000, 1427.000000, 8209.000000, 8219.000000, 8225.000000
4476, 8118368.000000, 1281.500000, 8223.000000, 8226.000000, 8236.000000
4477, 8118528.000000, 1159.000000, 8247.000000, 8232.000000, 8250.000000
4478, 8118688.000000, 1056.500000, 8267.000000, 8235.000000, 8260.000000
4479, 8118848.000000, 975.000000, 8280.000000, 8242.000000, 8272.000000
4480, 8119008.000000, 926.500000, 8278.000000, 8248.000000, 8280.000000
4481, 8119168.000000, 912.000000, 8246.000000, 8257.000000, 8280.000000
4482, 8119328.000000, 922.000000, 8205.000000, 8261.000000, 8271.000000
4483, 8119488.000000, 937.000000, 8176.000000, 8259.000000, 8256.000000
4484, 8119648.000000, 945.500000, 8167.000000, 8259.000000, 8254.000000
4485, 8119808.000000, 937.000000, 8167.000000, 8264.000000, 8259.000000
4486, 8119968.000000, 909.000000, 8175.000000, 8266.000000, 8264.000000
4487, 8120128.000000, 875.000000, 8180.000000, 8270.000000, 8271.000000
4488, 8120288.000000, 853.000000, 8183.000000, 8274.000000, 8275.000000
4489, 8120448.000000, 853.000000, 8185.000000, 8277.000000, 8277.000000
4490, 8120608.000000, 883.500000, 8179.000000, 8280.000000, 8277.000000
4491, 8120768.000000, 994.000000, 8183.000000, 8285.000000, 8282.000000
4492, 8120928.000000, 1265.500000, 8181.000000, 8288.000000, 8284.000000
4493, 8121088.000000, 1684.000000, 8180.000000, 8290.000000, 8285.000000
4494, 8121248.000000, 2155.500000, 8183.000000, 8298.000000, 8297.000000
4495, 8121408.000000, 2529.000000, 8189.000000, 8306.000000, 8311.000000
4496, 8121568.000000, 2719.500000, 8193.000000, 8310.000000, 8320.000000
4497, 8121728.000000, 2749.000000, 8206.000000, 8314.000000, 8324.000000
4498, 8121888.000000, 2689.000000, 8189.000000, 8303.000000, 8294.000000
4499, 8122048.000000, 2600.000000, 8180.000000, 8301.000000, 8286.000000
4500, 8122208.000000, 2484.000000, 8184.000000, 8298.000000, 8282.000000
4501, 8122368.000000, 2348.000000, 8184.000000, 8302.000000, 8288.000000
4502, 8122528.000000, 2231.000000, 8238.000000, 8338.000000, 8340.000000
4503, 8122688.000000, 2178.000000, 8439.000000, 8274.000000, 8406.000000
4504, 8122848.000000, 2207.500000, 8163.000000, 8200.000000, 8212.000000
4505, 8123008.000000, 2278.000000, 8172.000000, 8291.000000, 8269.000000
4506, 8123168.000000, 2337.000000, 8173.000000, 8302.000000, 8277.000000
4507, 8123328.000000, 2353.000000, 8178.000000, 8302.000000, 8278.000000
4508, 8123488.000000, 2308.000000, 8183.000000, 8301.000000, 8280.000000
4509, 8123648.000000, 2226.000000, 8191.000000, 8300.000000, 8283.000000
4510, 8123808.000000, 2120.500000, 8197.000000, 8300.000000, 8285.000000
4511, 8123968.000000, 2014.000000, 8208.000000, 8301.000000, 8291.000000
4512, 8124128.000000, 1920.000000, 8227.000000, 8298.000000, 8291.000000
4513, 8124288.000000, 1838.000000, 8246.000000, 8296.000000, 8295.000000
4514, 8124448.000000, 1775.500000, 8261.000000, 8295.000000, 8302.000000
4515, 8124608.000000, 1734.000000, 8263.000000, 8293.000000, 8301.000000
4516, 8124768.000000, 1717.000000, 8241.000000, 8292.000000, 8296.000000
4517, 8124928.000000, 1721.000000, 8202.000000, 8288.000000, 8280.000000
4518, 8125088.000000, 1735.500000, 8165.000000, 8275.000000, 8252.000000
4519, 8125248.000000, 1744.000000, 8146.000000, 8263.000000, 8232.000000
4520, 8125408.000000, 1729.500000, 8144.000000, 8255.000000, 8224.000000
4521, 8125568.000000, 1693.000000, 8148.000000, 8253.000000, 8223.000000
4522, 8125728.000000, 1643.000000, 8149.000000, 8249.000000, 8220.000000
4523, 8125888.000000, 1595.000000, 8152.000000, 8242.000000, 8213.000000
4524, 8126048.000000, 1553.000000, 8149.000000, 8236.000000, 8205.000000
4525, 8126208.000000, 1522.000000, 8148.000000, 8231.000000, 8199.000000
4526, 8126368.000000, 1550.000000, 8150.000000, 8226.000000, 8195.000000
4527, 8126528.000000, 1707.000000, 8149.000000, 8224.000000, 8191.000000
4528, 8126688.000000, 2062.000000, 8146.000000, 8215.000000, 8180.000000
4529, 8126848.000000, 2535.000000, 8149.000000, 8212.000000, 8179.000000
4530, 8127008.000000, 2976.500000, 8154.000000, 8216.000000, 8192.000000
4531, 8127168.000000, 3279.000000, 8156.000000, 8216.000000, 8197.000000
4532, 8127328.000000, 3415.500000, 8166.000000, 8213.000000, 8203.000000
4533, 8127488.000000, 3449.000000, 8175.000000, 8209.000000, 8193.000000
4534, 8127648.000000, 3426.500000, 8152.000000, 8191.000000, 8158.000000
4535, 8127808.000000, 3370.000000, 8151.000000, 8186.000000, 8152.000000
4536, 8127968.000000, 3255.500000, 8148.000000, 8183.000000, 8147.000000
4537, 8128128.000000, 3085.000000, 8146.000000, 8183.000000, 8144.000000
4538, 8128288.000000, 2921.500000, 8293.000000, 8221.000000, 8245.000000
4539, 8128448.000000, 2832.000000, 8321.000000, 8131.000000, 8230.000000
4540, 8128608.000000, 2834.000000, 8134.000000, 8098.000000, 8087.000000
4541, 8128768.000000, 2867.000000, 8146.000000, 8174.000000, 8135.000000
4542, 8128928.000000, 2863.500000, 8149.000000, 8177.000000, 8140.000000
4543, 8129088.000000, 2793.000000, 8156.000000, 8176.000000, 8143.000000
4544, 8129248.000000, 2656.000000, 8160.000000, 8177.000000, 8145.000000
4545, 8129408.000000, 2491.000000, 8171.000000, 8176.000000, 8149.000000
4546, 8129568.000000, 2325.500000, 8178.000000, 8175.000000, 8151.000000
4547, 8129728.000000, 2174.000000, 8195.000000, 8172.000000, 8155.000000
4548, 8129888.000000, 2038.000000, 8208.000000, 8170.000000, 8158.000000
4549, 8130048.000000, 1915.000000, 8229.000000, 8170.000000, 8166.000000
4550, 8130208.000000, 1818.000000, 8247.000000, 8172.000000, 8178.000000
4551, 8130368.000000, 1737.000000, 8249.000000, 8171.000000, 8182.000000
4552, 8130528.000000, 1664.000000, 8224.000000, 8175.000000, 8183.000000
4553, 8130688.000000, 1604.000000, 8184.000000, 8172.000000, 8168.000000
4554, 8130848.000000, 1550.500000, 8152.000000, 8160.000000, 8143.000000
4555, 8131008.000000, 1494.000000, 8141.000000, 8158.000000, 8139.000000
4556, 8131168.000000, 1419.000000, 8144.000000, 8157.000000, 8140.000000
4557, 8131328.000000, 1328.000000, 8145.000000, 8154.000000, 8138.000000
4558, 8131488.000000, 1225.500000, 8150.000000, 8152.000000, 8139.000000
4559, 8131648.000000, 1125.000000, 8153.000000, 8151.000000, 8140.000000
4560, 8131808.000000, 1033.000000, 8152.000000, 8150.000000, 8137.000000
4561, 8131968.000000, 972.000000, 8155.000000, 8149.000000, 8136.000000
4562, 8132128.000000, 994.500000, 8151.000000, 8146.000000, 8132.000000
4563, 8132288.000000, 1181.000000, 8151.000000, 8145.000000, 8129.000000
4564, 8132448.000000, 1570.500000, 8152.000000, 8142.000000, 8125.000000
4565, 8132608.000000, 2058.000000, 8153.000000, 8144.000000, 8129.000000
4566, 8132768.000000, 2489.500000, 8162.000000, 8152.000000, 8147.000000
4567, 8132928.000000, 2775.000000, 8163.000000, 8153.000000, 8151.000000
4568, 8133088.000000, 2896.500000, 8177.000000, 8159.000000, 8168.000000
4569, 8133248.000000, 2917.000000, 8178.000000, 8154.000000, 8154.000000
4570, 8133408.000000, 2886.000000, 8159.000000, 8144.000000, 8131.000000
4571, 8133568.000000, 2820.000000, 8155.000000, 8142.000000, 8125.000000
4572, 8133728.000000, 2694.500000, 8155.000000, 8145.000000, 8128.000000
4573, 8133888.000000, 2529.000000, 8145.000000, 8150.000000, 8128.000000
4574, 8134048.000000, 2385.500000, 8347.000000, 8188.000000, 8258.000000
4575, 8134208.000000, 2308.000000, 8269.000000, 8099.000000, 8201.000000
4576, 8134368.000000, 2302.500000, 8140.000000, 8099.000000, 8111.000000
4577, 8134528.000000, 2326.000000, 8148.000000, 8163.000000, 8147.000000
4578, 8134688.000000, 2331.500000, 8149.000000, 8171.000000, 8156.000000
4579, 8134848.000000, 2289.000000, 8156.000000, 8176.000000, 8167.000000
4580, 8135008.000000, 2198.000000, 8162.000000, 8185.000000, 8182.000000
4581, 8135168.000000, 2086.000000, 8174.000000, 8191.000000, 8194.000000
4582, 8135328.000000, 1987.000000, 8186.000000, 8196.000000, 8203.000000
4583, 8135488.000000, 1925.000000, 8192.000000, 8199.000000, 8208.000000
4584, 8135648.000000, 1903.500000, 8212.000000, 8206.000000, 8222.000000
4585, 8135808.000000, 1907.000000, 8235.000000, 8209.000000, 8233.000000
4586, 8135968.000000, 1917.000000, 8251.000000, 8215.000000, 8245.000000
4587, 8136128.000000, 1926.000000, 8247.000000, 8222.000000, 8254.000000
4588, 8136288.000000, 1930.500000, 8219.000000, 8230.000000, 8253.000000
4589, 8136448.000000, 1932.000000, 8177.000000, 8230.000000, 8239.000000
4590, 8136608.000000, 1925.000000, 8151.000000, 8228.000000, 8226.000000
4591, 8136768.000000, 1903.000000, 8138.000000, 8226.000000, 8217.000000
4592, 8136928.000000, 1879.500000, 8136.000000, 8229.000000, 8217.000000
4593, 8137088.000000, 1860.000000, 8133.000000, 8232.000000, 8218.000000
4594, 8137248.000000, 1839.000000, 8135.000000, 8234.000000, 8219.000000
4595, 8137408.000000, 1809.000000, 8138.000000, 8235.000000, 8220.000000
4596, 8137568.000000, 1770.000000, 8134.000000, 8238.000000, 8219.000000
4597, 8137728.000000, 1729.000000, 8138.000000, 8239.000000, 8220.000000
4598, 8137888.000000, 1742.000000, 8133.000000, 8238.000000, 8216.000000
4599, 8138048.000000, 1881.000000, 8132.000000, 8239.000000, 8214.000000
4600, 8138208.000000, 2191.000000, 8132.000000, 8237.000000, 8210.000000
4601, 8138368.000000, 2591.000000, 8131.000000, 8238.000000, 8209.000000
4602, 8138528.000000, 2946.500000, 8139.000000, 8246.000000, 8226.000000
4603, 8138688.000000, 3159.000000, 8139.000000, 8248.000000, 8228.000000
4604, 8138848.000000, 3218.000000, 8149.000000, 8250.000000, 8237.000000
4605, 8139008.000000, 3192.000000, 8157.000000, 8249.000000, 8231.000000
4606, 8139168.000000, 3128.000000, 8136.000000, 8236.000000, 8200.000000
4607, 8139328.000000, 3042.000000, 8137.000000, 8232.000000, 8193.000000
4608, 8139488.000000, 2913.000000, 8135.000000, 8228.000000, 8185.000000
4609, 8139648.000000, 2743.000000, 8132.000000, 8228.000000, 8181.000000
4610, 8139808.000000, 2578.000000, 8260.000000, 8267.000000, 8271.000000
4611, 8139968.000000, 2467.000000, 8299.000000, 8182.000000, 8264.000000
4612, 8140128.000000, 2419.000000, 8119.000000, 8143.000000, 8118.000000
4613, 8140288.000000, 2407.000000, 8131.000000, 8217.000000, 8164.000000
4614, 8140448.000000, 2387.000000, 8132.000000, 8220.000000, 8165.000000
4615, 8140608.000000, 2335.000000, 8135.000000, 8220.000000, 8165.000000
4616, 8140768.000000, 2241.000000, 8146.000000, 8220.000000, 8169.000000
4617, 8140928.000000, 2118.000000, 8155.000000, 8219.000000, 8172.000000
4618, 8141088.000000, 1988.500000, 8165.000000, 8217.000000, 8174.000000
4619, 8141248.000000, 1874.000000, 8179.000000, 8215.000000, 8176.000000
4620, 8141408.000000, 1786.000000, 8195.000000, 8216.000000, 8185.000000
4621, 8141568.000000, 1722.000000, 8219.000000, 8213.000000, 8192.000000
4622, 8141728.000000, 1672.500000, 8235.000000, 8210.000000, 8194.000000
4623, 8141888.000000, 1632.000000, 8243.000000, 8208.000000, 8201.000000
4624, 8142048.000000, 1595.500000, 8212.000000, 8212.000000, 8199.000000
4625, 8142208.000000, 1575.000000, 8177.000000, 8209.000000, 8188.000000
4626, 8142368.000000, 1566.500000, 8140.000000, 8197.000000, 8164.000000
4627, 8142528.000000, 1561.000000, 8133.000000, 8190.000000, 8152.000000
4628, 8142688.000000, 1539.000000, 8131.000000, 8184.000000, 8147.000000
4629, 8142848.000000, 1490.000000, 8131.000000, 8185.000000, 8150.000000
4630, 8143008.000000, 1421.000000, 8133.000000, 8180.000000, 8148.000000
4631, 8143168.000000, 1353.000000, 8134.000000, 8180.000000, 8147.000000
4632, 8143328.000000, 1302.000000, 8138.000000, 8178.000000, 8147.000000
4633, 8143488.000000, 1278.000000, 8135.000000, 8173.000000, 8138.000000
4634, 8143648.000000, 1313.500000, 8135.000000, 8172.000000, 8139.000000
4635, 8143808.000000, 1466.000000, 8136.000000, 8170.000000, 8136.000000
4636, 8143968.000000, 1790.500000, 8141.000000, 8171.000000, 8140.000000
4637, 8144128.000000, 2213.000000, 8143.000000, 8169.000000, 8140.000000
4638, 8144288.000000, 2601.500000, 8147.000000, 8168.000000, 8143.000000
4639, 8144448.000000, 2864.000000, 8154.000000, 8173.000000, 8157.000000
4640, 8144608.000000, 2968.500000, 8157.000000, 8172.000000, 8158.000000
4641, 8144768.000000, 2965.000000, 8174.000000, 8174.000000, 8167.000000
4642, 8144928.000000, 2905.000000, 8158.000000, 8162.000000, 8139.000000
4643, 8145088.000000, 2805.000000, 8150.000000, 8155.000000, 8130.000000
4644, 8145248.000000, 2652.000000, 8148.000000, 8152.000000, 8122.000000
4645, 8145408.000000, 2457.000000, 8153.000000, 8154.000000, 8129.000000
4646, 8145568.000000, 2277.000000, 8166.000000, 8176.000000, 8156.000000
4647, 8145728.000000, 2167.000000, 8472.000000, 8134.000000, 8268.000000
4648, 8145888.000000, 2147.500000, 8152.000000, 8060.000000, 8092.000000
4649, 8146048.000000, 2168.000000, 8145.000000, 8135.000000, 8119.000000
4650, 8146208.000000, 2180.000000, 8151.000000, 8152.000000, 8128.000000
4651, 8146368.000000, 2150.000000, 8158.000000, 8155.000000, 8136.000000
4652, 8146528.000000, 2070.000000, 8161.000000, 8155.000000, 8136.000000
4653, 8146688.000000, 1961.000000, 8169.000000, 8153.000000, 8139.000000
4654, 8146848.000000, 1843.500000, 8178.000000, 8153.000000, 8143.000000
4655, 8147008.000000, 1739.000000, 8188.000000, 8153.000000, 8146.000000
4656, 8147168.000000, 1650.000000, 8210.000000, 8154.000000, 8155.000000
4657, 8147328.000000, 1576.000000, 8234.000000, 8155.000000, 8166.000000
4658, 8147488.000000, 1508.000000, 8257.000000, 8153.000000, 8173.000000
4659, 8147648.000000, 1441.000000, 8266.000000, 8151.000000, 8177.000000
4660, 8147808.000000, 1378.000000, 8255.000000, 8152.000000, 8177.000000
4661, 8147968.000000, 1327.000000, 8214.000000, 8153.000000, 8165.000000
