1832, 3723568.000000, 1262.750000, 8169.000000, 8186.000000, 8180.000000
1833, 3723728.000000, 1201.750000, 8167.000000, 8183.000000, 8176.000000
1834, 3723888.000000, 1194.250000, 8168.000000, 8184.000000, 8175.000000
1835, 3724048.000000, 1318.500000, 8169.000000, 8185.000000, 8179.000000
1836, 3724208.000000, 1651.750000, 8166.000000, 8185.000000, 8177.000000
1837, 3724368.000000, 2128.250000, 8174.000000, 8190.000000, 8191.000000
1838, 3724528.000000, 2619.000000, 8175.000000, 8193.000000, 8197.000000
1839, 3724688.000000, 2984.250000, 8184.000000, 8197.000000, 8211.000000
1840, 3724848.000000, 3185.750000, 8191.000000, 8195.000000, 8201.000000
1841, 3725008.000000, 3254.500000, 8169.000000, 8182.000000, 8170.000000
1842, 3725168.000000, 3247.500000, 8166.000000, 8177.000000, 8159.000000
1843, 3725328.000000, 3207.750000, 8167.000000, 8176.000000, 8159.000000
1844, 3725488.000000, 3117.500000, 8166.000000, 8180.000000, 8162.000000
1845, 3725648.000000, 2972.750000, 8292.000000, 8229.000000, 8265.000000
1846, 3725808.000000, 2794.250000, 8338.000000, 8123.000000, 8235.000000
1847, 3725968.000000, 2637.250000, 8148.000000, 8094.000000, 8094.000000
1848, 3726128.000000, 2536.500000, 8159.000000, 8180.000000, 8159.000000
1849, 3726288.000000, 2486.500000, 8163.000000, 8190.000000, 8168.000000
1850, 3726448.000000, 2450.750000, 8170.000000, 8196.000000, 8177.000000
1851, 3726608.000000, 2400.750000, 8177.000000, 8198.000000, 8185.000000
1852, 3726768.000000, 2316.500000, 8185.000000, 8201.000000, 8192.000000
1853, 3726928.000000, 2199.500000, 8195.000000, 8203.000000, 8196.000000
1854, 3727088.000000, 2062.000000, 8206.000000, 8206.000000, 8203.000000
1855, 3727248.000000, 1922.250000, 8227.000000, 8211.000000, 8217.000000
1856, 3727408.000000, 1794.000000, 8251.000000, 8213.000000, 8229.000000
1857, 3727568.000000, 1681.750000, 8267.000000, 8213.000000, 8236.000000
1858, 3727728.000000, 1587.750000, 8266.000000, 8212.000000, 8236.000000
1859, 3727888.000000, 1510.250000, 8241.000000, 8213.000000, 8231.000000
1860, 3728048.000000, 1449.500000, 8196.000000, 8210.000000, 8214.000000
1861, 3728208.000000, 1403.250000, 8164.000000, 8200.000000, 8189.000000
1862, 3728368.000000, 1364.750000, 8152.000000, 8194.000000, 8177.000000
1863, 3728528.000000, 1323.500000, 8149.000000, 8191.000000, 8172.000000
1864, 3728688.000000, 1275.250000, 8150.000000, 8193.000000, 8174.000000
1865, 3728848.000000, 1215.250000, 8156.000000, 8194.000000, 8179.000000
1866, 3729008.000000, 1146.250000, 8156.000000, 8192.000000, 8177.000000
1867, 3729168.000000, 1074.500000, 8158.000000, 8190.000000, 8173.000000
1868, 3729328.000000, 1005.500000, 8157.000000, 8190.000000, 8172.000000
1869, 3729488.000000, 958.250000, 8155.000000, 8189.000000, 8168.000000
1870, 3729648.000000, 984.250000, 8156.000000, 8193.000000, 8174.000000
1871, 3729808.000000, 1179.000000, 8154.000000, 8192.000000, 8170.000000
1872, 3729968.000000, 1551.250000, 8154.000000, 8191.000000, 8169.000000
1873, 3730128.000000, 2025.500000, 8162.000000, 8199.000000, 8188.000000
1874, 3730288.000000, 2442.000000, 8166.000000, 8204.000000, 8196.000000
1875, 3730448.000000, 2724.750000, 8174.000000, 8207.000000, 8210.000000
1876, 3730608.000000, 2848.250000, 8177.000000, 8204.000000, 8195.000000
1877, 3730768.000000, 2869.500000, 8156.000000, 8191.000000, 8162.000000
1878, 3730928.000000, 2843.750000, 8151.000000, 8188.000000, 8158.000000
1879, 3731088.000000, 2782.750000, 8152.000000, 8188.000000, 8157.000000
1880, 3731248.000000, 2677.000000, 8147.000000, 8193.000000, 8158.000000
1881, 3731408.000000, 2526.750000, 8297.000000, 8240.000000, 8271.000000
1882, 3731568.000000, 2374.000000, 8299.000000, 8125.000000, 8215.000000
1883, 3731728.000000, 2263.750000, 8132.000000, 8110.000000, 8095.000000
1884, 3731888.000000, 2212.250000, 8146.000000, 8195.000000, 8160.000000
1885, 3732048.000000, 2194.750000, 8145.000000, 8203.000000, 8167.000000
1886, 3732208.000000, 2175.000000, 8154.000000, 8208.000000, 8178.000000
1887, 3732368.000000, 2121.500000, 8160.000000, 8207.000000, 8179.000000
1888, 3732528.000000, 2029.000000, 8167.000000, 8209.000000, 8184.000000
1889, 3732688.000000, 1911.500000, 8177.000000, 8212.000000, 8191.000000
1890, 3732848.000000, 1783.750000, 8189.000000, 8218.000000, 8203.000000
1891, 3733008.000000, 1662.750000, 8206.000000, 8220.000000, 8211.000000
1892, 3733168.000000, 1557.750000, 8231.000000, 8222.000000, 8223.000000
1893, 3733328.000000, 1469.750000, 8247.000000, 8223.000000, 8231.000000
1894, 3733488.000000, 1391.500000, 8251.000000, 8224.000000, 8236.000000
1895, 3733648.000000, 1325.250000, 8219.000000, 8224.000000, 8227.000000
1896, 3733808.000000, 1271.000000, 8174.000000, 8219.000000, 8208.000000
1897, 3733968.000000, 1227.500000, 8146.000000, 8207.000000, 8184.000000
1898, 3734128.000000, 1193.500000, 8134.000000, 8199.000000, 8170.000000
1899, 3734288.000000, 1158.000000, 8134.000000, 8199.000000, 8170.000000
1900, 3734448.000000, 1112.000000, 8137.000000, 8198.000000, 8171.000000
1901, 3734608.000000, 1054.500000, 8140.000000, 8197.000000, 8172.000000
1902, 3734768.000000, 989.500000, 8140.000000, 8195.000000, 8168.000000
1903, 3734928.000000, 923.000000, 8141.000000, 8190.000000, 8165.000000
1904, 3735088.000000, 863.750000, 8141.000000, 8191.000000, 8166.000000
1905, 3735248.000000, 820.500000, 8143.000000, 8190.000000, 8165.000000
1906, 3735408.000000, 852.250000, 8144.000000, 8190.000000, 8165.000000
1907, 3735568.000000, 1026.000000, 8142.000000, 8189.000000, 8163.000000
1908, 3735728.000000, 1388.250000, 8142.000000, 8185.000000, 8159.000000
1909, 3735888.000000, 1845.500000, 8149.000000, 8192.000000, 8173.000000
1910, 3736048.000000, 2267.250000, 8152.000000, 8196.000000, 8185.000000
1911, 3736208.000000, 2542.750000, 8157.000000, 8198.000000, 8192.000000
1912, 3736368.000000, 2671.750000, 8172.000000, 8200.000000, 8198.000000
1913, 3736528.000000, 2698.250000, 8151.000000, 8185.000000, 8161.000000
1914, 3736688.000000, 2673.750000, 8145.000000, 8179.000000, 8149.000000
1915, 3736848.000000, 2615.500000, 8145.000000, 8179.000000, 8149.000000
1916, 3737008.000000, 2512.250000, 8148.000000, 8182.000000, 8154.000000
1917, 3737168.000000, 2368.750000, 8173.000000, 8216.000000, 8195.000000
1918, 3737328.000000, 2227.750000, 8446.000000, 8146.000000, 8276.000000
1919, 3737488.000000, 2135.250000, 8142.000000, 8062.000000, 8070.000000
1920, 3737648.000000, 2097.750000, 8143.000000, 8172.000000, 8147.000000
1921, 3737808.000000, 2095.250000, 8143.000000, 8190.000000, 8159.000000
1922, 3737968.000000, 2086.750000, 8150.000000, 8195.000000, 8168.000000
1923, 3738128.000000, 2053.000000, 8156.000000, 8196.000000, 8173.000000
1924, 3738288.000000, 1979.500000, 8165.000000, 8198.000000, 8179.000000
1925, 3738448.000000, 1880.000000, 8175.000000, 8203.000000, 8187.000000
1926, 3738608.000000, 1767.500000, 8186.000000, 8205.000000, 8194.000000
1927, 3738768.000000, 1661.750000, 8203.000000, 8209.000000, 8204.000000
1928, 3738928.000000, 1566.000000, 8227.000000, 8211.000000, 8217.000000
1929, 3739088.000000, 1484.750000, 8248.000000, 8214.000000, 8230.000000
1930, 3739248.000000, 1420.000000, 8257.000000, 8216.000000, 8238.000000
1931, 3739408.000000, 1367.750000, 8242.000000, 8215.000000, 8235.000000
1932, 3739568.000000, 1331.250000, 8195.000000, 8210.000000, 8215.000000
1933, 3739728.000000, 1298.500000, 8159.000000, 8199.000000, 8188.000000
1934, 3739888.000000, 1273.500000, 8144.000000, 8191.000000, 8174.000000
1935, 3740048.000000, 1244.750000, 8142.000000, 8191.000000, 8173.000000
1936, 3740208.000000, 1207.250000, 8146.000000, 8190.000000, 8175.000000
1937, 3740368.000000, 1156.250000, 8146.000000, 8187.000000, 8170.000000
1938, 3740528.000000, 1100.500000, 8148.000000, 8186.000000, 8172.000000
1939, 3740688.000000, 1045.000000, 8150.000000, 8186.000000, 8171.000000
1940, 3740848.000000, 995.000000, 8152.000000, 8186.000000, 8171.000000
1941, 3741008.000000, 951.500000, 8151.000000, 8186.000000, 8172.000000
1942, 3741168.000000, 937.500000, 8152.000000, 8184.000000, 8169.000000
1943, 3741328.000000, 1032.750000, 8152.000000, 8184.000000, 8167.000000
1944, 3741488.000000, 1290.250000, 8154.000000, 8184.000000, 8170.000000
1945, 3741648.000000, 1696.250000, 8155.000000, 8185.000000, 8172.000000
1946, 3741808.000000, 2123.500000, 8161.000000, 8191.000000, 8184.000000
1947, 3741968.000000, 2461.000000, 8165.000000, 8195.000000, 8196.000000
1948, 3742128.000000, 2645.750000, 8168.000000, 8195.000000, 8198.000000
1949, 3742288.000000, 2709.250000, 8183.000000, 8196.000000, 8201.000000
1950, 3742448.000000, 2704.250000, 8162.000000, 8183.000000, 8168.000000
1951, 3742608.000000, 2661.750000, 8158.000000, 8180.000000, 8163.000000
1952, 3742768.000000, 2585.500000, 8158.000000, 8179.000000, 8160.000000
1953, 3742928.000000, 2466.250000, 8160.000000, 8178.000000, 8160.000000
1954, 3743088.000000, 2328.500000, 8224.000000, 8225.000000, 8229.000000
1955, 3743248.000000, 2216.250000, 8396.000000, 8132.000000, 8259.000000
1956, 3743408.000000, 2159.750000, 8143.000000, 8077.000000, 8083.000000
1957, 3743568.000000, 2148.250000, 8153.000000, 8181.000000, 8160.000000
1958, 3743728.000000, 2151.000000, 8152.000000, 8190.000000, 8167.000000
1959, 3743888.000000, 2130.500000, 8160.000000, 8195.000000, 8175.000000
1960, 3744048.000000, 2079.000000, 8170.000000, 8202.000000, 8189.000000
1961, 3744208.000000, 1991.250000, 8178.000000, 8205.000000, 8195.000000
1962, 3744368.000000, 1886.750000, 8188.000000, 8207.000000, 8202.000000
1963, 3744528.000000, 1777.500000, 8196.000000, 8210.000000, 8208.000000
1964, 3744688.000000, 1675.750000, 8216.000000, 8219.000000, 8224.000000
1965, 3744848.000000, 1589.000000, 8237.000000, 8225.000000, 8240.000000
1966, 3745008.000000, 1513.000000, 8261.000000, 8228.000000, 8255.000000
1967, 3745168.000000, 1454.000000, 8262.000000, 8230.000000, 8260.000000
1968, 3745328.000000, 1405.500000, 8244.000000, 8235.000000, 8259.000000
1969, 3745488.000000, 1367.750000, 8207.000000, 8230.000000, 8245.000000
1970, 3745648.000000, 1337.750000, 8173.000000, 8222.000000, 8226.000000
1971, 3745808.000000, 1314.750000, 8159.000000, 8217.000000, 8214.000000
1972, 3745968.000000, 1286.250000, 8154.000000, 8220.000000, 8216.000000
1973, 3746128.000000, 1248.250000, 8159.000000, 8219.000000, 8216.000000
1974, 3746288.000000, 1198.250000, 8160.000000, 8220.000000, 8218.000000
1975, 3746448.000000, 1142.000000, 8158.000000, 8218.000000, 8220.000000
1976, 3746608.000000, 1082.750000, 8164.000000, 8221.000000, 8223.000000
1977, 3746768.000000, 1033.250000, 8164.000000, 8218.000000, 8220.000000
1978, 3746928.000000, 993.250000, 8165.000000, 8220.000000, 8221.000000
1979, 3747088.000000, 988.000000, 8160.000000, 8221.000000, 8221.000000
1980, 3747248.000000, 1088.000000, 8164.000000, 8221.000000, 8221.000000
1981, 3747408.000000, 1352.250000, 8163.000000, 8220.000000, 8220.000000
1982, 3747568.000000, 1754.250000, 8165.000000, 8219.000000, 8222.000000
1983, 3747728.000000, 2169.500000, 8169.000000, 8226.000000, 8236.000000
1984, 3747888.000000, 2482.500000, 8172.000000, 8227.000000, 8239.000000
1985, 3748048.000000, 2641.250000, 8190.000000, 8234.000000, 8262.000000
1986, 3748208.000000, 2673.500000, 8186.000000, 8225.000000, 8240.000000
1987, 3748368.000000, 2635.750000, 8171.000000, 8211.000000, 8212.000000
1988, 3748528.000000, 2566.750000, 8165.000000, 8209.000000, 8206.000000
1989, 3748688.000000, 2464.500000, 8159.000000, 8213.000000, 8208.000000
1990, 3748848.000000, 2327.000000, 8156.000000, 8218.000000, 8209.000000
1991, 3749008.000000, 2180.750000, 8359.000000, 8256.000000, 8334.000000
1992, 3749168.000000, 2070.750000, 8213.000000, 8180.000000, 8253.000000
1993, 3749328.000000, 2019.500000, 8131.000000, 8142.000000, 8148.000000
1994, 3749488.000000, 2007.000000, 8160.000000, 8213.000000, 8205.000000
1995, 3749648.000000, 2003.500000, 8162.000000, 8217.000000, 8212.000000
1996, 3749808.000000, 1976.000000, 8164.000000, 8222.000000, 8219.000000
1997, 3749968.000000, 1913.250000, 8180.000000, 8223.000000, 8224.000000
1998, 3750128.000000, 1829.250000, 8184.000000, 8219.000000, 8225.000000
1999, 3750288.000000, 1730.000000, 8194.000000, 8225.000000, 8233.000000
2000, 3750448.000000, 1632.500000, 8208.000000, 8226.000000, 8238.000000
2001, 3750608.000000, 1540.500000, 8227.000000, 8228.000000, 8248.000000
2002, 3750768.000000, 1459.750000, 8250.000000, 8224.000000, 8250.000000
2003, 3750928.000000, 1388.500000, 8257.000000, 8226.000000, 8260.000000
2004, 3751088.000000, 1327.500000, 8272.000000, 8221.000000, 8263.000000
2005, 3751248.000000, 1283.250000, 8243.000000, 8226.000000, 8259.000000
2006, 3751408.000000, 1249.000000, 8199.000000, 8228.000000, 8248.000000
2007, 3751568.000000, 1224.000000, 8171.000000, 8219.000000, 8230.000000
2008, 3751728.000000, 1204.250000, 8157.000000, 8211.000000, 8213.000000
2009, 3751888.000000, 1180.500000, 8155.000000, 8214.000000, 8214.000000
2010, 3752048.000000, 1154.750000, 8161.000000, 8213.000000, 8217.000000
2011, 3752208.000000, 1117.750000, 8163.000000, 8213.000000, 8215.000000
2012, 3752368.000000, 1075.500000, 8163.000000, 8222.000000, 8226.000000
2013, 3752528.000000, 1023.000000, 8163.000000, 8221.000000, 8223.000000
2014, 3752688.000000, 970.500000, 8164.000000, 8221.000000, 8225.000000
2015, 3752848.000000, 919.500000, 8166.000000, 8220.000000, 8222.000000
2016, 3753008.000000, 899.500000, 8166.000000, 8221.000000, 8223.000000
2017, 3753168.000000, 990.500000, 8168.000000, 8220.000000, 8219.000000
2018, 3753328.000000, 1293.250000, 8165.000000, 8225.000000, 8232.000000
2019, 3753488.000000, 1841.750000, 8171.000000, 8228.000000, 8241.000000
2020, 3753648.000000, 2281.500000, 8187.000000, 8233.000000, 8255.000000
2021, 3753808.000000, 2445.500000, 8181.000000, 8226.000000, 8238.000000
2022, 3753968.000000, 2459.250000, 8169.000000, 8214.000000, 8212.000000
2023, 3754128.000000, 2409.000000, 8158.000000, 8207.000000, 8198.000000
2024, 3754288.000000, 2318.250000, 8160.000000, 8205.000000, 8197.000000
2025, 3754448.000000, 2193.000000, 8162.000000, 8208.000000, 8197.000000
2026, 3754608.000000, 2053.750000, 8268.000000, 8255.000000, 8289.000000
2027, 3754768.000000, 1944.250000, 8290.000000, 8186.000000, 8274.000000
2028, 3754928.000000, 1903.500000, 8122.000000, 8118.000000, 8115.000000
2029, 3755088.000000, 1918.500000, 8156.000000, 8202.000000, 8187.000000
2030, 3755248.000000, 1951.250000, 8162.000000, 8211.000000, 8198.000000
2031, 3755408.000000, 1964.500000, 8171.000000, 8216.000000, 8207.000000
2032, 3755568.000000, 1942.750000, 8179.000000, 8216.000000, 8209.000000
2033, 3755728.000000, 1886.500000, 8184.000000, 8218.000000, 8212.000000
2034, 3755888.000000, 1805.500000, 8199.000000, 8217.000000, 8217.000000
2035, 3756048.000000, 1718.500000, 8208.000000, 8219.000000, 8223.000000
2036, 3756208.000000, 1634.250000, 8227.000000, 8219.000000, 8231.000000
2037, 3756368.000000, 1557.250000, 8254.000000, 8218.000000, 8238.000000
2038, 3756528.000000, 1499.000000, 8269.000000, 8214.000000, 8240.000000
2039, 3756688.000000, 1458.500000, 8278.000000, 8214.000000, 8244.000000
2040, 3756848.000000, 1429.250000, 8251.000000, 8219.000000, 8241.000000
2041, 3757008.000000, 1413.750000, 8208.000000, 8221.000000, 8231.000000
2042, 3757168.000000, 1400.500000, 8175.000000, 8212.000000, 8210.000000
2043, 3757328.000000, 1383.500000, 8161.000000, 8205.000000, 8196.000000
2044, 3757488.000000, 1356.000000, 8157.000000, 8201.000000, 8189.000000
2045, 3757648.000000, 1317.000000, 8162.000000, 8201.000000, 8190.000000
2046, 3757808.000000, 1265.250000, 8168.000000, 8202.000000, 8193.000000
2047, 3757968.000000, 1207.000000, 8166.000000, 8201.000000, 8193.000000
2048, 3758128.000000, 1145.250000, 8168.000000, 8196.000000, 8187.000000
2049, 3758288.000000, 1094.250000, 8167.000000, 8198.000000, 8185.000000
2050, 3758448.000000, 1085.250000, 8169.000000, 8196.000000, 8186.000000
2051, 3758608.000000, 1181.250000, 8170.000000, 8198.000000, 8189.000000
2052, 3758768.000000, 1443.250000, 8168.000000, 8195.000000, 8184.000000
2053, 3758928.000000, 1817.750000, 8169.000000, 8194.000000, 8182.000000
2054, 3759088.000000, 2192.000000, 8176.000000, 8199.000000, 8196.000000
2055, 3759248.000000, 2443.500000, 8178.000000, 8203.000000, 8203.000000
2056, 3759408.000000, 2561.750000, 8199.000000, 8211.000000, 8227.000000
2057, 3759568.000000, 2573.000000, 8189.000000, 8198.000000, 8193.000000
2058, 3759728.000000, 2535.250000, 8175.000000, 8186.000000, 8170.000000
2059, 3759888.000000, 2465.500000, 8168.000000, 8184.000000, 8165.000000
2060, 3760048.000000, 2357.000000, 8171.000000, 8184.000000, 8167.000000
2061, 3760208.000000, 2218.500000, 8169.000000, 8201.000000, 8179.000000
2062, 3760368.000000, 2090.000000, 8445.000000, 8208.000000, 8318.000000
2063, 3760528.000000, 2015.500000, 8178.000000, 8101.000000, 8139.000000
2064, 3760688.000000, 2000.750000, 8151.000000, 8138.000000, 8128.000000
2065, 3760848.000000, 2021.000000, 8166.000000, 8190.000000, 8166.000000
2066, 3761008.000000, 2031.000000, 8172.000000, 8195.000000, 8175.000000
2067, 3761168.000000, 2008.250000, 8179.000000, 8201.000000, 8186.000000
2068, 3761328.000000, 1947.250000, 8187.000000, 8200.000000, 8186.000000
2069, 3761488.000000, 1858.250000, 8193.000000, 8201.000000, 8191.000000
2070, 3761648.000000, 1759.250000, 8205.000000, 8205.000000, 8199.000000
2071, 3761808.000000, 1659.500000, 8217.000000, 8209.000000, 8209.000000
2072, 3761968.000000, 1570.500000, 8238.000000, 8212.000000, 8220.000000
2073, 3762128.000000, 1491.500000, 8262.000000, 8212.000000, 8228.000000
2074, 3762288.000000, 1426.500000, 8275.000000, 8212.000000, 8232.000000
2075, 3762448.000000, 1375.750000, 8271.000000, 8213.000000, 8237.000000
2076, 3762608.000000, 1341.750000, 8238.000000, 8213.000000, 8227.000000
2077, 3762768.000000, 1322.250000, 8196.000000, 8206.000000, 8206.000000
2078, 3762928.000000, 1306.500000, 8173.000000, 8199.000000, 8188.000000
2079, 3763088.000000, 1291.750000, 8162.000000, 8190.000000, 8175.000000
2080, 3763248.000000, 1266.750000, 8163.000000, 8191.000000, 8175.000000
2081, 3763408.000000, 1230.000000, 8164.000000, 8194.000000, 8181.000000
2082, 3763568.000000, 1186.750000, 8166.000000, 8194.000000, 8180.000000
2083, 3763728.000000, 1138.250000, 8169.000000, 8191.000000, 8177.000000
2084, 3763888.000000, 1089.500000, 8170.000000, 8189.000000, 8176.000000
2085, 3764048.000000, 1070.250000, 8171.000000, 8188.000000, 8175.000000
2086, 3764208.000000, 1147.000000, 8172.000000, 8187.000000, 8173.000000
2087, 3764368.000000, 1406.750000, 8172.000000, 8188.000000, 8176.000000
2088, 3764528.000000, 1816.750000, 8170.000000, 8185.000000, 8170.000000
2089, 3764688.000000, 2262.000000, 8178.000000, 8193.000000, 8187.000000
2090, 3764848.000000, 2601.750000, 8182.000000, 8198.000000, 8200.000000
2091, 3765008.000000, 2794.250000, 8195.000000, 8204.000000, 8217.000000
2092, 3765168.000000, 2855.500000, 8194.000000, 8196.000000, 8198.000000
2093, 3765328.000000, 2851.500000, 8174.000000, 8183.000000, 8166.000000
2094, 3765488.000000, 2831.500000, 8167.000000, 8178.000000, 8155.000000
2095, 3765648.000000, 2788.250000, 8172.000000, 8180.000000, 8158.000000
2096, 3765808.000000, 2711.000000, 8168.000000, 8185.000000, 8162.000000
2097, 3765968.000000, 2595.000000, 8317.000000, 8228.000000, 8272.000000
2098, 3766128.000000, 2487.500000, 8297.000000, 8114.000000, 8199.000000
2099, 3766288.000000, 2425.250000, 8144.000000, 8095.000000, 8086.000000
2100, 3766448.000000, 2415.500000, 8164.000000, 8182.000000, 8157.000000
2101, 3766608.000000, 2425.750000, 8168.000000, 8192.000000, 8169.000000
2102, 3766768.000000, 2425.000000, 8176.000000, 8195.000000, 8176.000000
2103, 3766928.000000, 2391.500000, 8182.000000, 8198.000000, 8181.000000
2104, 3767088.000000, 2322.250000, 8188.000000, 8198.000000, 8185.000000
2105, 3767248.000000, 2229.250000, 8198.000000, 8202.000000, 8191.000000
2106, 3767408.000000, 2132.500000, 8211.000000, 8207.000000, 8203.000000
2107, 3767568.000000, 2039.000000, 8230.000000, 8212.000000, 8216.000000
2108, 3767728.000000, 1954.000000, 8256.000000, 8213.000000, 8225.000000
2109, 3767888.000000, 1883.750000, 8276.000000, 8215.000000, 8236.000000
2110, 3768048.000000, 1829.000000, 8277.000000, 8215.000000, 8239.000000
2111, 3768208.000000, 1786.500000, 8248.000000, 8213.000000, 8229.000000
2112, 3768368.000000, 1755.500000, 8202.000000, 8205.000000, 8203.000000
2113, 3768528.000000, 1730.250000, 8176.000000, 8195.000000, 8182.000000
2114, 3768688.000000, 1701.000000, 8164.000000, 8187.000000, 8168.000000
2115, 3768848.000000, 1667.750000, 8162.000000, 8187.000000, 8168.000000
2116, 3769008.000000, 1620.250000, 8165.000000, 8187.000000, 8170.000000
2117, 3769168.000000, 1565.250000, 8168.000000, 8187.000000, 8172.000000
2118, 3769328.000000, 1507.750000, 8170.000000, 8183.000000, 8168.000000
2119, 3769488.000000, 1445.500000, 8171.000000, 8182.000000, 8167.000000
2120, 3769648.000000, 1395.000000, 8174.000000, 8181.000000, 8166.000000
2121, 3769808.000000, 1418.250000, 8173.000000, 8180.000000, 8165.000000
2122, 3769968.000000, 1604.750000, 8175.000000, 8177.000000, 8163.000000
2123, 3770128.000000, 1957.000000, 8176.000000, 8172.000000, 8157.000000
2124, 3770288.000000, 2395.250000, 8176.000000, 8170.000000, 8153.000000
2125, 3770448.000000, 2770.500000, 8177.000000, 8173.000000, 8160.000000
2126, 3770608.000000, 3008.500000, 8189.000000, 8181.000000, 8182.000000
2127, 3770768.000000, 3105.250000, 8188.000000, 8181.000000, 8183.000000
2128, 3770928.000000, 3119.750000, 8204.000000, 8182.000000, 8189.000000
2129, 3771088.000000, 3101.250000, 8185.000000, 8170.000000, 8155.000000
2130, 3771248.000000, 3066.250000, 8176.000000, 8164.000000, 8143.000000
2131, 3771408.000000, 3002.000000, 8178.000000, 8164.000000, 8144.000000
2132, 3771568.000000, 2884.250000, 8178.000000, 8165.000000, 8145.000000
2133, 3771728.000000, 2746.750000, 8200.000000, 8200.000000, 8185.000000
2134, 3771888.000000, 2629.750000, 8486.000000, 8126.000000, 8269.000000
2135, 3772048.000000, 2564.250000, 8173.000000, 8029.000000, 8045.000000
2136, 3772208.000000, 2538.000000, 8169.000000, 8159.000000, 8141.000000
2137, 3772368.000000, 2519.250000, 8170.000000, 8181.000000, 8156.000000
2138, 3772528.000000, 2479.250000, 8175.000000, 8182.000000, 8160.000000
2139, 3772688.000000, 2408.500000, 8183.000000, 8184.000000, 8167.000000
2140, 3772848.000000, 2304.250000, 8191.000000, 8187.000000, 8174.000000
2141, 3773008.000000, 2189.750000, 8201.000000, 8189.000000, 8182.000000
2142, 3773168.000000, 2080.500000, 8210.000000, 8193.000000, 8190.000000
2143, 3773328.000000, 1979.250000, 8227.000000, 8197.000000, 8201.000000
2144, 3773488.000000, 1898.750000, 8246.000000, 8199.000000, 8210.000000
2145, 3773648.000000, 1832.000000, 8270.000000, 8203.000000, 8224.000000
2146, 3773808.000000, 1774.500000, 8281.000000, 8205.000000, 8233.000000
2147, 3773968.000000, 1722.000000, 8267.000000, 8203.000000, 8228.000000
2148, 3774128.000000, 1677.750000, 8225.000000, 8195.000000, 8204.000000
2149, 3774288.000000, 1644.250000, 8189.000000, 8184.000000, 8179.000000
2150, 3774448.000000, 1614.250000, 8172.000000, 8178.000000, 8164.000000
2151, 3774608.000000, 1577.500000, 8168.000000, 8176.000000, 8161.000000
2152, 3774768.000000, 1527.500000, 8168.000000, 8177.000000, 8164.000000
2153, 3774928.000000, 1466.750000, 8169.000000, 8174.000000, 8160.000000
2154, 3775088.000000, 1400.750000, 8172.000000, 8171.000000, 8159.000000
2155, 3775248.000000, 1332.750000, 8174.000000, 8172.000000, 8161.000000
2156, 3775408.000000, 1275.750000, 8175.000000, 8171.000000, 8159.000000
2157, 3775568.000000, 1276.000000, 8177.000000, 8172.000000, 8163.000000
2158, 3775728.000000, 1406.750000, 8175.000000, 8170.000000, 8158.000000
2159, 3775888.000000, 1738.250000, 8175.000000, 8168.000000, 8156.000000
2160, 3776048.000000, 2197.750000, 8177.000000, 8167.000000, 8156.000000
2161, 3776208.000000, 2653.250000, 8175.000000, 8168.000000, 8154.000000
2162, 3776368.000000, 2978.750000, 8187.000000, 8177.000000, 8179.000000
2163, 3776528.000000, 3157.000000, 8186.000000, 8180.000000, 8181.000000
2164, 3776688.000000, 3212.250000, 8203.000000, 8182.000000, 8198.000000
2165, 3776848.000000, 3218.250000, 8197.000000, 8172.000000, 8172.000000
2166, 3777008.000000, 3203.250000, 8178.000000, 8161.000000, 8145.000000
2167, 3777168.000000, 3161.500000, 8174.000000, 8159.000000, 8140.000000
2168, 3777328.000000, 3074.000000, 8175.000000, 8160.000000, 8142.000000
2169, 3777488.000000, 2944.500000, 8163.000000, 8167.000000, 8139.000000
2170, 3777648.000000, 2820.250000, 8401.000000, 8199.000000, 8289.000000
2171, 3777808.000000, 2738.500000, 8257.000000, 8042.000000, 8120.000000
2172, 3777968.000000, 2708.750000, 8166.000000, 8116.000000, 8118.000000
2173, 3778128.000000, 2699.000000, 8166.000000, 8170.000000, 8146.000000
2174, 3778288.000000, 2680.250000, 8170.000000, 8176.000000, 8155.000000
2175, 3778448.000000, 2621.750000, 8175.000000, 8180.000000, 8162.000000
2176, 3778608.000000, 2526.000000, 8183.000000, 8185.000000, 8172.000000
2177, 3778768.000000, 2405.250000, 8193.000000, 8189.000000, 8181.000000
2178, 3778928.000000, 2278.750000, 8200.000000, 8189.000000, 8182.000000
2179, 3779088.000000, 2156.750000, 8212.000000, 8193.000000, 8190.000000
2180, 3779248.000000, 2051.000000, 8231.000000, 8198.000000, 8205.000000
2181, 3779408.000000, 1963.250000, 8256.000000, 8203.000000, 8219.000000
2182, 3779568.000000, 1889.750000, 8273.000000, 8207.000000, 8232.000000
2183, 3779728.000000, 1827.250000, 8272.000000, 8206.000000, 8234.000000
2184, 3779888.000000, 1776.500000, 8238.000000, 8202.000000, 8218.000000
2185, 3780048.000000, 1733.500000, 8194.000000, 8193.000000, 8193.000000
2186, 3780208.000000, 1696.750000, 8170.000000, 8185.000000, 8174.000000
2187, 3780368.000000, 1651.750000, 8163.000000, 8181.000000, 8167.000000
2188, 3780528.000000, 1596.750000, 8159.000000, 8178.000000, 8161.000000
2189, 3780688.000000, 1529.500000, 8160.000000, 8178.000000, 8162.000000
2190, 3780848.000000, 1456.250000, 8162.000000, 8178.000000, 8163.000000
2191, 3781008.000000, 1387.250000, 8166.000000, 8179.000000, 8165.000000
2192, 3781168.000000, 1322.250000, 8169.000000, 8177.000000, 8165.000000
2193, 3781328.000000, 1275.000000, 8168.000000, 8177.000000, 8164.000000
2194, 3781488.000000, 1302.500000, 8168.000000, 8175.000000, 8162.000000
2195, 3781648.000000, 1474.500000, 8170.000000, 8176.000000, 8165.000000
2196, 3781808.000000, 1832.750000, 8169.000000, 8176.000000, 8164.000000
2197, 3781968.000000, 2276.000000, 8172.000000, 8177.000000, 8167.000000
2198, 3782128.000000, 2678.500000, 8171.000000, 8177.000000, 8166.000000
2199, 3782288.000000, 2932.750000, 8175.000000, 8183.000000, 8179.000000
2200, 3782448.000000, 3042.500000, 8179.000000, 8189.000000, 8191.000000
2201, 3782608.000000, 3059.000000, 8186.000000, 8191.000000, 8202.000000
2202, 3782768.000000, 3039.750000, 8197.000000, 8193.000000, 8199.000000
2203, 3782928.000000, 3001.250000, 8175.000000, 8180.000000, 8168.000000
2204, 3783088.000000, 2922.750000, 8169.000000, 8173.000000, 8155.000000
2205, 3783248.000000, 2796.500000, 8169.000000, 8173.000000, 8155.000000
2206, 3783408.000000, 2651.250000, 8167.000000, 8175.000000, 8154.000000
2207, 3783568.000000, 2534.250000, 8258.000000, 8228.000000, 8249.000000
2208, 3783728.000000, 2472.750000, 8388.000000, 8115.000000, 8243.000000
2209, 3783888.000000, 2456.750000, 8148.000000, 8076.000000, 8078.000000
2210, 3784048.000000, 2450.250000, 8160.000000, 8179.000000, 8157.000000
2211, 3784208.000000, 2418.250000, 8164.000000, 8190.000000, 8169.000000
2212, 3784368.000000, 2348.250000, 8169.000000, 8195.000000, 8179.000000
2213, 3784528.000000, 2244.500000, 8175.000000, 8196.000000, 8182.000000
2214, 3784688.000000, 2127.750000, 8182.000000, 8198.000000, 8187.000000
2215, 3784848.000000, 2009.250000, 8191.000000, 8200.000000, 8191.000000
2216, 3785008.000000, 1912.000000, 8204.000000, 8205.000000, 8202.000000
2217, 3785168.000000, 1829.500000, 8220.000000, 8210.000000, 8214.000000
2218, 3785328.000000, 1759.750000, 8246.000000, 8215.000000, 8230.000000
2219, 3785488.000000, 1695.500000, 8263.000000, 8216.000000, 8238.000000
2220, 3785648.000000, 1635.500000, 8268.000000, 8218.000000, 8244.000000
2221, 3785808.000000, 1587.500000, 8247.000000, 8220.000000, 8242.000000
2222, 3785968.000000, 1547.250000, 8204.000000, 8215.000000, 8224.000000
2223, 3786128.000000, 1517.000000, 8173.000000, 8203.000000, 8198.000000
2224, 3786288.000000, 1486.000000, 8160.000000, 8195.000000, 8185.000000
2225, 3786448.000000, 1449.500000, 8157.000000, 8195.000000, 8183.000000
2226, 3786608.000000, 1398.500000, 8161.000000, 8195.000000, 8184.000000
2227, 3786768.000000, 1337.500000, 8160.000000, 8196.000000, 8184.000000
2228, 3786928.000000, 1271.750000, 8164.000000, 8196.000000, 8187.000000
2229, 3787088.000000, 1209.500000, 8164.000000, 8192.000000, 8183.000000
2230, 3787248.000000, 1157.750000, 8165.000000, 8192.000000, 8185.000000
2231, 3787408.000000, 1143.750000, 8166.000000, 8192.000000, 8184.000000
2232, 3787568.000000, 1238.000000, 8167.000000, 8193.000000, 8186.000000
2233, 3787728.000000, 1508.000000, 8164.000000, 8193.000000, 8184.000000
2234, 3787888.000000, 1923.000000, 8167.000000, 8191.000000, 8184.000000
2235, 3788048.000000, 2357.250000, 8167.000000, 8191.000000, 8184.000000
2236, 3788208.000000, 2685.500000, 8176.000000, 8200.000000, 8204.000000
2237, 3788368.000000, 2860.750000, 8179.000000, 8204.000000, 8212.000000
2238, 3788528.000000, 2909.000000, 8196.000000, 8210.000000, 8230.000000
2239, 3788688.000000, 2888.250000, 8182.000000, 8195.000000, 8195.000000
2240, 3788848.000000, 2839.250000, 8168.000000, 8185.000000, 8174.000000
2241, 3789008.000000, 2760.750000, 8170.000000, 8186.000000, 8173.000000
2242, 3789168.000000, 2641.250000, 8170.000000, 8187.000000, 8176.000000
2243, 3789328.000000, 2505.500000, 8160.000000, 8200.000000, 8182.000000
2244, 3789488.000000, 2399.500000, 8457.000000, 8208.000000, 8334.000000
2245, 3789648.000000, 2348.750000, 8204.000000, 8083.000000, 8146.000000
2246, 3789808.000000, 2335.500000, 8156.000000, 8152.000000, 8155.000000
2247, 3789968.000000, 2332.500000, 8163.000000, 8194.000000, 8178.000000
2248, 3790128.000000, 2312.500000, 8167.000000, 8201.000000, 8186.000000
2249, 3790288.000000, 2257.500000, 8172.000000, 8202.000000, 8190.000000
2250, 3790448.000000, 2167.250000, 8181.000000, 8205.000000, 8197.000000
2251, 3790608.000000, 2059.750000, 8188.000000, 8207.000000, 8202.000000
2252, 3790768.000000, 1945.500000, 8199.000000, 8213.000000, 8215.000000
2253, 3790928.000000, 1835.250000, 8214.000000, 8213.000000, 8219.000000
2254, 3791088.000000, 1746.000000, 8233.000000, 8217.000000, 8231.000000
2255, 3791248.000000, 1671.500000, 8256.000000, 8217.000000, 8239.000000
2256, 3791408.000000, 1612.500000, 8271.000000, 8221.000000, 8251.000000
2257, 3791568.000000, 1556.000000, 8266.000000, 8221.000000, 8251.000000
2258, 3791728.000000, 1511.000000, 8230.000000, 8220.000000, 8240.000000
2259, 3791888.000000, 1473.750000, 8189.000000, 8211.000000, 8216.000000
2260, 3792048.000000, 1443.750000, 8167.000000, 8203.000000, 8200.000000
2261, 3792208.000000, 1412.000000, 8158.000000, 8198.000000, 8189.000000
2262, 3792368.000000, 1366.250000, 8161.000000, 8198.000000, 8191.000000
2263, 3792528.000000, 1308.500000, 8163.000000, 8197.000000, 8191.000000
2264, 3792688.000000, 1243.500000, 8165.000000, 8195.000000, 8188.000000
2265, 3792848.000000, 1178.000000, 8163.000000, 8193.000000, 8185.000000
2266, 3793008.000000, 1122.250000, 8167.000000, 8195.000000, 8188.000000
2267, 3793168.000000, 1072.250000, 8168.000000, 8194.000000, 8187.000000
2268, 3793328.000000, 1055.250000, 8164.000000, 8189.000000, 8180.000000
2269, 3793488.000000, 1141.250000, 8167.000000, 8189.000000, 8182.000000
2270, 3793648.000000, 1384.000000, 8166.000000, 8187.000000, 8179.000000
2271, 3793808.000000, 1770.000000, 8169.000000, 8187.000000, 8181.000000
2272, 3793968.000000, 2170.000000, 8170.000000, 8189.000000, 8184.000000
2273, 3794128.000000, 2466.750000, 8179.000000, 8196.000000, 8204.000000
2274, 3794288.000000, 2612.250000, 8179.000000, 8193.000000, 8203.000000
2275, 3794448.000000, 2643.000000, 8197.000000, 8200.000000, 8218.000000
2276, 3794608.000000, 2606.250000, 8180.000000, 8187.000000, 8184.000000
2277, 3794768.000000, 2533.500000, 8169.000000, 8178.000000, 8166.000000
2278, 3794928.000000, 2424.500000, 8171.000000, 8177.000000, 8166.000000
2279, 3795088.000000, 2287.250000, 8175.000000, 8177.000000, 8167.000000
2280, 3795248.000000, 2161.000000, 8181.000000, 8203.000000, 8191.000000
2281, 3795408.000000, 2083.750000, 8497.000000, 8157.000000, 8309.000000
2282, 3795568.000000, 2066.750000, 8174.000000, 8061.000000, 8100.000000
2283, 3795728.000000, 2084.000000, 8163.000000, 8163.000000, 8155.000000
2284, 3795888.000000, 2101.500000, 8166.000000, 8185.000000, 8167.000000
2285, 3796048.000000, 2088.500000, 8173.000000, 8192.000000, 8177.000000
2286, 3796208.000000, 2041.000000, 8177.000000, 8194.000000, 8183.000000
2287, 3796368.000000, 1964.750000, 8186.000000, 8196.000000, 8187.000000
2288, 3796528.000000, 1873.750000, 8195.000000, 8199.000000, 8196.000000
2289, 3796688.000000, 1777.000000, 8206.000000, 8200.000000, 8200.000000
2290, 3796848.000000, 1691.000000, 8223.000000, 8204.000000, 8210.000000
2291, 3797008.000000, 1616.000000, 8243.000000, 8209.000000, 8222.000000
2292, 3797168.000000, 1554.500000, 8264.000000, 8211.000000, 8234.000000
2293, 3797328.000000, 1505.000000, 8272.000000, 8212.000000, 8238.000000
2294, 3797488.000000, 1460.000000, 8263.000000, 8210.000000, 8236.000000
2295, 3797648.000000, 1426.250000, 8224.000000, 8207.000000, 8219.000000
2296, 3797808.000000, 1400.250000, 8190.000000, 8201.000000, 8203.000000
2297, 3797968.000000, 1379.500000, 8170.000000, 8193.000000, 8184.000000
2298, 3798128.000000, 1352.750000, 8163.000000, 8190.000000, 8178.000000
2299, 3798288.000000, 1321.000000, 8166.000000, 8187.000000, 8177.000000
2300, 3798448.000000, 1276.750000, 8169.000000, 8186.000000, 8176.000000
2301, 3798608.000000, 1221.250000, 8171.000000, 8185.000000, 8176.000000
2302, 3798768.000000, 1164.500000, 8172.000000, 8185.000000, 8175.000000
2303, 3798928.000000, 1110.750000, 8171.000000, 8184.000000, 8173.000000
2304, 3799088.000000, 1064.750000, 8169.000000, 8181.000000, 8169.000000
2305, 3799248.000000, 1058.000000, 8171.000000, 8181.000000, 8172.000000
2306, 3799408.000000, 1174.000000, 8170.000000, 8180.000000, 8167.000000
2307, 3799568.000000, 1451.500000, 8171.000000, 8182.000000, 8171.000000
2308, 3799728.000000, 1858.000000, 8172.000000, 8183.000000, 8171.000000
2309, 3799888.000000, 2256.750000, 8173.000000, 8185.000000, 8176.000000
2310, 3800048.000000, 2537.250000, 8181.000000, 8191.000000, 8191.000000
2311, 3800208.000000, 2658.750000, 8180.000000, 8191.000000, 8192.000000
2312, 3800368.000000, 2667.750000, 8200.000000, 8198.000000, 8208.000000
2313, 3800528.000000, 2616.750000, 8177.000000, 8182.000000, 8167.000000
2314, 3800688.000000, 2532.500000, 8171.000000, 8176.000000, 8157.000000
2315, 3800848.000000, 2419.750000, 8169.000000, 8175.000000, 8153.000000
2316, 3801008.000000, 2282.750000, 8174.000000, 8177.000000, 8156.000000
2317, 3801168.000000, 2169.500000, 8209.000000, 8220.000000, 8211.000000
2318, 3801328.000000, 2108.500000, 8462.000000, 8143.000000, 8284.000000
2319, 3801488.000000, 2108.000000, 8159.000000, 8063.000000, 8074.000000
2320, 3801648.000000, 2134.000000, 8160.000000, 8172.000000, 8146.000000
2321, 3801808.000000, 2156.250000, 8166.000000, 8189.000000, 8163.000000
2322, 3801968.000000, 2141.000000, 8170.000000, 8194.000000, 8169.000000
2323, 3802128.000000, 2091.500000, 8178.000000, 8196.000000, 8176.000000
2324, 3802288.000000, 2008.750000, 8185.000000, 8200.000000, 8183.000000
2325, 3802448.000000, 1917.750000, 8193.000000, 8199.000000, 8185.000000
2326, 3802608.000000, 1825.000000, 8207.000000, 8203.000000, 8196.000000
2327, 3802768.000000, 1746.000000, 8222.000000, 8208.000000, 8207.000000
2328, 3802928.000000, 1677.750000, 8245.000000, 8212.000000, 8220.000000
2329, 3803088.000000, 1622.250000, 8262.000000, 8215.000000, 8229.000000
2330, 3803248.000000, 1577.250000, 8271.000000, 8214.000000, 8234.000000
2331, 3803408.000000, 1542.500000, 8254.000000, 8214.000000, 8230.000000
2332, 3803568.000000, 1517.500000, 8214.000000, 8211.000000, 8215.000000
2333, 3803728.000000, 1502.250000, 8178.000000, 8200.000000, 8188.000000
2334, 3803888.000000, 1492.250000, 8161.000000, 8190.000000, 8171.000000
2335, 3804048.000000, 1478.250000, 8159.000000, 8189.000000, 8170.000000
2336, 3804208.000000, 1455.000000, 8162.000000, 8190.000000, 8173.000000
2337, 3804368.000000, 1417.250000, 8167.000000, 8191.000000, 8176.000000
2338, 3804528.000000, 1365.500000, 8167.000000, 8188.000000, 8171.000000
2339, 3804688.000000, 1310.500000, 8167.000000, 8187.000000, 8172.000000
2340, 3804848.000000, 1258.000000, 8166.000000, 8185.000000, 8169.000000
2341, 3805008.000000, 1214.500000, 8164.000000, 8184.000000, 8167.000000
2342, 3805168.000000, 1220.750000, 8166.000000, 8184.000000, 8168.000000
2343, 3805328.000000, 1361.250000, 8166.000000, 8185.000000, 8169.000000
2344, 3805488.000000, 1669.000000, 8166.000000, 8183.000000, 8167.000000
2345, 3805648.000000, 2095.500000, 8166.000000, 8184.000000, 8168.000000
2346, 3805808.000000, 2497.500000, 8173.000000, 8193.000000, 8190.000000
2347, 3805968.000000, 2775.000000, 8178.000000, 8197.000000, 8197.000000
2348, 3806128.000000, 2892.000000, 8194.000000, 8203.000000, 8215.000000
2349, 3806288.000000, 2898.500000, 8187.000000, 8192.000000, 8188.000000
2350, 3806448.000000, 2851.750000, 8169.000000, 8179.000000, 8159.000000
2351, 3806608.000000, 2771.250000, 8163.000000, 8179.000000, 8155.000000
2352, 3806768.000000, 2656.000000, 8168.000000, 8179.000000, 8160.000000
2353, 3806928.000000, 2522.750000, 8153.000000, 8189.000000, 8158.000000
2354, 3807088.000000, 2406.000000, 8419.000000, 8221.000000, 8321.000000
2355, 3807248.000000, 2343.500000, 8238.000000, 8075.000000, 8149.000000
2356, 3807408.000000, 2336.250000, 8155.000000, 8137.000000, 8134.000000
2357, 3807568.000000, 2357.500000, 8160.000000, 8190.000000, 8166.000000
2358, 3807728.000000, 2376.250000, 8163.000000, 8197.000000, 8173.000000
2359, 3807888.000000, 2361.250000, 8170.000000, 8200.000000, 8181.000000
2360, 3808048.000000, 2306.000000, 8176.000000, 8200.000000, 8181.000000
2361, 3808208.000000, 2222.500000, 8185.000000, 8205.000000, 8192.000000
2362, 3808368.000000, 2124.000000, 8195.000000, 8208.000000, 8201.000000
2363, 3808528.000000, 2024.750000, 8211.000000, 8213.000000, 8211.000000
2364, 3808688.000000, 1936.500000, 8230.000000, 8217.000000, 8223.000000
2365, 3808848.000000, 1859.000000, 8248.000000, 8219.000000, 8233.000000
2366, 3809008.000000, 1793.000000, 8263.000000, 8225.000000, 8245.000000
2367, 3809168.000000, 1739.000000, 8263.000000, 8228.000000, 8252.000000
2368, 3809328.000000, 1694.750000, 8235.000000, 8229.000000, 8247.000000
2369, 3809488.000000, 1666.250000, 8191.000000, 8221.000000, 8223.000000
2370, 3809648.000000, 1640.250000, 8163.000000, 8212.000000, 8202.000000
2371, 3809808.000000, 1618.500000, 8157.000000, 8210.000000, 8196.000000
2372, 3809968.000000, 1591.000000, 8160.000000, 8210.000000, 8202.000000
2373, 3810128.000000, 1551.000000, 8162.000000, 8212.000000, 8205.000000
2374, 3810288.000000, 1501.250000, 8166.000000, 8213.000000, 8205.000000
2375, 3810448.000000, 1442.000000, 8165.000000, 8210.000000, 8203.000000
2376, 3810608.000000, 1382.750000, 8165.000000, 8210.000000, 8203.000000
2377, 3810768.000000, 1331.250000, 8164.000000, 8211.000000, 8202.000000
2378, 3810928.000000, 1297.750000, 8165.000000, 8210.000000, 8201.000000
2379, 3811088.000000, 1335.750000, 8163.000000, 8207.000000, 8199.000000
2380, 3811248.000000, 1527.500000, 8165.000000, 8209.000000, 8202.000000
2381, 3811408.000000, 1881.750000, 8166.000000, 8208.000000, 8202.000000
2382, 3811568.000000, 2313.250000, 8166.000000, 8214.000000, 8212.000000
2383, 3811728.000000, 2678.250000, 8178.000000, 8218.000000, 8224.000000
2384, 3811888.000000, 2898.250000, 8172.000000, 8217.000000, 8225.000000
2385, 3812048.000000, 2971.500000, 8192.000000, 8218.000000, 8231.000000
2386, 3812208.000000, 2947.000000, 8172.000000, 8207.000000, 8201.000000
2387, 3812368.000000, 2876.250000, 8168.000000, 8205.000000, 8196.000000
2388, 3812528.000000, 2768.000000, 8164.000000, 8201.000000, 8192.000000
2389, 3812688.000000, 2625.500000, 8169.000000, 8204.000000, 8194.000000
2390, 3812848.000000, 2473.500000, 8233.000000, 8241.000000, 8259.000000
2391, 3813008.000000, 2359.750000, 8368.000000, 8180.000000, 8294.000000
2392, 3813168.000000, 2300.500000, 8132.000000, 8110.000000, 8121.000000
2393, 3813328.000000, 2294.500000, 8160.000000, 8200.000000, 8188.000000
2394, 3813488.000000, 2307.000000, 8164.000000, 8213.000000, 8200.000000
2395, 3813648.000000, 2301.750000, 8171.000000, 8214.000000, 8207.000000
2396, 3813808.000000, 2255.750000, 8176.000000, 8216.000000, 8211.000000
2397, 3813968.000000, 2175.500000, 8184.000000, 8222.000000, 8220.000000
2398, 3814128.000000, 2077.250000, 8193.000000, 8220.000000, 8222.000000
2399, 3814288.000000, 1971.500000, 8208.000000, 8224.000000, 8232.000000
2400, 3814448.000000, 1874.000000, 8228.000000, 8225.000000, 8238.000000
2401, 3814608.000000, 1790.000000, 8245.000000, 8225.000000, 8247.000000
2402, 3814768.000000, 1713.250000, 8263.000000, 8226.000000, 8256.000000
2403, 3814928.000000, 1649.500000, 8274.000000, 8226.000000, 8260.000000
2404, 3815088.000000, 1598.750000, 8252.000000, 8228.000000, 8257.000000
2405, 3815248.000000, 1558.000000, 8205.000000, 8230.000000, 8244.000000
2406, 3815408.000000, 1531.500000, 8174.000000, 8220.000000, 8225.000000
2407, 3815568.000000, 1510.000000, 8157.000000, 8220.000000, 8216.000000
2408, 3815728.000000, 1486.750000, 8150.000000, 8213.000000, 8210.000000
2409, 3815888.000000, 1457.750000, 8159.000000, 8214.000000, 8211.000000
2410, 3816048.000000, 1415.000000, 8162.000000, 8217.000000, 8214.000000
2411, 3816208.000000, 1362.250000, 8162.000000, 8221.000000, 8218.000000
2412, 3816368.000000, 1303.000000, 8162.000000, 8220.000000, 8219.000000
2413, 3816528.000000, 1243.000000, 8166.000000, 8217.000000, 8215.000000
2414, 3816688.000000, 1188.750000, 8164.000000, 8214.000000, 8211.000000
2415, 3816848.000000, 1161.500000, 8168.000000, 8209.000000, 8206.000000
2416, 3817008.000000, 1221.500000, 8165.000000, 8210.000000, 8207.000000
2417, 3817168.000000, 1443.750000, 8165.000000, 8213.000000, 8216.000000
2418, 3817328.000000, 1821.000000, 8174.000000, 8218.000000, 8227.000000
2419, 3817488.000000, 2236.000000, 8185.000000, 8223.000000, 8241.000000
2420, 3817648.000000, 2552.000000, 8187.000000, 8215.000000, 8227.000000
2421, 3817808.000000, 2710.500000, 8166.000000, 8206.000000, 8200.000000
2422, 3817968.000000, 2746.250000, 8167.000000, 8174.000000, 8163.000000
2423, 3818128.000000, 2707.750000, 8169.000000, 8158.000000, 8148.000000
2424, 3818288.000000, 2628.000000, 8163.000000, 8158.000000, 8146.000000
2425, 3818448.000000, 2504.250000, 8281.000000, 8208.000000, 8244.000000
2426, 3818608.000000, 2348.000000, 8284.000000, 8143.000000, 8229.000000
2427, 3818768.000000, 2204.500000, 8122.000000, 8082.000000, 8077.000000
2428, 3818928.000000, 2130.500000, 8160.000000, 8167.000000, 8151.000000
2429, 3819088.000000, 2127.000000, 8163.000000, 8179.000000, 8165.000000
2430, 3819248.000000, 2167.250000, 8169.000000, 8186.000000, 8174.000000
2431, 3819408.000000, 2199.500000, 8181.000000, 8190.000000, 8184.000000
2432, 3819568.000000, 2197.000000, 8189.000000, 8194.000000, 8193.000000
2433, 3819728.000000, 2154.500000, 8197.000000, 8197.000000, 8199.000000
2434, 3819888.000000, 2076.000000, 8214.000000, 8197.000000, 8201.000000
2435, 3820048.000000, 1980.250000, 8231.000000, 8201.000000, 8214.000000
2436, 3820208.000000, 1887.000000, 8252.000000, 8201.000000, 8220.000000
2437, 3820368.000000, 1802.250000, 8271.000000, 8205.000000, 8233.000000
2438, 3820528.000000, 1730.000000, 8274.000000, 8205.000000, 8237.000000
2439, 3820688.000000, 1668.750000, 8250.000000, 8207.000000, 8229.000000
2440, 3820848.000000, 1623.750000, 8205.000000, 8206.000000, 8220.000000
2441, 3821008.000000, 1597.250000, 8170.000000, 8201.000000, 8203.000000
2442, 3821168.000000, 1583.000000, 8163.000000, 8200.000000, 8194.000000
2443, 3821328.000000, 1567.750000, 8159.000000, 8197.000000, 8192.000000
2444, 3821488.000000, 1543.750000, 8160.000000, 8196.000000, 8192.000000
2445, 3821648.000000, 1508.500000, 8164.000000, 8194.000000, 8189.000000
2446, 3821808.000000, 1457.750000, 8169.000000, 8195.000000, 8191.000000
2447, 3821968.000000, 1397.000000, 8168.000000, 8192.000000, 8189.000000
2448, 3822128.000000, 1336.000000, 8168.000000, 8194.000000, 8191.000000
2449, 3822288.000000, 1282.250000, 8167.000000, 8191.000000, 8186.000000
2450, 3822448.000000, 1252.000000, 8167.000000, 8189.000000, 8182.000000
2451, 3822608.000000, 1302.750000, 8166.000000, 8189.000000, 8183.000000
2452, 3822768.000000, 1519.750000, 8169.000000, 8192.000000, 8186.000000
2453, 3822928.000000, 1892.500000, 8173.000000, 8198.000000, 8202.000000
2454, 3823088.000000, 2317.500000, 8177.000000, 8200.000000, 8209.000000
2455, 3823248.000000, 2649.250000, 8196.000000, 8207.000000, 8225.000000
2456, 3823408.000000, 2834.250000, 8186.000000, 8193.000000, 8192.000000
2457, 3823568.000000, 2887.250000, 8171.000000, 8183.000000, 8174.000000
2458, 3823728.000000, 2863.500000, 8173.000000, 8183.000000, 8172.000000
2459, 3823888.000000, 2795.250000, 8173.000000, 8182.000000, 8171.000000
2460, 3824048.000000, 2676.500000, 8173.000000, 8203.000000, 8190.000000
2461, 3824208.000000, 2516.750000, 8477.000000, 8183.000000, 8316.000000
2462, 3824368.000000, 2355.500000, 8154.000000, 8096.000000, 8128.000000
2463, 3824528.000000, 2257.750000, 8158.000000, 8150.000000, 8145.000000
2464, 3824688.000000, 2237.000000, 8169.000000, 8188.000000, 8174.000000
2465, 3824848.000000, 2266.750000, 8174.000000, 8193.000000, 8182.000000
2466, 3825008.000000, 2294.250000, 8180.000000, 8194.000000, 8185.000000
2467, 3825168.000000, 2291.500000, 8187.000000, 8197.000000, 8191.000000
2468, 3825328.000000, 2239.000000, 8199.000000, 8200.000000, 8198.000000
2469, 3825488.000000, 2146.250000, 8209.000000, 8200.000000, 8204.000000
2470, 3825648.000000, 2036.250000, 8220.000000, 8202.000000, 8206.000000
2471, 3825808.000000, 1925.250000, 8241.000000, 8204.000000, 8218.000000
2472, 3825968.000000, 1822.750000, 8263.000000, 8207.000000, 8229.000000
2473, 3826128.000000, 1738.500000, 8279.000000, 8209.000000, 8238.000000
2474, 3826288.000000, 1669.250000, 8270.000000, 8209.000000, 8238.000000
2475, 3826448.000000, 1616.750000, 8227.000000, 8208.000000, 8224.000000
2476, 3826608.000000, 1577.500000, 8192.000000, 8203.000000, 8206.000000
2477, 3826768.000000, 1548.750000, 8168.000000, 8197.000000, 8192.000000
2478, 3826928.000000, 1528.750000, 8162.000000, 8193.000000, 8184.000000
2479, 3827088.000000, 1509.500000, 8160.000000, 8191.000000, 8183.000000
2480, 3827248.000000, 1477.750000, 8163.000000, 8190.000000, 8182.000000
2481, 3827408.000000, 1435.750000, 8167.000000, 8191.000000, 8182.000000
2482, 3827568.000000, 1378.000000, 8170.000000, 8191.000000, 8184.000000
2483, 3827728.000000, 1311.000000, 8174.000000, 8189.000000, 8186.000000
2484, 3827888.000000, 1243.250000, 8171.000000, 8188.000000, 8183.000000
2485, 3828048.000000, 1202.750000, 8167.000000, 8185.000000, 8176.000000
2486, 3828208.000000, 1243.250000, 8170.000000, 8186.000000, 8179.000000
2487, 3828368.000000, 1479.500000, 8171.000000, 8187.000000, 8182.000000
2488, 3828528.000000, 1909.500000, 8176.000000, 8191.000000, 8191.000000
2489, 3828688.000000, 2422.750000, 8178.000000, 8193.000000, 8197.000000
2490, 3828848.000000, 2848.500000, 8180.000000, 8194.000000, 8203.000000
2491, 3829008.000000, 3108.500000, 8191.000000, 8195.000000, 8205.000000
2492, 3829168.000000, 3202.000000, 8179.000000, 8185.000000, 8178.000000
2493, 3829328.000000, 3206.500000, 8170.000000, 8184.000000, 8169.000000
2494, 3829488.000000, 3176.500000, 8171.000000, 8177.000000, 8164.000000
2495, 3829648.000000, 3119.000000, 8173.000000, 8177.000000, 8162.000000
2496, 3829808.000000, 3014.000000, 8212.000000, 8216.000000, 8216.000000
2497, 3829968.000000, 2860.750000, 8429.000000, 8145.000000, 8270.000000
2498, 3830128.000000, 2712.250000, 8145.000000, 8070.000000, 8078.000000
2499, 3830288.000000, 2620.500000, 8160.000000, 8172.000000, 8156.000000
2500, 3830448.000000, 2598.250000, 8166.000000, 8186.000000, 8166.000000
2501, 3830608.000000, 2607.750000, 8171.000000, 8190.000000, 8175.000000
2502, 3830768.000000, 2604.500000, 8180.000000, 8195.000000, 8184.000000
2503, 3830928.000000, 2559.250000, 8188.000000, 8199.000000, 8192.000000
2504, 3831088.000000, 2476.000000, 8195.000000, 8199.000000, 8196.000000
2505, 3831248.000000, 2363.000000, 8204.000000, 8200.000000, 8199.000000
2506, 3831408.000000, 2240.500000, 8222.000000, 8203.000000, 8206.000000
2507, 3831568.000000, 2120.500000, 8248.000000, 8212.000000, 8228.000000
2508, 3831728.000000, 2014.750000, 8270.000000, 8215.000000, 8240.000000
2509, 3831888.000000, 1927.000000, 8277.000000, 8216.000000, 8244.000000
2510, 3832048.000000, 1852.000000, 8259.000000, 8219.000000, 8243.000000
2511, 3832208.000000, 1793.000000, 8211.000000, 8218.000000, 8226.000000
2512, 3832368.000000, 1747.000000, 8180.000000, 8221.000000, 8218.000000
2513, 3832528.000000, 1712.750000, 8163.000000, 8216.000000, 8206.000000
2514, 3832688.000000, 1679.500000, 8161.000000, 8210.000000, 8199.000000
2515, 3832848.000000, 1639.000000, 8161.000000, 8208.000000, 8195.000000
2516, 3833008.000000, 1587.250000, 8164.000000, 8209.000000, 8198.000000
2517, 3833168.000000, 1524.250000, 8167.000000, 8205.000000, 8194.000000
2518, 3833328.000000, 1454.250000, 8170.000000, 8205.000000, 8196.000000
2519, 3833488.000000, 1379.250000, 8170.000000, 8205.000000, 8196.000000
2520, 3833648.000000, 1309.750000, 8170.000000, 8200.000000, 8189.000000
2521, 3833808.000000, 1279.500000, 8170.000000, 8198.000000, 8185.000000
2522, 3833968.000000, 1383.750000, 8173.000000, 8199.000000, 8190.000000
2523, 3834128.000000, 1691.000000, 8170.000000, 8198.000000, 8187.000000
2524, 3834288.000000, 2183.750000, 8176.000000, 8200.000000, 8195.000000
2525, 3834448.000000, 2702.500000, 8182.000000, 8203.000000, 8207.000000
2526, 3834608.000000, 3109.000000, 8182.000000, 8203.000000, 8209.000000
2527, 3834768.000000, 3332.250000, 8198.000000, 8206.000000, 8217.000000
2528, 3834928.000000, 3415.750000, 8181.000000, 8194.000000, 8186.000000
2529, 3835088.000000, 3426.500000, 8173.000000, 8187.000000, 8172.000000
2530, 3835248.000000, 3405.750000, 8170.000000, 8182.000000, 8163.000000
2531, 3835408.000000, 3307.000000, 8175.000000, 8183.000000, 8167.000000
2532, 3835568.000000, 3131.250000, 8190.000000, 8216.000000, 8204.000000
2533, 3835728.000000, 2958.250000, 8490.000000, 8155.000000, 8301.000000
2534, 3835888.000000, 2827.500000, 8165.000000, 8059.000000, 8082.000000
2535, 3836048.000000, 2750.750000, 8164.000000, 8172.000000, 8159.000000
2536, 3836208.000000, 2723.750000, 8167.000000, 8193.000000, 8172.000000
2537, 3836368.000000, 2681.750000, 8174.000000, 8198.000000, 8181.000000
2538, 3836528.000000, 2602.750000, 8181.000000, 8201.000000, 8187.000000
2539, 3836688.000000, 2479.500000, 8188.000000, 8202.000000, 8191.000000
2540, 3836848.000000, 2319.000000, 8196.000000, 8203.000000, 8195.000000
2541, 3837008.000000, 2154.750000, 8207.000000, 8207.000000, 8204.000000
2542, 3837168.000000, 2030.500000, 8222.000000, 8212.000000, 8215.000000
2543, 3837328.000000, 1925.750000, 8246.000000, 8216.000000, 8229.000000
2544, 3837488.000000, 1838.250000, 8273.000000, 8219.000000, 8244.000000
2545, 3837648.000000, 1767.000000, 8284.000000, 8219.000000, 8249.000000
2546, 3837808.000000, 1708.750000, 8267.000000, 8217.000000, 8244.000000
2547, 3837968.000000, 1660.500000, 8222.000000, 8213.000000, 8224.000000
2548, 3838128.000000, 1616.250000, 8185.000000, 8201.000000, 8198.000000
2549, 3838288.000000, 1573.500000, 8169.000000, 8193.000000, 8181.000000
2550, 3838448.000000, 1523.500000, 8161.000000, 8187.000000, 8172.000000
2551, 3838608.000000, 1461.250000, 8158.000000, 8184.000000, 8165.000000
2552, 3838768.000000, 1392.250000, 8163.000000, 8187.000000, 8173.000000
2553, 3838928.000000, 1317.750000, 8165.000000, 8185.000000, 8172.000000
2554, 3839088.000000, 1243.500000, 8167.000000, 8182.000000, 8169.000000
2555, 3839248.000000, 1186.000000, 8168.000000, 8181.000000, 8168.000000
2556, 3839408.000000, 1208.250000, 8169.000000, 8181.000000, 8167.000000
2557, 3839568.000000, 1409.250000, 8169.000000, 8181.000000, 8167.000000
2558, 3839728.000000, 1824.750000, 8168.000000, 8180.000000, 8165.000000
2559, 3839888.000000, 2365.250000, 8170.000000, 8181.000000, 8166.000000
2560, 3840048.000000, 2860.250000, 8168.000000, 8177.000000, 8160.000000
2561, 3840208.000000, 3198.000000, 8170.000000, 8179.000000, 8164.000000
2562, 3840368.000000, 3359.000000, 8178.000000, 8189.000000, 8185.000000
2563, 3840528.000000, 3406.250000, 8178.000000, 8193.000000, 8191.000000
2564, 3840688.000000, 3406.750000, 8196.000000, 8199.000000, 8211.000000
2565, 3840848.000000, 3387.000000, 8188.000000, 8185.000000, 8178.000000
2566, 3841008.000000, 3328.250000, 8169.000000, 8175.000000, 8153.000000
2567, 3841168.000000, 3190.500000, 8168.000000, 8172.000000, 8149.000000
2568, 3841328.000000, 3003.250000, 8167.000000, 8173.000000, 8150.000000
2569, 3841488.000000, 2824.750000, 8161.000000, 8184.000000, 8155.000000
2570, 3841648.000000, 2711.500000, 8403.000000, 8214.000000, 8306.000000
2571, 3841808.000000, 2655.500000, 8239.000000, 8049.000000, 8115.000000
2572, 3841968.000000, 2620.750000, 8156.000000, 8129.000000, 8124.000000
2573, 3842128.000000, 2569.750000, 8158.000000, 8181.000000, 8152.000000
2574, 3842288.000000, 2480.500000, 8162.000000, 8186.000000, 8159.000000
2575, 3842448.000000, 2356.500000, 8169.000000, 8189.000000, 8165.000000
2576, 3842608.000000, 2214.750000, 8175.000000, 8189.000000, 8169.000000
2577, 3842768.000000, 2068.000000, 8182.000000, 8193.000000, 8174.000000
2578, 3842928.000000, 1935.500000, 8190.000000, 8196.000000, 8182.000000
2579, 3843088.000000, 1823.000000, 8207.000000, 8200.000000, 8193.000000
2580, 3843248.000000, 1730.500000, 8226.000000, 8205.000000, 8205.000000
2581, 3843408.000000, 1652.000000, 8251.000000, 8208.000000, 8220.000000
2582, 3843568.000000, 1587.250000, 8271.000000, 8211.000000, 8231.000000
2583, 3843728.000000, 1528.500000, 8272.000000, 8211.000000, 8235.000000
2584, 3843888.000000, 1477.750000, 8237.000000, 8208.000000, 8221.000000
2585, 3844048.000000, 1433.750000, 8189.000000, 8193.000000, 8186.000000
2586, 3844208.000000, 1390.500000, 8165.000000, 8184.000000, 8167.000000
2587, 3844368.000000, 1342.000000, 8155.000000, 8181.000000, 8156.000000
2588, 3844528.000000, 1277.750000, 8153.000000, 8182.000000, 8161.000000
2589, 3844688.000000, 1208.500000, 8153.000000, 8181.000000, 8160.000000
2590, 3844848.000000, 1136.000000, 8152.000000, 8178.000000, 8153.000000
2591, 3845008.000000, 1067.500000, 8159.000000, 8178.000000, 8159.000000
2592, 3845168.000000, 1009.000000, 8160.000000, 8179.000000, 8159.000000
2593, 3845328.000000, 991.750000, 8162.000000, 8178.000000, 8159.000000
2594, 3845488.000000, 1109.500000, 8163.000000, 8176.000000, 8156.000000
2595, 3845648.000000, 1430.000000, 8161.000000, 8173.000000, 8152.000000
2596, 3845808.000000, 1946.000000, 8161.000000, 8171.000000, 8150.000000
2597, 3845968.000000, 2496.000000, 8163.000000, 8173.000000, 8153.000000
2598, 3846128.000000, 2934.250000, 8163.000000, 8175.000000, 8153.000000
2599, 3846288.000000, 3188.000000, 8166.000000, 8175.000000, 8157.000000
2600, 3846448.000000, 3295.750000, 8166.000000, 8176.000000, 8156.000000
2601, 3846608.000000, 3321.250000, 8176.000000, 8183.000000, 8176.000000
2602, 3846768.000000, 3312.750000, 8176.000000, 8183.000000, 8176.000000
2603, 3846928.000000, 3275.500000, 8192.000000, 8189.000000, 8192.000000
2604, 3847088.000000, 3176.250000, 8179.000000, 8177.000000, 8160.000000
2605, 3847248.000000, 3012.250000, 8168.000000, 8169.000000, 8146.000000
2606, 3847408.000000, 2828.500000, 8164.000000, 8167.000000, 8140.000000
2607, 3847568.000000, 2687.750000, 8166.000000, 8166.000000, 8140.000000
2608, 3847728.000000, 2612.750000, 8163.000000, 8187.000000, 8159.000000
2609, 3847888.000000, 2585.000000, 8475.000000, 8175.000000, 8305.000000
2610, 3848048.000000, 2555.750000, 8202.000000, 8031.000000, 8077.000000
2611, 3848208.000000, 2496.250000, 8155.000000, 8141.000000, 8126.000000
2612, 3848368.000000, 2392.500000, 8157.000000, 8176.000000, 8146.000000
2613, 3848528.000000, 2261.250000, 8162.000000, 8185.000000, 8158.000000
2614, 3848688.000000, 2113.750000, 8167.000000, 8187.000000, 8164.000000
2615, 3848848.000000, 1974.250000, 8176.000000, 8187.000000, 8168.000000
2616, 3849008.000000, 1854.250000, 8183.000000, 8187.000000, 8172.000000
2617, 3849168.000000, 1752.750000, 8193.000000, 8191.000000, 8179.000000
2618, 3849328.000000, 1668.000000, 8207.000000, 8196.000000, 8191.000000
2619, 3849488.000000, 1593.000000, 8228.000000, 8199.000000, 8202.000000
2620, 3849648.000000, 1527.250000, 8257.000000, 8202.000000, 8218.000000
2621, 3849808.000000, 1464.250000, 8270.000000, 8204.000000, 8225.000000
2622, 3849968.000000, 1406.750000, 8267.000000, 8206.000000, 8229.000000
2623, 3850128.000000, 1358.500000, 8228.000000, 8204.000000, 8215.000000
2624, 3850288.000000, 1313.500000, 8184.000000, 8194.000000, 8188.000000
2625, 3850448.000000, 1271.500000, 8158.000000, 8181.000000, 8162.000000
2626, 3850608.000000, 1223.000000, 8153.000000, 8178.000000, 8159.000000
2627, 3850768.000000, 1166.250000, 8150.000000, 8179.000000, 8158.000000
2628, 3850928.000000, 1097.750000, 8154.000000, 8179.000000, 8159.000000
2629, 3851088.000000, 1031.250000, 8155.000000, 8179.000000, 8160.000000
2630, 3851248.000000, 968.000000, 8158.000000, 8178.000000, 8161.000000
2631, 3851408.000000, 916.000000, 8159.000000, 8177.000000, 8160.000000
2632, 3851568.000000, 904.250000, 8161.000000, 8177.000000, 8160.000000
2633, 3851728.000000, 1013.250000, 8159.000000, 8176.000000, 8157.000000
2634, 3851888.000000, 1330.500000, 8161.000000, 8178.000000, 8161.000000
2635, 3852048.000000, 1817.750000, 8161.000000, 8176.000000, 8159.000000
2636, 3852208.000000, 2346.250000, 8163.000000, 8177.000000, 8161.000000
2637, 3852368.000000, 2762.000000, 8160.000000, 8178.000000, 8160.000000
2638, 3852528.000000, 3004.750000, 8163.000000, 8179.000000, 8163.000000
2639, 3852688.000000, 3092.750000, 8166.000000, 8182.000000, 8168.000000
2640, 3852848.000000, 3100.750000, 8174.000000, 8187.000000, 8182.000000
2641, 3853008.000000, 3075.000000, 8174.000000, 8189.000000, 8188.000000
2642, 3853168.000000, 3016.750000, 8187.000000, 8196.000000, 8206.000000
2643, 3853328.000000, 2904.250000, 8188.000000, 8193.000000, 8193.000000
2644, 3853488.000000, 2737.500000, 8171.000000, 8182.000000, 8167.000000
2645, 3853648.000000, 2570.250000, 8167.000000, 8179.000000, 8160.000000
2646, 3853808.000000, 2446.500000, 8166.000000, 8176.000000, 8158.000000
2647, 3853968.000000, 2393.750000, 8164.000000, 8184.000000, 8161.000000
2648, 3854128.000000, 2377.250000, 8324.000000, 8230.000000, 8281.000000
2649, 3854288.000000, 2357.750000, 8287.000000, 8121.000000, 8215.000000
2650, 3854448.000000, 2297.750000, 8146.000000, 8107.000000, 8104.000000
2651, 3854608.000000, 2197.750000, 8161.000000, 8187.000000, 8164.000000
2652, 3854768.000000, 2069.500000, 8162.000000, 8197.000000, 8176.000000
2653, 3854928.000000, 1931.750000, 8169.000000, 8200.000000, 8182.000000
2654, 3855088.000000, 1799.000000, 8179.000000, 8205.000000, 8192.000000
2655, 3855248.000000, 1682.500000, 8186.000000, 8206.000000, 8199.000000
2656, 3855408.000000, 1584.000000, 8196.000000, 8207.000000, 8203.000000
2657, 3855568.000000, 1501.500000, 8209.000000, 8213.000000, 8213.000000
2658, 3855728.000000, 1430.750000, 8228.000000, 8217.000000, 8226.000000
2659, 3855888.000000, 1364.500000, 8251.000000, 8219.000000, 8239.000000
2660, 3856048.000000, 1304.500000, 8270.000000, 8224.000000, 8251.000000
2661, 3856208.000000, 1250.750000, 8271.000000, 8222.000000, 8252.000000
2662, 3856368.000000, 1202.500000, 8249.000000, 8226.000000, 8253.000000
2663, 3856528.000000, 1161.250000, 8203.000000, 8224.000000, 8234.000000
2664, 3856688.000000, 1121.250000, 8171.000000, 8215.000000, 8214.000000
2665, 3856848.000000, 1080.750000, 8158.000000, 8211.000000, 8200.000000
2666, 3857008.000000, 1032.250000, 8154.000000, 8207.000000, 8197.000000
2667, 3857168.000000, 978.250000, 8153.000000, 8207.000000, 8198.000000
2668, 3857328.000000, 924.000000, 8159.000000, 8211.000000, 8204.000000
2669, 3857488.000000, 874.500000, 8160.000000, 8209.000000, 8203.000000
2670, 3857648.000000, 830.500000, 8165.000000, 8205.000000, 8200.000000
2671, 3857808.000000, 792.250000, 8159.000000, 8205.000000, 8198.000000
2672, 3857968.000000, 803.750000, 8161.000000, 8205.000000, 8198.000000
2673, 3858128.000000, 949.750000, 8160.000000, 8207.000000, 8201.000000
2674, 3858288.000000, 1296.500000, 8158.000000, 8205.000000, 8198.000000
2675, 3858448.000000, 1775.500000, 8166.000000, 8206.000000, 8202.000000
2676, 3858608.000000, 2241.750000, 8163.000000, 8204.000000, 8198.000000
2677, 3858768.000000, 2566.750000, 8164.000000, 8204.000000, 8199.000000
2678, 3858928.000000, 2721.000000, 8168.000000, 8206.000000, 8203.000000
2679, 3859088.000000, 2747.750000, 8175.000000, 8212.000000, 8220.000000
2680, 3859248.000000, 2716.750000, 8178.000000, 8212.000000, 8222.000000
2681, 3859408.000000, 2652.500000, 8192.000000, 8220.000000, 8243.000000
2682, 3859568.000000, 2544.750000, 8184.000000, 8206.000000, 8210.000000
2683, 3859728.000000, 2390.000000, 8167.000000, 8200.000000, 8191.000000
2684, 3859888.000000, 2223.000000, 8164.000000, 8196.000000, 8189.000000
2685, 3860048.000000, 2097.250000, 8167.000000, 8196.000000, 8187.000000
2686, 3860208.000000, 2037.250000, 8155.000000, 8208.000000, 8191.000000
2687, 3860368.000000, 2025.250000, 8430.000000, 8219.000000, 8335.000000
2688, 3860528.000000, 2025.500000, 8165.000000, 8135.000000, 8184.000000
2689, 3860688.000000, 2001.250000, 8143.000000, 8148.000000, 8150.000000
2690, 3860848.000000, 1935.250000, 8156.000000, 8199.000000, 8188.000000
2691, 3861008.000000, 1838.500000, 8168.000000, 8201.000000, 8192.000000
2692, 3861168.000000, 1720.000000, 8170.000000, 8207.000000, 8198.000000
2693, 3861328.000000, 1602.000000, 8181.000000, 8207.000000, 8205.000000
2694, 3861488.000000, 1497.000000, 8187.000000, 8211.000000, 8211.000000
2695, 3861648.000000, 1407.250000, 8197.000000, 8215.000000, 8217.000000
2696, 3861808.000000, 1336.250000, 8211.000000, 8213.000000, 8221.000000
2697, 3861968.000000, 1281.000000, 8228.000000, 8214.000000, 8229.000000
2698, 3862128.000000, 1235.000000, 8253.000000, 8212.000000, 8236.000000
2699, 3862288.000000, 1199.500000, 8277.000000, 8214.000000, 8246.000000
2700, 3862448.000000, 1170.500000, 8269.000000, 8216.000000, 8250.000000
2701, 3862608.000000, 1145.000000, 8234.000000, 8217.000000, 8236.000000
2702, 3862768.000000, 1126.000000, 8193.000000, 8216.000000, 8226.000000
2703, 3862928.000000, 1102.750000, 8165.000000, 8212.000000, 8209.000000
2704, 3863088.000000, 1075.500000, 8158.000000, 8208.000000, 8201.000000
2705, 3863248.000000, 1041.250000, 8154.000000, 8205.000000, 8197.000000
2706, 3863408.000000, 995.250000, 8159.000000, 8204.000000, 8197.000000
2707, 3863568.000000, 940.250000, 8161.000000, 8200.000000, 8193.000000
2708, 3863728.000000, 880.250000, 8164.000000, 8204.000000, 8197.000000
2709, 3863888.000000, 826.000000, 8164.000000, 8200.000000, 8195.000000
2710, 3864048.000000, 780.000000, 8167.000000, 8199.000000, 8192.000000
2711, 3864208.000000, 775.500000, 8162.000000, 8197.000000, 8188.000000
2712, 3864368.000000, 872.000000, 8160.000000, 8195.000000, 8185.000000
2713, 3864528.000000, 1144.500000, 8164.000000, 8198.000000, 8189.000000
2714, 3864688.000000, 1563.500000, 8160.000000, 8194.000000, 8182.000000
2715, 3864848.000000, 2000.750000, 8164.000000, 8195.000000, 8186.000000
2716, 3865008.000000, 2322.250000, 8170.000000, 8200.000000, 8195.000000
2717, 3865168.000000, 2486.750000, 8171.000000, 8202.000000, 8201.000000
2718, 3865328.000000, 2525.750000, 8179.000000, 8205.000000, 8213.000000
2719, 3865488.000000, 2493.750000, 8192.000000, 8205.000000, 8214.000000
2720, 3865648.000000, 2423.000000, 8173.000000, 8190.000000, 8179.000000
2721, 3865808.000000, 2309.500000, 8165.000000, 8184.000000, 8165.000000
2722, 3865968.000000, 2152.500000, 8165.000000, 8183.000000, 8164.000000
2723, 3866128.000000, 2001.750000, 8167.000000, 8183.000000, 8166.000000
2724, 3866288.000000, 1907.500000, 8208.000000, 8224.000000, 8224.000000
2725, 3866448.000000, 1887.500000, 8416.000000, 8156.000000, 8270.000000
2726, 3866608.000000, 1911.750000, 8136.000000, 8084.000000, 8088.000000
2727, 3866768.000000, 1932.250000, 8156.000000, 8171.000000, 8152.000000
2728, 3866928.000000, 1916.500000, 8162.000000, 8190.000000, 8167.000000
2729, 3867088.000000, 1855.750000, 8169.000000, 8195.000000, 8175.000000
2730, 3867248.000000, 1765.750000, 8174.000000, 8195.000000, 8180.000000
2731, 3867408.000000, 1662.500000, 8183.000000, 8197.000000, 8182.000000
2732, 3867568.000000, 1562.500000, 8194.000000, 8199.000000, 8190.000000
2733, 3867728.000000, 1471.750000, 8206.000000, 8202.000000, 8197.000000
2734, 3867888.000000, 1395.250000, 8221.000000, 8207.000000, 8209.000000
2735, 3868048.000000, 1327.000000, 8244.000000, 8206.000000, 8216.000000
2736, 3868208.000000, 1270.250000, 8265.000000, 8206.000000, 8224.000000
2737, 3868368.000000, 1228.500000, 8275.000000, 8206.000000, 8230.000000
2738, 3868528.000000, 1199.500000, 8262.000000, 8209.000000, 8231.000000
2739, 3868688.000000, 1182.750000, 8216.000000, 8208.000000, 8215.000000
2740, 3868848.000000, 1173.750000, 8177.000000, 8202.000000, 8197.000000
2741, 3869008.000000, 1162.500000, 8156.000000, 8194.000000, 8179.000000
2742, 3869168.000000, 1142.500000, 8155.000000, 8191.000000, 8174.000000
2743, 3869328.000000, 1111.750000, 8157.000000, 8188.000000, 8174.000000
2744, 3869488.000000, 1072.500000, 8160.000000, 8189.000000, 8175.000000
2745, 3869648.000000, 1024.750000, 8164.000000, 8187.000000, 8174.000000
2746, 3869808.000000, 972.250000, 8164.000000, 8184.000000, 8169.000000
2747, 3869968.000000, 921.500000, 8163.000000, 8186.000000, 8170.000000
2748, 3870128.000000, 882.750000, 8165.000000, 8183.000000, 8168.000000
2749, 3870288.000000, 904.750000, 8163.000000, 8184.000000, 8168.000000
2750, 3870448.000000, 1055.000000, 8164.000000, 8184.000000, 8167.000000
2751, 3870608.000000, 1392.000000, 8163.000000, 8183.000000, 8163.000000
2752, 3870768.000000, 1835.500000, 8166.000000, 8183.000000, 8167.000000
2753, 3870928.000000, 2253.750000, 8168.000000, 8184.000000, 8167.000000
2754, 3871088.000000, 2531.000000, 8168.000000, 8190.000000, 8179.000000
2755, 3871248.000000, 2656.500000, 8181.000000, 8197.000000, 8195.000000
2756, 3871408.000000, 2669.500000, 8180.000000, 8194.000000, 8193.000000
2757, 3871568.000000, 2628.000000, 8196.000000, 8197.000000, 8201.000000
2758, 3871728.000000, 2554.000000, 8182.000000, 8185.000000, 8172.000000
2759, 3871888.000000, 2437.500000, 8171.000000, 8181.000000, 8160.000000
2760, 3872048.000000, 2293.250000, 8170.000000, 8178.000000, 8157.000000
2761, 3872208.000000, 2151.750000, 8170.000000, 8176.000000, 8155.000000
2762, 3872368.000000, 2069.250000, 8201.000000, 8213.000000, 8204.000000
2763, 3872528.000000, 2052.500000, 8452.000000, 8145.000000, 8269.000000
2764, 3872688.000000, 2077.000000, 8150.000000, 8067.000000, 8076.000000
2765, 3872848.000000, 2092.750000, 8164.000000, 8166.000000, 8147.000000
2766, 3873008.000000, 2074.500000, 8167.000000, 8183.000000, 8158.000000
2767, 3873168.000000, 2009.750000, 8172.000000, 8186.000000, 8164.000000
2768, 3873328.000000, 1915.500000, 8178.000000, 8191.000000, 8171.000000
2769, 3873488.000000, 1809.000000, 8190.000000, 8195.000000, 8183.000000
2770, 3873648.000000, 1713.250000, 8200.000000, 8196.000000, 8185.000000
2771, 3873808.000000, 1626.000000, 8205.000000, 8197.000000, 8191.000000
2772, 3873968.000000, 1548.500000, 8225.000000, 8202.000000, 8201.000000
2773, 3874128.000000, 1481.000000, 8245.000000, 8205.000000, 8213.000000
2774, 3874288.000000, 1421.750000, 8268.000000, 8207.000000, 8225.000000
2775, 3874448.000000, 1372.750000, 8278.000000, 8210.000000, 8234.000000
2776, 3874608.000000, 1333.500000, 8267.000000, 8207.000000, 8230.000000
2777, 3874768.000000, 1304.750000, 8226.000000, 8205.000000, 8215.000000
2778, 3874928.000000, 1283.750000, 8187.000000, 8197.000000, 8191.000000
2779, 3875088.000000, 1269.500000, 8169.000000, 8192.000000, 8180.000000
2780, 3875248.000000, 1250.250000, 8161.000000, 8186.000000, 8169.000000
2781, 3875408.000000, 1221.250000, 8160.000000, 8184.000000, 8166.000000
2782, 3875568.000000, 1177.750000, 8164.000000, 8184.000000, 8169.000000
2783, 3875728.000000, 1125.500000, 8165.000000, 8184.000000, 8169.000000
2784, 3875888.000000, 1071.500000, 8170.000000, 8186.000000, 8173.000000
2785, 3876048.000000, 1018.750000, 8170.000000, 8182.000000, 8169.000000
2786, 3876208.000000, 981.500000, 8169.000000, 8179.000000, 8165.000000
2787, 3876368.000000, 1008.000000, 8169.000000, 8176.000000, 8160.000000
2788, 3876528.000000, 1197.250000, 8171.000000, 8176.000000, 8161.000000
2789, 3876688.000000, 1579.750000, 8168.000000, 8177.000000, 8162.000000
2790, 3876848.000000, 2071.500000, 8173.000000, 8177.000000, 8164.000000
2791, 3877008.000000, 2503.750000, 8171.000000, 8175.000000, 8162.000000
2792, 3877168.000000, 2788.250000, 8175.000000, 8180.000000, 8172.000000
2793, 3877328.000000, 2910.750000, 8184.000000, 8187.000000, 8189.000000
2794, 3877488.000000, 2925.250000, 8185.000000, 8190.000000, 8194.000000
2795, 3877648.000000, 2895.250000, 8198.000000, 8191.000000, 8198.000000
2796, 3877808.000000, 2842.750000, 8180.000000, 8178.000000, 8165.000000
2797, 3877968.000000, 2758.000000, 8171.000000, 8172.000000, 8153.000000
2798, 3878128.000000, 2634.750000, 8173.000000, 8173.000000, 8154.000000
2799, 3878288.000000, 2501.000000, 8173.000000, 8174.000000, 8155.000000
2800, 3878448.000000, 2401.500000, 8212.000000, 8217.000000, 8212.000000
2801, 3878608.000000, 2356.000000, 8440.000000, 8134.000000, 8260.000000
2802, 3878768.000000, 2348.750000, 8150.000000, 8056.000000, 8063.000000
2803, 3878928.000000, 2352.000000, 8164.000000, 8166.000000, 8147.000000
2804, 3879088.000000, 2330.250000, 8169.000000, 8185.000000, 8165.000000
2805, 3879248.000000, 2272.000000, 8174.000000, 8187.000000, 8170.000000
2806, 3879408.000000, 2183.750000, 8180.000000, 8188.000000, 8175.000000
2807, 3879568.000000, 2074.750000, 8186.000000, 8189.000000, 8178.000000
2808, 3879728.000000, 1965.750000, 8197.000000, 8194.000000, 8187.000000
2809, 3879888.000000, 1864.500000, 8209.000000, 8199.000000, 8196.000000
2810, 3880048.000000, 1775.250000, 8221.000000, 8202.000000, 8206.000000
2811, 3880208.000000, 1703.500000, 8241.000000, 8204.000000, 8212.000000
2812, 3880368.000000, 1642.500000, 8266.000000, 8207.000000, 8229.000000
2813, 3880528.000000, 1591.250000, 8281.000000, 8210.000000, 8242.000000
2814, 3880688.000000, 1548.000000, 8264.000000, 8208.000000, 8235.000000
2815, 3880848.000000, 1515.000000, 8218.000000, 8202.000000, 8212.000000
2816, 3881008.000000, 1485.750000, 8180.000000, 8190.000000, 8185.000000
2817, 3881168.000000, 1462.750000, 8162.000000, 8181.000000, 8168.000000
2818, 3881328.000000, 1432.500000, 8160.000000, 8182.000000, 8168.000000
2819, 3881488.000000, 1394.500000, 8161.000000, 8183.000000, 8170.000000
2820, 3881648.000000, 1342.750000, 8163.000000, 8184.000000, 8172.000000
2821, 3881808.000000, 1285.000000, 8166.000000, 8181.000000, 8169.000000
2822, 3881968.000000, 1226.000000, 8167.000000, 8182.000000, 8171.000000
2823, 3882128.000000, 1166.750000, 8166.000000, 8181.000000, 8169.000000
2824, 3882288.000000, 1126.250000, 8168.000000, 8180.000000, 8171.000000
2825, 3882448.000000, 1154.500000, 8166.000000, 8179.000000, 8165.000000
2826, 3882608.000000, 1355.750000, 8165.000000, 8176.000000, 8163.000000
2827, 3882768.000000, 1743.000000, 8164.000000, 8175.000000, 8160.000000
2828, 3882928.000000, 2236.250000, 8167.000000, 8177.000000, 8164.000000
2829, 3883088.000000, 2671.000000, 8167.000000, 8178.000000, 8165.000000
2830, 3883248.000000, 2958.250000, 8168.000000, 8177.000000, 8164.000000
2831, 3883408.000000, 3078.250000, 8175.000000, 8184.000000, 8182.000000
2832, 3883568.000000, 3096.250000, 8179.000000, 8188.000000, 8190.000000
2833, 3883728.000000, 3066.250000, 8190.000000, 8194.000000, 8204.000000
2834, 3883888.000000, 3024.000000, 8190.000000, 8187.000000, 8185.000000
2835, 3884048.000000, 2950.750000, 8172.000000, 8176.000000, 8160.000000
2836, 3884208.000000, 2833.000000, 8166.000000, 8172.000000, 8150.000000
2837, 3884368.000000, 2693.750000, 8168.000000, 8172.000000, 8151.000000
2838, 3884528.000000, 2574.250000, 8162.000000, 8179.000000, 8154.000000
2839, 3884688.000000, 2502.500000, 8334.000000, 8226.000000, 8282.000000
2840, 3884848.000000, 2470.000000, 8296.000000, 8083.000000, 8177.000000
2841, 3885008.000000, 2456.250000, 8155.000000, 8110.000000, 8110.000000
2842, 3885168.000000, 2427.250000, 8162.000000, 8182.000000, 8157.000000
2843, 3885328.000000, 2371.000000, 8164.000000, 8190.000000, 8163.000000
2844, 3885488.000000, 2279.250000, 8169.000000, 8196.000000, 8174.000000
2845, 3885648.000000, 2167.250000, 8174.000000, 8199.000000, 8180.000000
2846, 3885808.000000, 2051.250000, 8181.000000, 8197.000000, 8179.000000
2847, 3885968.000000, 1944.000000, 8190.000000, 8200.000000, 8184.000000
2848, 3886128.000000, 1849.750000, 8201.000000, 8204.000000, 8191.000000
2849, 3886288.000000, 1774.750000, 8223.000000, 8209.000000, 8207.000000
2850, 3886448.000000, 1709.750000, 8245.000000, 8211.000000, 8217.000000
2851, 3886608.000000, 1658.250000, 8265.000000, 8215.000000, 8229.000000
2852, 3886768.000000, 1611.500000, 8268.000000, 8214.000000, 8232.000000
2853, 3886928.000000, 1569.250000, 8242.000000, 8214.000000, 8226.000000
2854, 3887088.000000, 1534.250000, 8195.000000, 8207.000000, 8200.000000
2855, 3887248.000000, 1504.000000, 8161.000000, 8196.000000, 8173.000000
2856, 3887408.000000, 1475.750000, 8149.000000, 8189.000000, 8160.000000
2857, 3887568.000000, 1445.500000, 8144.000000, 8187.000000, 8154.000000
2858, 3887728.000000, 1405.500000, 8145.000000, 8187.000000, 8155.000000
2859, 3887888.000000, 1354.500000, 8146.000000, 8190.000000, 8159.000000
2860, 3888048.000000, 1297.750000, 8146.000000, 8186.000000, 8153.000000
2861, 3888208.000000, 1244.750000, 8148.000000, 8186.000000, 8154.000000
2862, 3888368.000000, 1193.750000, 8145.000000, 8186.000000, 8152.000000
2863, 3888528.000000, 1172.500000, 8143.000000, 8186.000000, 8149.000000
2864, 3888688.000000, 1250.000000, 8141.000000, 8187.000000, 8150.000000
2865, 3888848.000000, 1510.750000, 8139.000000, 8187.000000, 8149.000000
2866, 3889008.000000, 1951.500000, 8137.000000, 8185.000000, 8144.000000
2867, 3889168.000000, 2456.000000, 8134.000000, 8185.000000, 8144.000000
2868, 3889328.000000, 2876.250000, 8135.000000, 8188.000000, 8147.000000
2869, 3889488.000000, 3134.750000, 8137.000000, 8194.000000, 8157.000000
2870, 3889648.000000, 3244.750000, 8143.000000, 8200.000000, 8173.000000
2871, 3889808.000000, 3265.000000, 8139.000000, 8199.000000, 8171.000000
2872, 3889968.000000, 3247.500000, 8150.000000, 8200.000000, 8171.000000
2873, 3890128.000000, 3208.000000, 8130.000000, 8190.000000, 8142.000000
2874, 3890288.000000, 3123.750000, 8120.000000, 8186.000000, 8131.000000
2875, 3890448.000000, 2993.250000, 8118.000000, 8185.000000, 8129.000000
2876, 3890608.000000, 2847.250000, 8118.000000, 8184.000000, 8126.000000
2877, 3890768.000000, 2729.000000, 8154.000000, 8228.000000, 8182.000000
2878, 3890928.000000, 2658.000000, 8397.000000, 8142.000000, 8242.000000
2879, 3891088.000000, 2625.500000, 8101.000000, 8069.000000, 8038.000000
2880, 3891248.000000, 2598.250000, 8104.000000, 8186.000000, 8125.000000
2881, 3891408.000000, 2551.000000, 8103.000000, 8197.000000, 8131.000000
2882, 3891568.000000, 2469.250000, 8109.000000, 8202.000000, 8140.000000
2883, 3891728.000000, 2361.000000, 8114.000000, 8205.000000, 8146.000000
2884, 3891888.000000, 2235.000000, 8122.000000, 8210.000000, 8157.000000
2885, 3892048.000000, 2111.250000, 8130.000000, 8208.000000, 8158.000000
2886, 3892208.000000, 2001.000000, 8140.000000, 8211.000000, 8164.000000
2887, 3892368.000000, 1908.500000, 8151.000000, 8215.000000, 8173.000000
2888, 3892528.000000, 1826.000000, 8176.000000, 8219.000000, 8188.000000
2889, 3892688.000000, 1756.750000, 8199.000000, 8223.000000, 8203.000000
2890, 3892848.000000, 1696.750000, 8207.000000, 8225.000000, 8212.000000
2891, 3893008.000000, 1641.250000, 8191.000000, 8223.000000, 8206.000000
2892, 3893168.000000, 1596.250000, 8144.000000, 8214.000000, 8181.000000
2893, 3893328.000000, 1555.500000, 8110.000000, 8205.000000, 8160.000000
2894, 3893488.000000, 1524.750000, 8094.000000, 8200.000000, 8150.000000
2895, 3893648.000000, 1494.500000, 8091.000000, 8197.000000, 8145.000000
2896, 3893808.000000, 1455.250000, 8090.000000, 8195.000000, 8144.000000
2897, 3893968.000000, 1406.000000, 8094.000000, 8194.000000, 8144.000000
2898, 3894128.000000, 1346.000000, 8096.000000, 8194.000000, 8145.000000
2899, 3894288.000000, 1289.500000, 8100.000000, 8195.000000, 8149.000000
2900, 3894448.000000, 1237.000000, 8103.000000, 8193.000000, 8149.000000
2901, 3894608.000000, 1196.000000, 8100.000000, 8192.000000, 8146.000000
2902, 3894768.000000, 1202.250000, 8102.000000, 8189.000000, 8144.000000
2903, 3894928.000000, 1331.250000, 8103.000000, 8191.000000, 8147.000000
2904, 3895088.000000, 1633.750000, 8103.000000, 8191.000000, 8147.000000
2905, 3895248.000000, 2078.750000, 8107.000000, 8191.000000, 8150.000000
2906, 3895408.000000, 2528.250000, 8108.000000, 8190.000000, 8149.000000
2907, 3895568.000000, 2863.250000, 8108.000000, 8187.000000, 8148.000000
2908, 3895728.000000, 3033.750000, 8114.000000, 8196.000000, 8167.000000
2909, 3895888.000000, 3076.000000, 8118.000000, 8199.000000, 8173.000000
2910, 3896048.000000, 3048.500000, 8139.000000, 8208.000000, 8198.000000
2911, 3896208.000000, 2988.500000, 8133.000000, 8199.000000, 8173.000000
2912, 3896368.000000, 2900.250000, 8118.000000, 8187.000000, 8149.000000
2913, 3896528.000000, 2774.750000, 8113.000000, 8187.000000, 8146.000000
2914, 3896688.000000, 2627.500000, 8117.000000, 8187.000000, 8148.000000
2915, 3896848.000000, 2504.750000, 8107.000000, 8196.000000, 8149.000000
2916, 3897008.000000, 2432.250000, 8335.000000, 8226.000000, 8288.000000
2917, 3897168.000000, 2410.750000, 8176.000000, 8128.000000, 8176.000000
2918, 3897328.000000, 2408.250000, 8101.000000, 8133.000000, 8108.000000
2919, 3897488.000000, 2388.250000, 8117.000000, 8196.000000, 8159.000000
2920, 3897648.000000, 2332.500000, 8124.000000, 8202.000000, 8166.000000
2921, 3897808.000000, 2238.500000, 8130.000000, 8205.000000, 8171.000000
2922, 3897968.000000, 2118.250000, 8140.000000, 8209.000000, 8180.000000
2923, 3898128.000000, 1995.750000, 8149.000000, 8210.000000, 8185.000000
2924, 3898288.000000, 1880.000000, 8158.000000, 8214.000000, 8195.000000
2925, 3898448.000000, 1777.750000, 8172.000000, 8218.000000, 8202.000000
2926, 3898608.000000, 1692.000000, 8194.000000, 8219.000000, 8212.000000
2927, 3898768.000000, 1619.500000, 8216.000000, 8220.000000, 8223.000000
2928, 3898928.000000, 1558.500000, 8231.000000, 8224.000000, 8233.000000
2929, 3899088.000000, 1509.500000, 8238.000000, 8225.000000, 8239.000000
2930, 3899248.000000, 1467.750000, 8212.000000, 8227.000000, 8241.000000
2931, 3899408.000000, 1436.250000, 8172.000000, 8226.000000, 8224.000000
2932, 3899568.000000, 1409.500000, 8139.000000, 8217.000000, 8203.000000
2933, 3899728.000000, 1383.000000, 8127.000000, 8211.000000, 8191.000000
2934, 3899888.000000, 1350.500000, 8125.000000, 8210.000000, 8191.000000
2935, 3900048.000000, 1308.000000, 8138.000000, 8208.000000, 8193.000000
2936, 3900208.000000, 1258.000000, 8133.000000, 8208.000000, 8192.000000
2937, 3900368.000000, 1203.750000, 8144.000000, 8205.000000, 8196.000000
2938, 3900528.000000, 1151.250000, 8142.000000, 8206.000000, 8194.000000
2939, 3900688.000000, 1098.000000, 8142.000000, 8208.000000, 8196.000000
2940, 3900848.000000, 1051.000000, 8147.000000, 8207.000000, 8196.000000
2941, 3901008.000000, 1057.250000, 8142.000000, 8204.000000, 8190.000000
2942, 3901168.000000, 1189.750000, 8142.000000, 8201.000000, 8189.000000
2943, 3901328.000000, 1507.750000, 8148.000000, 8202.000000, 8190.000000
2944, 3901488.000000, 1948.000000, 8149.000000, 8200.000000, 8189.000000
2945, 3901648.000000, 2377.750000, 8155.000000, 8203.000000, 8203.000000
2946, 3901808.000000, 2670.750000, 8159.000000, 8206.000000, 8209.000000
2947, 3901968.000000, 2804.500000, 8178.000000, 8211.000000, 8227.000000
2948, 3902128.000000, 2812.250000, 8170.000000, 8201.000000, 8201.000000
2949, 3902288.000000, 2758.250000, 8155.000000, 8162.000000, 8149.000000
2950, 3902448.000000, 2675.250000, 8152.000000, 8147.000000, 8134.000000
2951, 3902608.000000, 2552.250000, 8159.000000, 8148.000000, 8137.000000
2952, 3902768.000000, 2408.000000, 8148.000000, 8163.000000, 8145.000000
2953, 3902928.000000, 2270.500000, 8402.000000, 8189.000000, 8292.000000
2954, 3903088.000000, 2182.000000, 8150.000000, 8116.000000, 8157.000000
2955, 3903248.000000, 2156.250000, 8132.000000, 8105.000000, 8102.000000
2956, 3903408.000000, 2168.250000, 8159.000000, 8170.000000, 8157.000000
2957, 3903568.000000, 2177.250000, 8158.000000, 8176.000000, 8163.000000
2958, 3903728.000000, 2155.000000, 8164.000000, 8182.000000, 8171.000000
2959, 3903888.000000, 2090.500000, 8181.000000, 8187.000000, 8183.000000
2960, 3904048.000000, 1997.000000, 8185.000000, 8190.000000, 8190.000000
2961, 3904208.000000, 1892.250000, 8200.000000, 8190.000000, 8196.000000
2962, 3904368.000000, 1787.000000, 8210.000000, 8192.000000, 8199.000000
2963, 3904528.000000, 1692.750000, 8232.000000, 8194.000000, 8208.000000
2964, 3904688.000000, 1606.250000, 8255.000000, 8197.000000, 8222.000000
2965, 3904848.000000, 1530.500000, 8272.000000, 8196.000000, 8228.000000
2966, 3905008.000000, 1471.500000, 8268.000000, 8175.000000, 8209.000000
2967, 3905168.000000, 1424.250000, 8240.000000, 8174.000000, 8201.000000
2968, 3905328.000000, 1394.250000, 8195.000000, 8177.000000, 8190.000000
2969, 3905488.000000, 1380.500000, 8163.000000, 8174.000000, 8176.000000
2970, 3905648.000000, 1376.500000, 8167.000000, 8172.000000, 8172.000000
2971, 3905808.000000, 1368.500000, 8155.000000, 8172.000000, 8167.000000
2972, 3905968.000000, 1351.000000, 8167.000000, 8172.000000, 8174.000000
2973, 3906128.000000, 1319.750000, 8162.000000, 8176.000000, 8175.000000
2974, 3906288.000000, 1275.000000, 8165.000000, 8179.000000, 8178.000000
2975, 3906448.000000, 1217.750000, 8171.000000, 8181.000000, 8182.000000
2976, 3906608.000000, 1158.500000, 8167.000000, 8180.000000, 8180.000000
2977, 3906768.000000, 1107.000000, 8167.000000, 8182.000000, 8182.000000
2978, 3906928.000000, 1088.000000, 8163.000000, 8185.000000, 8179.000000
2979, 3907088.000000, 1147.250000, 8166.000000, 8182.000000, 8180.000000
2980, 3907248.000000, 1360.000000, 8172.000000, 8188.000000, 8188.000000
2981, 3907408.000000, 1717.500000, 8178.000000, 8191.000000, 8201.000000
2982, 3907568.000000, 2129.250000, 8183.000000, 8193.000000, 8206.000000
2983, 3907728.000000, 2458.750000, 8200.000000, 8194.000000, 8218.000000
2984, 3907888.000000, 2649.500000, 8176.000000, 8185.000000, 8187.000000
2985, 3908048.000000, 2711.500000, 8175.000000, 8181.000000, 8175.000000
2986, 3908208.000000, 2688.500000, 8180.000000, 8178.000000, 8171.000000
2987, 3908368.000000, 2616.500000, 8172.000000, 8179.000000, 8171.000000
2988, 3908528.000000, 2493.750000, 8186.000000, 8205.000000, 8202.000000
2989, 3908688.000000, 2335.500000, 8476.000000, 8167.000000, 8307.000000
2990, 3908848.000000, 2182.750000, 8142.000000, 8092.000000, 8120.000000
2991, 3909008.000000, 2085.250000, 8159.000000, 8158.000000, 8153.000000
2992, 3909168.000000, 2058.750000, 8176.000000, 8187.000000, 8176.000000
2993, 3909328.000000, 2081.000000, 8178.000000, 8194.000000, 8184.000000
2994, 3909488.000000, 2107.750000, 8186.000000, 8198.000000, 8191.000000
2995, 3909648.000000, 2110.750000, 8193.000000, 8199.000000, 8197.000000
2996, 3909808.000000, 2070.500000, 8203.000000, 8200.000000, 8200.000000
2997, 3909968.000000, 1992.750000, 8211.000000, 8201.000000, 8203.000000
2998, 3910128.000000, 1895.250000, 8226.000000, 8205.000000, 8213.000000
2999, 3910288.000000, 1793.250000, 8253.000000, 8208.000000, 8226.000000
3000, 3910448.000000, 1698.000000, 8274.000000, 8209.000000, 8237.000000
3001, 3910608.000000, 1616.750000, 8284.000000, 8210.000000, 8242.000000
3002, 3910768.000000, 1548.500000, 8276.000000, 8208.000000, 8239.000000
3003, 3910928.000000, 1494.000000, 8235.000000, 8210.000000, 8228.000000
3004, 3911088.000000, 1460.750000, 8200.000000, 8207.000000, 8215.000000
3005, 3911248.000000, 1443.000000, 8180.000000, 8203.000000, 8202.000000
3006, 3911408.000000, 1435.500000, 8170.000000, 8196.000000, 8191.000000
3007, 3911568.000000, 1425.750000, 8172.000000, 8196.000000, 8188.000000
3008, 3911728.000000, 1407.500000, 8176.000000, 8196.000000, 8191.000000
3009, 3911888.000000, 1372.750000, 8181.000000, 8197.000000, 8195.000000
3010, 3912048.000000, 1323.500000, 8179.000000, 8196.000000, 8191.000000
3011, 3912208.000000, 1267.500000, 8184.000000, 8195.000000, 8193.000000
3012, 3912368.000000, 1213.250000, 8184.000000, 8193.000000, 8189.000000
3013, 3912528.000000, 1167.750000, 8182.000000, 8195.000000, 8192.000000
3014, 3912688.000000, 1157.000000, 8182.000000, 8195.000000, 8190.000000
3015, 3912848.000000, 1268.250000, 8187.000000, 8194.000000, 8192.000000
3016, 3913008.000000, 1546.750000, 8182.000000, 8192.000000, 8185.000000
3017, 3913168.000000, 1959.000000, 8188.000000, 8200.000000, 8206.000000
3018, 3913328.000000, 2372.750000, 8198.000000, 8204.000000, 8215.000000
3019, 3913488.000000, 2677.500000, 8209.000000, 8211.000000, 8235.000000
3020, 3913648.000000, 2827.250000, 8204.000000, 8199.000000, 8202.000000
3021, 3913808.000000, 2859.500000, 8187.000000, 8189.000000, 8181.000000
3022, 3913968.000000, 2827.000000, 8182.000000, 8186.000000, 8175.000000
3023, 3914128.000000, 2749.750000, 8185.000000, 8186.000000, 8175.000000
3024, 3914288.000000, 2624.750000, 8174.000000, 8200.000000, 8183.000000
3025, 3914448.000000, 2456.750000, 8438.000000, 8218.000000, 8331.000000
3026, 3914608.000000, 2298.500000, 8185.000000, 8117.000000, 8161.000000
3027, 3914768.000000, 2196.000000, 8159.000000, 8133.000000, 8130.000000
3028, 3914928.000000, 2170.500000, 8180.000000, 8191.000000, 8178.000000
3029, 3915088.000000, 2189.000000, 8185.000000, 8200.000000, 8189.000000
3030, 3915248.000000, 2213.500000, 8189.000000, 8202.000000, 8195.000000
3031, 3915408.000000, 2202.500000, 8199.000000, 8206.000000, 8202.000000
3032, 3915568.000000, 2147.250000, 8205.000000, 8206.000000, 8204.000000
3033, 3915728.000000, 2057.750000, 8218.000000, 8207.000000, 8209.000000
3034, 3915888.000000, 1952.750000, 8225.000000, 8211.000000, 8216.000000
3035, 3916048.000000, 1846.000000, 8245.000000, 8214.000000, 8228.000000
3036, 3916208.000000, 1750.000000, 8270.000000, 8218.000000, 8241.000000
3037, 3916368.000000, 1667.750000, 8284.000000, 8217.000000, 8247.000000
3038, 3916528.000000, 1600.250000, 8284.000000, 8220.000000, 8252.000000
3039, 3916688.000000, 1547.250000, 8252.000000, 8220.000000, 8245.000000
3040, 3916848.000000, 1507.250000, 8211.000000, 8216.000000, 8226.000000
3041, 3917008.000000, 1481.250000, 8183.000000, 8206.000000, 8205.000000
3042, 3917168.000000, 1464.500000, 8172.000000, 8200.000000, 8194.000000
3043, 3917328.000000, 1449.750000, 8170.000000, 8197.000000, 8188.000000
3044, 3917488.000000, 1429.000000, 8178.000000, 8197.000000, 8191.000000
3045, 3917648.000000, 1390.750000, 8178.000000, 8198.000000, 8194.000000
3046, 3917808.000000, 1337.000000, 8181.000000, 8194.000000, 8190.000000
3047, 3917968.000000, 1284.250000, 8182.000000, 8195.000000, 8192.000000
3048, 3918128.000000, 1226.750000, 8185.000000, 8192.000000, 8187.000000
3049, 3918288.000000, 1186.000000, 8182.000000, 8191.000000, 8188.000000
3050, 3918448.000000, 1267.000000, 8182.000000, 8189.000000, 8186.000000
3051, 3918608.000000, 1547.750000, 8180.000000, 8189.000000, 8184.000000
3052, 3918768.000000, 1992.000000, 8182.000000, 8191.000000, 8188.000000
3053, 3918928.000000, 2498.250000, 8184.000000, 8193.000000, 8189.000000
3054, 3919088.000000, 2910.000000, 8190.000000, 8203.000000, 8209.000000
3055, 3919248.000000, 3119.250000, 8197.000000, 8207.000000, 8221.000000
3056, 3919408.000000, 3127.750000, 8213.000000, 8213.000000, 8240.000000
3057, 3919568.000000, 3085.500000, 8199.000000, 8196.000000, 8200.000000
3058, 3919728.000000, 3013.000000, 8186.000000, 8188.000000, 8181.000000
3059, 3919888.000000, 2895.000000, 8185.000000, 8187.000000, 8178.000000
3060, 3920048.000000, 2734.750000, 8188.000000, 8190.000000, 8183.000000
3061, 3920208.000000, 2582.000000, 8182.000000, 8206.000000, 8193.000000
3062, 3920368.000000, 2486.750000, 8475.000000, 8209.000000, 8339.000000
3063, 3920528.000000, 2458.750000, 8181.000000, 8095.000000, 8137.000000
3064, 3920688.000000, 2459.750000, 8169.000000, 8155.000000, 8155.000000
3065, 3920848.000000, 2453.500000, 8181.000000, 8199.000000, 8187.000000
3066, 3921008.000000, 2409.250000, 8187.000000, 8205.000000, 8195.000000
3067, 3921168.000000, 2327.500000, 8192.000000, 8206.000000, 8199.000000
3068, 3921328.000000, 2214.750000, 8200.000000, 8209.000000, 8204.000000
3069, 3921488.000000, 2096.000000, 8205.000000, 8211.000000, 8209.000000
3070, 3921648.000000, 1979.250000, 8217.000000, 8214.000000, 8218.000000
3071, 3921808.000000, 1876.750000, 8228.000000, 8218.000000, 8227.000000
3072, 3921968.000000, 1790.250000, 8248.000000, 8220.000000, 8234.000000
3073, 3922128.000000, 1714.250000, 8270.000000, 8223.000000, 8246.000000
3074, 3922288.000000, 1649.000000, 8288.000000, 8226.000000, 8257.000000
3075, 3922448.000000, 1598.750000, 8284.000000, 8226.000000, 8262.000000
3076, 3922608.000000, 1560.250000, 8247.000000, 8224.000000, 8246.000000
3077, 3922768.000000, 1534.500000, 8207.000000, 8215.000000, 8220.000000
3078, 3922928.000000, 1511.250000, 8183.000000, 8205.000000, 8202.000000
3079, 3923088.000000, 1480.500000, 8175.000000, 8202.000000, 8196.000000
3080, 3923248.000000, 1439.750000, 8177.000000, 8202.000000, 8195.000000
3081, 3923408.000000, 1386.750000, 8176.000000, 8203.000000, 8194.000000
3082, 3923568.000000, 1320.750000, 8180.000000, 8202.000000, 8195.000000
3083, 3923728.000000, 1251.000000, 8184.000000, 8202.000000, 8194.000000
3084, 3923888.000000, 1185.750000, 8184.000000, 8200.000000, 8196.000000
3085, 3924048.000000, 1157.000000, 8183.000000, 8199.000000, 8194.000000
3086, 3924208.000000, 1231.750000, 8183.000000, 8200.000000, 8193.000000
3087, 3924368.000000, 1511.500000, 8187.000000, 8196.000000, 8192.000000
3088, 3924528.000000, 1973.250000, 8183.000000, 8196.000000, 8189.000000
3089, 3924688.000000, 2497.750000, 8185.000000, 8196.000000, 8189.000000
3090, 3924848.000000, 2918.500000, 8189.000000, 8200.000000, 8199.000000
3091, 3925008.000000, 3167.500000, 8194.000000, 8205.000000, 8213.000000
3092, 3925168.000000, 3255.250000, 8196.000000, 8205.000000, 8215.000000
3093, 3925328.000000, 3255.250000, 8211.000000, 8208.000000, 8224.000000
3094, 3925488.000000, 3220.250000, 8195.000000, 8197.000000, 8194.000000
3095, 3925648.000000, 3160.000000, 8188.000000, 8190.000000, 8181.000000
3096, 3925808.000000, 3055.000000, 8187.000000, 8189.000000, 8179.000000
3097, 3925968.000000, 2900.250000, 8189.000000, 8188.000000, 8179.000000
3098, 3926128.000000, 2740.750000, 8211.000000, 8224.000000, 8222.000000
3099, 3926288.000000, 2623.250000, 8486.000000, 8157.000000, 8300.000000
3100, 3926448.000000, 2567.500000, 8167.000000, 8067.000000, 8089.000000
3101, 3926608.000000, 2548.750000, 8176.000000, 8180.000000, 8171.000000
3102, 3926768.000000, 2531.000000, 8182.000000, 8198.000000, 8185.000000
3103, 3926928.000000, 2474.250000, 8187.000000, 8203.000000, 8191.000000
3104, 3927088.000000, 2381.750000, 8197.000000, 8209.000000, 8204.000000
3105, 3927248.000000, 2264.250000, 8203.000000, 8210.000000, 8210.000000
3106, 3927408.000000, 2138.250000, 8213.000000, 8214.000000, 8219.000000
3107, 3927568.000000, 2015.750000, 8222.000000, 8216.000000, 8225.000000
3108, 3927728.000000, 1906.500000, 8239.000000, 8219.000000, 8235.000000
3109, 3927888.000000, 1813.500000, 8261.000000, 8224.000000, 8249.000000
3110, 3928048.000000, 1733.500000, 8288.000000, 8228.000000, 8265.000000
3111, 3928208.000000, 1666.500000, 8300.000000, 8227.000000, 8270.000000
3112, 3928368.000000, 1608.250000, 8285.000000, 8225.000000, 8264.000000
3113, 3928528.000000, 1567.750000, 8240.000000, 8221.000000, 8246.000000
3114, 3928688.000000, 1535.250000, 8202.000000, 8214.000000, 8224.000000
3115, 3928848.000000, 1504.500000, 8188.000000, 8205.000000, 8209.000000
3116, 3929008.000000, 1465.250000, 8179.000000, 8202.000000, 8202.000000
3117, 3929168.000000, 1418.250000, 8179.000000, 8200.000000, 8197.000000
3118, 3929328.000000, 1358.250000, 8179.000000, 8199.000000, 8196.000000
3119, 3929488.000000, 1293.500000, 8182.000000, 8201.000000, 8198.000000
3120, 3929648.000000, 1225.000000, 8188.000000, 8199.000000, 8201.000000
3121, 3929808.000000, 1163.250000, 8186.000000, 8199.000000, 8200.000000
3122, 3929968.000000, 1146.500000, 8185.000000, 8194.000000, 8191.000000
3123, 3930128.000000, 1249.500000, 8185.000000, 8194.000000, 8191.000000
3124, 3930288.000000, 1566.750000, 8186.000000, 8195.000000, 8194.000000
3125, 3930448.000000, 2050.500000, 8186.000000, 8197.000000, 8196.000000
3126, 3930608.000000, 2569.500000, 8188.000000, 8199.000000, 8199.000000
3127, 3930768.000000, 2971.500000, 8187.000000, 8207.000000, 8205.000000
3128, 3930928.000000, 3199.000000, 8189.000000, 8213.000000, 8216.000000
3129, 3931088.000000, 3275.500000, 8196.000000, 8224.000000, 8236.000000
3130, 3931248.000000, 3268.500000, 8196.000000, 8223.000000, 8237.000000
3131, 3931408.000000, 3235.250000, 8212.000000, 8224.000000, 8242.000000
3132, 3931568.000000, 3174.750000, 8188.000000, 8208.000000, 8203.000000
3133, 3931728.000000, 3057.750000, 8182.000000, 8200.000000, 8189.000000
3134, 3931888.000000, 2893.500000, 8181.000000, 8198.000000, 8188.000000
3135, 3932048.000000, 2724.000000, 8184.000000, 8200.000000, 8192.000000
3136, 3932208.000000, 2599.750000, 8214.000000, 8236.000000, 8238.000000
3137, 3932368.000000, 2535.750000, 8476.000000, 8154.000000, 8302.000000
3138, 3932528.000000, 2509.000000, 8165.000000, 8069.000000, 8088.000000
3139, 3932688.000000, 2483.250000, 8171.000000, 8189.000000, 8180.000000
3140, 3932848.000000, 2424.250000, 8178.000000, 8207.000000, 8195.000000
3141, 3933008.000000, 2331.500000, 8183.000000, 8210.000000, 8201.000000
3142, 3933168.000000, 2208.250000, 8187.000000, 8208.000000, 8200.000000
3143, 3933328.000000, 2071.750000, 8195.000000, 8209.000000, 8206.000000
3144, 3933488.000000, 1942.500000, 8205.000000, 8212.000000, 8214.000000
3145, 3933648.000000, 1829.500000, 8213.000000, 8216.000000, 8223.000000
3146, 3933808.000000, 1732.750000, 8230.000000, 8218.000000, 8230.000000
3147, 3933968.000000, 1652.250000, 8252.000000, 8222.000000, 8243.000000
3148, 3934128.000000, 1582.500000, 8276.000000, 8224.000000, 8255.000000
3149, 3934288.000000, 1521.750000, 8286.000000, 8225.000000, 8261.000000
3150, 3934448.000000, 1471.500000, 8273.000000, 8224.000000, 8259.000000
3151, 3934608.000000, 1430.750000, 8227.000000, 8216.000000, 8236.000000
3152, 3934768.000000, 1393.250000, 8189.000000, 8203.000000, 8206.000000
3153, 3934928.000000, 1359.500000, 8173.000000, 8194.000000, 8189.000000
3154, 3935088.000000, 1317.750000, 8167.000000, 8191.000000, 8182.000000
3155, 3935248.000000, 1266.000000, 8167.000000, 8191.000000, 8182.000000
3156, 3935408.000000, 1205.250000, 8166.000000, 8188.000000, 8178.000000
3157, 3935568.000000, 1143.000000, 8167.000000, 8186.000000, 8175.000000
3158, 3935728.000000, 1083.750000, 8170.000000, 8185.000000, 8174.000000
3159, 3935888.000000, 1032.250000, 8173.000000, 8183.000000, 8174.000000
3160, 3936048.000000, 1027.250000, 8170.000000, 8181.000000, 8170.000000
3161, 3936208.000000, 1155.750000, 8170.000000, 8179.000000, 8168.000000
3162, 3936368.000000, 1500.750000, 8169.000000, 8177.000000, 8165.000000
3163, 3936528.000000, 2003.500000, 8172.000000, 8177.000000, 8169.000000
3164, 3936688.000000, 2534.250000, 8173.000000, 8177.000000, 8168.000000
3165, 3936848.000000, 2944.000000, 8175.000000, 8177.000000, 8171.000000
3166, 3937008.000000, 3178.500000, 8177.000000, 8177.000000, 8172.000000
3167, 3937168.000000, 3259.500000, 8184.000000, 8185.000000, 8189.000000
3168, 3937328.000000, 3261.750000, 8187.000000, 8185.000000, 8193.000000
3169, 3937488.000000, 3234.000000, 8205.000000, 8191.000000, 8207.000000
3170, 3937648.000000, 3178.250000, 8189.000000, 8180.000000, 8177.000000
3171, 3937808.000000, 3073.500000, 8176.000000, 8170.000000, 8157.000000
3172, 3937968.000000, 2918.250000, 8172.000000, 8166.000000, 8150.000000
3173, 3938128.000000, 2761.250000, 8175.000000, 8167.000000, 8151.000000
3174, 3938288.000000, 2644.250000, 8177.000000, 8189.000000, 8172.000000
3175, 3938448.000000, 2583.250000, 8496.000000, 8167.000000, 8315.000000
3176, 3938608.000000, 2551.750000, 8201.000000, 8028.000000, 8079.000000
3177, 3938768.000000, 2518.000000, 8164.000000, 8147.000000, 8140.000000
3178, 3938928.000000, 2451.250000, 8166.000000, 8178.000000, 8158.000000
3179, 3939088.000000, 2351.250000, 8172.000000, 8182.000000, 8164.000000
3180, 3939248.000000, 2223.500000, 8180.000000, 8186.000000, 8173.000000
3181, 3939408.000000, 2090.250000, 8186.000000, 8187.000000, 8178.000000
3182, 3939568.000000, 1967.750000, 8195.000000, 8187.000000, 8182.000000
3183, 3939728.000000, 1861.250000, 8206.000000, 8189.000000, 8189.000000
3184, 3939888.000000, 1767.750000, 8220.000000, 8194.000000, 8200.000000
3185, 3940048.000000, 1688.000000, 8242.000000, 8201.000000, 8217.000000
3186, 3940208.000000, 1613.000000, 8266.000000, 8203.000000, 8229.000000
3187, 3940368.000000, 1550.500000, 8279.000000, 8203.000000, 8236.000000
3188, 3940528.000000, 1499.750000, 8274.000000, 8203.000000, 8235.000000
3189, 3940688.000000, 1461.750000, 8235.000000, 8199.000000, 8219.000000
3190, 3940848.000000, 1430.000000, 8197.000000, 8190.000000, 8196.000000
3191, 3941008.000000, 1396.500000, 8172.000000, 8180.000000, 8174.000000
3192, 3941168.000000, 1356.500000, 8164.000000, 8175.000000, 8164.000000
3193, 3941328.000000, 1303.750000, 8160.000000, 8172.000000, 8158.000000
3194, 3941488.000000, 1239.500000, 8167.000000, 8174.000000, 8167.000000
3195, 3941648.000000, 1174.000000, 8171.000000, 8175.000000, 8168.000000
3196, 3941808.000000, 1114.750000, 8172.000000, 8174.000000, 8168.000000
3197, 3941968.000000, 1063.500000, 8173.000000, 8171.000000, 8164.000000
3198, 3942128.000000, 1032.250000, 8171.000000, 8170.000000, 8161.000000
3199, 3942288.000000, 1084.500000, 8170.000000, 8170.000000, 8161.000000
3200, 3942448.000000, 1298.250000, 8172.000000, 8171.000000, 8163.000000
3201, 3942608.000000, 1710.500000, 8172.000000, 8170.000000, 8162.000000
3202, 3942768.000000, 2223.750000, 8175.000000, 8168.000000, 8162.000000
3203, 3942928.000000, 2688.500000, 8173.000000, 8168.000000, 8159.000000
3204, 3943088.000000, 2996.750000, 8177.000000, 8168.000000, 8163.000000
3205, 3943248.000000, 3141.250000, 8184.000000, 8177.000000, 8181.000000
3206, 3943408.000000, 3172.000000, 8186.000000, 8180.000000, 8189.000000
3207, 3943568.000000, 3148.000000, 8203.000000, 8186.000000, 8206.000000
3208, 3943728.000000, 3094.000000, 8195.000000, 8177.000000, 8180.000000
3209, 3943888.000000, 2999.000000, 8177.000000, 8166.000000, 8155.000000
3210, 3944048.000000, 2858.750000, 8175.000000, 8165.000000, 8151.000000
3211, 3944208.000000, 2700.500000, 8177.000000, 8166.000000, 8153.000000
3212, 3944368.000000, 2572.250000, 8164.000000, 8173.000000, 8152.000000
3213, 3944528.000000, 2502.000000, 8400.000000, 8207.000000, 8299.000000
3214, 3944688.000000, 2472.750000, 8258.000000, 8054.000000, 8141.000000
3215, 3944848.000000, 2454.750000, 8167.000000, 8122.000000, 8130.000000
3216, 3945008.000000, 2415.000000, 8165.000000, 8177.000000, 8156.000000
3217, 3945168.000000, 2331.750000, 8170.000000, 8183.000000, 8166.000000
3218, 3945328.000000, 2215.000000, 8176.000000, 8185.000000, 8170.000000
3219, 3945488.000000, 2083.750000, 8185.000000, 8189.000000, 8180.000000
3220, 3945648.000000, 1952.000000, 8195.000000, 8192.000000, 8189.000000
3221, 3945808.000000, 1832.500000, 8204.000000, 8195.000000, 8196.000000
3222, 3945968.000000, 1733.500000, 8215.000000, 8199.000000, 8203.000000
3223, 3946128.000000, 1650.750000, 8231.000000, 8201.000000, 8210.000000
3224, 3946288.000000, 1584.250000, 8254.000000, 8207.000000, 8225.000000
3225, 3946448.000000, 1526.750000, 8275.000000, 8212.000000, 8242.000000
3226, 3946608.000000, 1476.750000, 8277.000000, 8214.000000, 8248.000000
3227, 3946768.000000, 1434.500000, 8245.000000, 8212.000000, 8236.000000
3228, 3946928.000000, 1402.750000, 8203.000000, 8202.000000, 8212.000000
3229, 3947088.000000, 1375.000000, 8174.000000, 8194.000000, 8191.000000
3230, 3947248.000000, 1342.500000, 8165.000000, 8191.000000, 8184.000000
3231, 3947408.000000, 1300.000000, 8163.000000, 8192.000000, 8182.000000
3232, 3947568.000000, 1245.000000, 8165.000000, 8189.000000, 8182.000000
3233, 3947728.000000, 1181.500000, 8169.000000, 8189.000000, 8183.000000
3234, 3947888.000000, 1117.250000, 8169.000000, 8190.000000, 8184.000000
3235, 3948048.000000, 1061.250000, 8170.000000, 8190.000000, 8185.000000
3236, 3948208.000000, 1011.000000, 8167.000000, 8191.000000, 8184.000000
3237, 3948368.000000, 1008.000000, 8170.000000, 8188.000000, 8181.000000
3238, 3948528.000000, 1113.000000, 8168.000000, 8188.000000, 8181.000000
3239, 3948688.000000, 1411.000000, 8167.000000, 8187.000000, 8178.000000
3240, 3948848.000000, 1859.500000, 8170.000000, 8189.000000, 8184.000000
3241, 3949008.000000, 2341.500000, 8173.000000, 8190.000000, 8185.000000
3242, 3949168.000000, 2712.000000, 8171.000000, 8189.000000, 8184.000000
3243, 3949328.000000, 2923.500000, 8177.000000, 8197.000000, 8202.000000
3244, 3949488.000000, 2981.250000, 8180.000000, 8198.000000, 8205.000000
3245, 3949648.000000, 2956.750000, 8201.000000, 8207.000000, 8228.000000
3246, 3949808.000000, 2891.250000, 8186.000000, 8195.000000, 8194.000000
3247, 3949968.000000, 2784.000000, 8171.000000, 8185.000000, 8176.000000
3248, 3950128.000000, 2637.250000, 8168.000000, 8184.000000, 8171.000000
3249, 3950288.000000, 2474.250000, 8172.000000, 8188.000000, 8178.000000
3250, 3950448.000000, 2345.750000, 8169.000000, 8207.000000, 8193.000000
3251, 3950608.000000, 2273.750000, 8484.000000, 8197.000000, 8337.000000
3252, 3950768.000000, 2259.000000, 8175.000000, 8093.000000, 8143.000000
3253, 3950928.000000, 2260.000000, 8155.000000, 8160.000000, 8157.000000
3254, 3951088.000000, 2249.500000, 8164.000000, 8198.000000, 8181.000000
3255, 3951248.000000, 2194.500000, 8169.000000, 8205.000000, 8191.000000
3256, 3951408.000000, 2101.000000, 8175.000000, 8209.000000, 8201.000000
3257, 3951568.000000, 1984.750000, 8184.000000, 8213.000000, 8207.000000
3258, 3951728.000000, 1861.250000, 8191.000000, 8213.000000, 8208.000000
3259, 3951888.000000, 1746.250000, 8203.000000, 8217.000000, 8219.000000
3260, 3952048.000000, 1641.000000, 8215.000000, 8219.000000, 8225.000000
3261, 3952208.000000, 1550.000000, 8234.000000, 8222.000000, 8235.000000
3262, 3952368.000000, 1473.250000, 8257.000000, 8223.000000, 8245.000000
3263, 3952528.000000, 1409.250000, 8267.000000, 8226.000000, 8251.000000
3264, 3952688.000000, 1354.750000, 8263.000000, 8226.000000, 8256.000000
3265, 3952848.000000, 1314.500000, 8230.000000, 8228.000000, 8246.000000
3266, 3953008.000000, 1284.500000, 8189.000000, 8226.000000, 8231.000000
3267, 3953168.000000, 1259.250000, 8160.000000, 8217.000000, 8211.000000
3268, 3953328.000000, 1231.000000, 8157.000000, 8211.000000, 8203.000000
3269, 3953488.000000, 1193.750000, 8161.000000, 8214.000000, 8205.000000
3270, 3953648.000000, 1151.500000, 8159.000000, 8212.000000, 8207.000000
3271, 3953808.000000, 1098.500000, 8165.000000, 8212.000000, 8209.000000
3272, 3953968.000000, 1041.750000, 8164.000000, 8212.000000, 8207.000000
3273, 3954128.000000, 989.000000, 8166.000000, 8210.000000, 8204.000000
3274, 3954288.000000, 939.750000, 8162.000000, 8209.000000, 8202.000000
3275, 3954448.000000, 917.250000, 8162.000000, 8209.000000, 8204.000000
3276, 3954608.000000, 982.750000, 8161.000000, 8210.000000, 8203.000000
3277, 3954768.000000, 1208.750000, 8165.000000, 8207.000000, 8200.000000
3278, 3954928.000000, 1593.750000, 8162.000000, 8206.000000, 8199.000000
3279, 3955088.000000, 2039.500000, 8166.000000, 8204.000000, 8198.000000
3280, 3955248.000000, 2408.500000, 8169.000000, 8215.000000, 8213.000000
3281, 3955408.000000, 2621.000000, 8172.000000, 8218.000000, 8224.000000
3282, 3955568.000000, 2688.000000, 8180.000000, 8217.000000, 8230.000000
3283, 3955728.000000, 2668.500000, 8191.000000, 8215.000000, 8227.000000
3284, 3955888.000000, 2592.500000, 8167.000000, 8202.000000, 8193.000000
3285, 3956048.000000, 2466.500000, 8163.000000, 8202.000000, 8190.000000
3286, 3956208.000000, 2301.500000, 8168.000000, 8201.000000, 8190.000000
3287, 3956368.000000, 2138.000000, 8167.000000, 8201.000000, 8190.000000
3288, 3956528.000000, 2031.000000, 8253.000000, 8243.000000, 8265.000000
3289, 3956688.000000, 2006.000000, 8330.000000, 8181.000000, 8280.000000
3290, 3956848.000000, 2033.750000, 8129.000000, 8106.000000, 8111.000000
3291, 3957008.000000, 2069.250000, 8159.000000, 8191.000000, 8178.000000
3292, 3957168.000000, 2079.250000, 8164.000000, 8204.000000, 8189.000000
3293, 3957328.000000, 2047.750000, 8169.000000, 8205.000000, 8191.000000
3294, 3957488.000000, 1975.250000, 8173.000000, 8206.000000, 8199.000000
3295, 3957648.000000, 1882.000000, 8188.000000, 8210.000000, 8207.000000
3296, 3957808.000000, 1784.500000, 8192.000000, 8211.000000, 8212.000000
3297, 3957968.000000, 1693.250000, 8206.000000, 8211.000000, 8217.000000
3298, 3958128.000000, 1613.250000, 8220.000000, 8210.000000, 8220.000000
3299, 3958288.000000, 1546.000000, 8242.000000, 8211.000000, 8227.000000
3300, 3958448.000000, 1489.250000, 8261.000000, 8211.000000, 8238.000000
3301, 3958608.000000, 1438.000000, 8270.000000, 8214.000000, 8245.000000
3302, 3958768.000000, 1398.750000, 8255.000000, 8215.000000, 8242.000000
3303, 3958928.000000, 1369.750000, 8214.000000, 8209.000000, 8227.000000
3304, 3959088.000000, 1350.000000, 8175.000000, 8204.000000, 8206.000000
3305, 3959248.000000, 1336.750000, 8158.000000, 8173.000000, 8173.000000
3306, 3959408.000000, 1320.000000, 8158.000000, 8172.000000, 8165.000000
3307, 3959568.000000, 1294.750000, 8158.000000, 8171.000000, 8166.000000
3308, 3959728.000000, 1259.750000, 8161.000000, 8172.000000, 8167.000000
3309, 3959888.000000, 1214.750000, 8163.000000, 8174.000000, 8172.000000
3310, 3960048.000000, 1163.250000, 8169.000000, 8175.000000, 8175.000000
3311, 3960208.000000, 1107.500000, 8162.000000, 8181.000000, 8176.000000
3312, 3960368.000000, 1057.250000, 8161.000000, 8178.000000, 8173.000000
3313, 3960528.000000, 1045.500000, 8154.000000, 8177.000000, 8171.000000
3314, 3960688.000000, 1146.500000, 8159.000000, 8178.000000, 8175.000000
3315, 3960848.000000, 1408.000000, 8163.000000, 8184.000000, 8180.000000
3316, 3961008.000000, 1816.250000, 8161.000000, 8193.000000, 8193.000000
3317, 3961168.000000, 2237.250000, 8172.000000, 8196.000000, 8204.000000
3318, 3961328.000000, 2557.250000, 8182.000000, 8199.000000, 8215.000000
3319, 3961488.000000, 2717.750000, 8184.000000, 8193.000000, 8203.000000
3320, 3961648.000000, 2755.750000, 8167.000000, 8184.000000, 8179.000000
3321, 3961808.000000, 2715.750000, 8162.000000, 8185.000000, 8172.000000
3322, 3961968.000000, 2622.250000, 8165.000000, 8182.000000, 8171.000000
3323, 3962128.000000, 2483.250000, 8161.000000, 8181.000000, 8168.000000
3324, 3962288.000000, 2313.000000, 8264.000000, 8230.000000, 8259.000000
3325, 3962448.000000, 2170.250000, 8295.000000, 8167.000000, 8253.000000
3326, 3962608.000000, 2093.250000, 8122.000000, 8093.000000, 8093.000000
3327, 3962768.000000, 2089.750000, 8152.000000, 8182.000000, 8165.000000
3328, 3962928.000000, 2126.750000, 8165.000000, 8192.000000, 8175.000000
3329, 3963088.000000, 2165.750000, 8166.000000, 8196.000000, 8184.000000
3330, 3963248.000000, 2162.250000, 8178.000000, 8197.000000, 8187.000000
3331, 3963408.000000, 2115.500000, 8182.000000, 8201.000000, 8196.000000
3332, 3963568.000000, 2029.500000, 8192.000000, 8200.000000, 8195.000000
3333, 3963728.000000, 1928.750000, 8209.000000, 8204.000000, 8208.000000
3334, 3963888.000000, 1825.250000, 8218.000000, 8203.000000, 8213.000000
3335, 3964048.000000, 1731.000000, 8239.000000, 8207.000000, 8221.000000
3336, 3964208.000000, 1648.500000, 8267.000000, 8209.000000, 8236.000000
3337, 3964368.000000, 1577.750000, 8268.000000, 8208.000000, 8236.000000
3338, 3964528.000000, 1522.750000, 8249.000000, 8209.000000, 8238.000000
3339, 3964688.000000, 1484.250000, 8208.000000, 8210.000000, 8222.000000
3340, 3964848.000000, 1460.000000, 8175.000000, 8206.000000, 8206.000000
3341, 3965008.000000, 1447.250000, 8165.000000, 8199.000000, 8194.000000
3342, 3965168.000000, 1437.250000, 8155.000000, 8195.000000, 8188.000000
3343, 3965328.000000, 1421.000000, 8160.000000, 8195.000000, 8189.000000
3344, 3965488.000000, 1391.000000, 8163.000000, 8195.000000, 8189.000000
3345, 3965648.000000, 1344.500000, 8167.000000, 8197.000000, 8192.000000
3346, 3965808.000000, 1286.750000, 8166.000000, 8195.000000, 8193.000000
3347, 3965968.000000, 1232.500000, 8168.000000, 8194.000000, 8191.000000
3348, 3966128.000000, 1183.250000, 8181.000000, 8201.000000, 8213.000000
3349, 3966288.000000, 1169.000000, 8183.000000, 8205.000000, 8222.000000
3350, 3966448.000000, 1249.750000, 8189.000000, 8204.000000, 8225.000000
3351, 3966608.000000, 1513.000000, 8191.000000, 8203.000000, 8223.000000
3352, 3966768.000000, 1921.250000, 8194.000000, 8210.000000, 8236.000000
3353, 3966928.000000, 2370.750000, 8195.000000, 8212.000000, 8241.000000
3354, 3967088.000000, 2717.250000, 8213.000000, 8217.000000, 8258.000000
3355, 3967248.000000, 2910.500000, 8201.000000, 8205.000000, 8224.000000
3356, 3967408.000000, 2963.500000, 8185.000000, 8194.000000, 8202.000000
3357, 3967568.000000, 2935.250000, 8180.000000, 8189.000000, 8192.000000
3358, 3967728.000000, 2858.750000, 8183.000000, 8188.000000, 8189.000000
3359, 3967888.000000, 2729.000000, 8175.000000, 8198.000000, 8190.000000
3360, 3968048.000000, 2557.000000, 8442.000000, 8217.000000, 8335.000000
3361, 3968208.000000, 2385.500000, 8172.000000, 8116.000000, 8166.000000
3362, 3968368.000000, 2278.000000, 8157.000000, 8138.000000, 8142.000000
3363, 3968528.000000, 2252.250000, 8176.000000, 8187.000000, 8180.000000
3364, 3968688.000000, 2279.000000, 8180.000000, 8196.000000, 8187.000000
3365, 3968848.000000, 2310.000000, 8183.000000, 8196.000000, 8191.000000
3366, 3969008.000000, 2305.250000, 8194.000000, 8200.000000, 8200.000000
3367, 3969168.000000, 2255.000000, 8199.000000, 8199.000000, 8197.000000
3368, 3969328.000000, 2172.500000, 8205.000000, 8200.000000, 8202.000000
3369, 3969488.000000, 2066.000000, 8221.000000, 8201.000000, 8209.000000
3370, 3969648.000000, 1958.500000, 8237.000000, 8205.000000, 8218.000000
3371, 3969808.000000, 1860.000000, 8262.000000, 8207.000000, 8227.000000
3372, 3969968.000000, 1773.500000, 8274.000000, 8205.000000, 8231.000000
3373, 3970128.000000, 1694.000000, 8269.000000, 8205.000000, 8233.000000
3374, 3970288.000000, 1629.750000, 8242.000000, 8203.000000, 8221.000000
3375, 3970448.000000, 1583.750000, 8199.000000, 8200.000000, 8204.000000
3376, 3970608.000000, 1557.000000, 8174.000000, 8192.000000, 8187.000000
3377, 3970768.000000, 1541.500000, 8166.000000, 8186.000000, 8176.000000
3378, 3970928.000000, 1525.750000, 8162.000000, 8185.000000, 8172.000000
3379, 3971088.000000, 1500.500000, 8168.000000, 8186.000000, 8175.000000
3380, 3971248.000000, 1463.000000, 8169.000000, 8186.000000, 8176.000000
3381, 3971408.000000, 1410.750000, 8174.000000, 8187.000000, 8178.000000
3382, 3971568.000000, 1347.250000, 8170.000000, 8185.000000, 8174.000000
3383, 3971728.000000, 1285.750000, 8169.000000, 8182.000000, 8170.000000
3384, 3971888.000000, 1247.750000, 8171.000000, 8179.000000, 8168.000000
3385, 3972048.000000, 1285.000000, 8169.000000, 8181.000000, 8169.000000
3386, 3972208.000000, 1507.250000, 8171.000000, 8181.000000, 8170.000000
3387, 3972368.000000, 1915.500000, 8170.000000, 8183.000000, 8172.000000
3388, 3972528.000000, 2426.500000, 8181.000000, 8188.000000, 8186.000000
3389, 3972688.000000, 2873.250000, 8178.000000, 8190.000000, 8190.000000
3390, 3972848.000000, 3162.250000, 8197.000000, 8197.000000, 8209.000000
3391, 3973008.000000, 3280.250000, 8182.000000, 8183.000000, 8172.000000
3392, 3973168.000000, 3292.500000, 8171.000000, 8175.000000, 8156.000000
3393, 3973328.000000, 3253.500000, 8168.000000, 8172.000000, 8151.000000
3394, 3973488.000000, 3179.250000, 8170.000000, 8173.000000, 8152.000000
3395, 3973648.000000, 3054.750000, 8178.000000, 8198.000000, 8180.000000
3396, 3973808.000000, 2882.500000, 8484.000000, 8168.000000, 8300.000000
3397, 3973968.000000, 2721.750000, 8155.000000, 8061.000000, 8085.000000
3398, 3974128.000000, 2618.250000, 8156.000000, 8149.000000, 8132.000000
3399, 3974288.000000, 2589.000000, 8164.000000, 8180.000000, 8153.000000
3400, 3974448.000000, 2596.000000, 8171.000000, 8187.000000, 8164.000000
3401, 3974608.000000, 2598.000000, 8177.000000, 8193.000000, 8174.000000
3402, 3974768.000000, 2555.250000, 8185.000000, 8192.000000, 8175.000000
3403, 3974928.000000, 2469.250000, 8191.000000, 8192.000000, 8179.000000
3404, 3975088.000000, 2352.500000, 8202.000000, 8196.000000, 8188.000000
3405, 3975248.000000, 2225.250000, 8218.000000, 8199.000000, 8196.000000
3406, 3975408.000000, 2104.500000, 8235.000000, 8203.000000, 8205.000000
3407, 3975568.000000, 1995.500000, 8257.000000, 8206.000000, 8218.000000
3408, 3975728.000000, 1903.000000, 8270.000000, 8206.000000, 8223.000000
3409, 3975888.000000, 1823.750000, 8264.000000, 8205.000000, 8224.000000
3410, 3976048.000000, 1757.000000, 8227.000000, 8204.000000, 8212.000000
3411, 3976208.000000, 1707.250000, 8185.000000, 8195.000000, 8186.000000
3412, 3976368.000000, 1674.500000, 8169.000000, 8189.000000, 8175.000000
3413, 3976528.000000, 1651.500000, 8160.000000, 8181.000000, 8163.000000
3414, 3976688.000000, 1624.750000, 8157.000000, 8182.000000, 8162.000000
3415, 3976848.000000, 1586.500000, 8163.000000, 8183.000000, 8165.000000
3416, 3977008.000000, 1535.750000, 8163.000000, 8184.000000, 8166.000000
3417, 3977168.000000, 1475.500000, 8166.000000, 8184.000000, 8168.000000
3418, 3977328.000000, 1408.750000, 8168.000000, 8182.000000, 8167.000000
3419, 3977488.000000, 1344.750000, 8166.000000, 8180.000000, 8162.000000
3420, 3977648.000000, 1313.750000, 8167.000000, 8182.000000, 8165.000000
3421, 3977808.000000, 1404.750000, 8167.000000, 8180.000000, 8165.000000
3422, 3977968.000000, 1696.750000, 8168.000000, 8179.000000, 8164.000000
3423, 3978128.000000, 2188.000000, 8170.000000, 8179.000000, 8162.000000
3424, 3978288.000000, 2731.000000, 8175.000000, 8186.000000, 8178.000000
3425, 3978448.000000, 3175.250000, 8177.000000, 8189.000000, 8184.000000
3426, 3978608.000000, 3434.750000, 8197.000000, 8197.000000, 8207.000000
3427, 3978768.000000, 3539.250000, 8184.000000, 8185.000000, 8175.000000
3428, 3978928.000000, 3547.250000, 8170.000000, 8172.000000, 8151.000000
3429, 3979088.000000, 3514.000000, 8170.000000, 8169.000000, 8146.000000
3430, 3979248.000000, 3447.750000, 8167.000000, 8171.000000, 8146.000000
3431, 3979408.000000, 3323.750000, 8160.000000, 8186.000000, 8156.000000
3432, 3979568.000000, 3153.500000, 8450.000000, 8194.000000, 8307.000000
3433, 3979728.000000, 2976.750000, 8189.000000, 8060.000000, 8103.000000
3434, 3979888.000000, 2855.250000, 8153.000000, 8133.000000, 8122.000000
3435, 3980048.000000, 2798.750000, 8163.000000, 8180.000000, 8152.000000
3436, 3980208.000000, 2782.250000, 8169.000000, 8186.000000, 8162.000000
3437, 3980368.000000, 2754.500000, 8174.000000, 8188.000000, 8167.000000
3438, 3980528.000000, 2694.750000, 8179.000000, 8189.000000, 8170.000000
3439, 3980688.000000, 2594.250000, 8190.000000, 8193.000000, 8179.000000
3440, 3980848.000000, 2464.250000, 8198.000000, 8194.000000, 8183.000000
3441, 3981008.000000, 2321.500000, 8211.000000, 8200.000000, 8194.000000
3442, 3981168.000000, 2189.000000, 8232.000000, 8204.000000, 8206.000000
3443, 3981328.000000, 2070.250000, 8254.000000, 8207.000000, 8217.000000
3444, 3981488.000000, 1970.250000, 8268.000000, 8209.000000, 8225.000000
3445, 3981648.000000, 1887.500000, 8269.000000, 8212.000000, 8234.000000
3446, 3981808.000000, 1817.500000, 8231.000000, 8211.000000, 8220.000000
3447, 3981968.000000, 1763.500000, 8188.000000, 8208.000000, 8201.000000
3448, 3982128.000000, 1722.000000, 8165.000000, 8206.000000, 8189.000000
3449, 3982288.000000, 1683.500000, 8159.000000, 8203.000000, 8186.000000
3450, 3982448.000000, 1643.750000, 8158.000000, 8205.000000, 8186.000000
3451, 3982608.000000, 1586.750000, 8159.000000, 8205.000000, 8186.000000
3452, 3982768.000000, 1522.500000, 8163.000000, 8204.000000, 8186.000000
3453, 3982928.000000, 1452.000000, 8165.000000, 8202.000000, 8185.000000
3454, 3983088.000000, 1382.000000, 8166.000000, 8200.000000, 8182.000000
3455, 3983248.000000, 1312.000000, 8167.000000, 8199.000000, 8182.000000
3456, 3983408.000000, 1271.250000, 8168.000000, 8198.000000, 8181.000000
3457, 3983568.000000, 1330.000000, 8169.000000, 8196.000000, 8180.000000
3458, 3983728.000000, 1599.750000, 8166.000000, 8191.000000, 8171.000000
3459, 3983888.000000, 2070.000000, 8167.000000, 8188.000000, 8167.000000
3460, 3984048.000000, 2638.500000, 8175.000000, 8197.000000, 8187.000000
3461, 3984208.000000, 3126.500000, 8178.000000, 8203.000000, 8199.000000
3462, 3984368.000000, 3441.750000, 8188.000000, 8202.000000, 8208.000000
3463, 3984528.000000, 3579.500000, 8191.000000, 8198.000000, 8193.000000
3464, 3984688.000000, 3610.000000, 8172.000000, 8183.000000, 8163.000000
3465, 3984848.000000, 3590.750000, 8167.000000, 8180.000000, 8155.000000
3466, 3985008.000000, 3541.000000, 8167.000000, 8179.000000, 8152.000000
3467, 3985168.000000, 3439.250000, 8169.000000, 8181.000000, 8157.000000
3468, 3985328.000000, 3272.250000, 8291.000000, 8231.000000, 8260.000000
3469, 3985488.000000, 3081.000000, 8344.000000, 8096.000000, 8200.000000
3470, 3985648.000000, 2920.500000, 8153.000000, 8090.000000, 8085.000000
3471, 3985808.000000, 2829.500000, 8162.000000, 8181.000000, 8154.000000
3472, 3985968.000000, 2787.250000, 8164.000000, 8189.000000, 8162.000000
3473, 3986128.000000, 2755.750000, 8170.000000, 8191.000000, 8166.000000
3474, 3986288.000000, 2697.250000, 8175.000000, 8192.000000, 8170.000000
3475, 3986448.000000, 2597.500000, 8185.000000, 8193.000000, 8178.000000
