1953, 17201312.000000, 1792.500000, 8274.000000, 8209.000000, 8241.000000
1954, 17201472.000000, 1739.000000, 8276.000000, 8208.000000, 8243.000000
1955, 17201632.000000, 1689.500000, 8246.000000, 8212.000000, 8239.000000
1956, 17201792.000000, 1644.000000, 8196.000000, 8207.000000, 8215.000000
1957, 17201952.000000, 1606.000000, 8164.000000, 8197.000000, 8190.000000
1958, 17202112.000000, 1566.000000, 8151.000000, 8191.000000, 8179.000000
1959, 17202272.000000, 1527.500000, 8146.000000, 8191.000000, 8176.000000
1960, 17202432.000000, 1483.000000, 8151.000000, 8192.000000, 8180.000000
1961, 17202592.000000, 1429.000000, 8156.000000, 8195.000000, 8184.000000
1962, 17202752.000000, 1369.000000, 8159.000000, 8194.000000, 8183.000000
1963, 17202912.000000, 1309.500000, 8162.000000, 8194.000000, 8185.000000
1964, 17203072.000000, 1260.000000, 8159.000000, 8192.000000, 8179.000000
1965, 17203232.000000, 1251.000000, 8157.000000, 8193.000000, 8181.000000
1966, 17203392.000000, 1332.000000, 8156.000000, 8192.000000, 8175.000000
1967, 17203552.000000, 1548.500000, 8158.000000, 8190.000000, 8177.000000
1968, 17203712.000000, 1862.000000, 8159.000000, 8188.000000, 8175.000000
1969, 17203872.000000, 2220.000000, 8161.000000, 8189.000000, 8176.000000
1970, 17204032.000000, 2547.000000, 8163.000000, 8191.000000, 8181.000000
1971, 17204192.000000, 2803.000000, 8167.000000, 8199.000000, 8196.000000
1972, 17204352.000000, 2980.000000, 8171.000000, 8198.000000, 8197.000000
1973, 17204512.000000, 3097.500000, 8196.000000, 8207.000000, 8219.000000
1974, 17204672.000000, 3170.000000, 8184.000000, 8195.000000, 8193.000000
1975, 17204832.000000, 3191.000000, 8167.000000, 8188.000000, 8175.000000
1976, 17204992.000000, 3171.000000, 8166.000000, 8188.000000, 8174.000000
1977, 17205152.000000, 3103.500000, 8168.000000, 8184.000000, 8171.000000
1978, 17205312.000000, 3024.000000, 8156.000000, 8195.000000, 8174.000000
1979, 17205472.000000, 2957.000000, 8436.000000, 8203.000000, 8305.000000
1980, 17205632.000000, 2918.000000, 8202.000000, 8129.000000, 8187.000000
1981, 17205792.000000, 2903.500000, 8147.000000, 8140.000000, 8137.000000
1982, 17205952.000000, 2895.000000, 8166.000000, 8191.000000, 8173.000000
1983, 17206112.000000, 2866.000000, 8167.000000, 8194.000000, 8175.000000
1984, 17206272.000000, 2817.000000, 8176.000000, 8198.000000, 8183.000000
1985, 17206432.000000, 2738.000000, 8180.000000, 8204.000000, 8193.000000
1986, 17206592.000000, 2642.000000, 8190.000000, 8203.000000, 8197.000000
1987, 17206752.000000, 2528.500000, 8202.000000, 8205.000000, 8201.000000
1988, 17206912.000000, 2410.000000, 8217.000000, 8203.000000, 8205.000000
1989, 17207072.000000, 2289.000000, 8235.000000, 8203.000000, 8211.000000
1990, 17207232.000000, 2171.000000, 8259.000000, 8208.000000, 8226.000000
1991, 17207392.000000, 2063.000000, 8280.000000, 8210.000000, 8238.000000
1992, 17207552.000000, 1962.000000, 8285.000000, 8208.000000, 8239.000000
1993, 17207712.000000, 1870.500000, 8264.000000, 8206.000000, 8233.000000
1994, 17207872.000000, 1785.000000, 8220.000000, 8204.000000, 8216.000000
1995, 17208032.000000, 1704.500000, 8179.000000, 8201.000000, 8196.000000
1996, 17208192.000000, 1626.000000, 8160.000000, 8196.000000, 8182.000000
1997, 17208352.000000, 1547.500000, 8152.000000, 8192.000000, 8175.000000
1998, 17208512.000000, 1454.000000, 8154.000000, 8189.000000, 8173.000000
1999, 17208672.000000, 1353.000000, 8157.000000, 8192.000000, 8178.000000
2000, 17208832.000000, 1244.000000, 8163.000000, 8193.000000, 8181.000000
2001, 17208992.000000, 1134.000000, 8167.000000, 8192.000000, 8179.000000
2002, 17209152.000000, 1029.000000, 8166.000000, 8190.000000, 8176.000000
2003, 17209312.000000, 970.000000, 8167.000000, 8189.000000, 8174.000000
2004, 17209472.000000, 1007.000000, 8165.000000, 8189.000000, 8174.000000
2005, 17209632.000000, 1192.000000, 8163.000000, 8188.000000, 8174.000000
2006, 17209792.000000, 1505.000000, 8166.000000, 8188.000000, 8174.000000
2007, 17209952.000000, 1855.500000, 8165.000000, 8187.000000, 8172.000000
2008, 17210112.000000, 2168.000000, 8166.000000, 8188.000000, 8176.000000
2009, 17210272.000000, 2405.000000, 8172.000000, 8193.000000, 8187.000000
2010, 17210432.000000, 2580.000000, 8178.000000, 8198.000000, 8198.000000
2011, 17210592.000000, 2706.500000, 8196.000000, 8201.000000, 8207.000000
2012, 17210752.000000, 2796.000000, 8177.000000, 8189.000000, 8180.000000
2013, 17210912.000000, 2853.500000, 8169.000000, 8183.000000, 8165.000000
2014, 17211072.000000, 2868.000000, 8165.000000, 8180.000000, 8159.000000
2015, 17211232.000000, 2829.000000, 8170.000000, 8182.000000, 8163.000000
2016, 17211392.000000, 2752.000000, 8172.000000, 8205.000000, 8187.000000
2017, 17211552.000000, 2663.500000, 8506.000000, 8164.000000, 8300.000000
2018, 17211712.000000, 2596.000000, 8162.000000, 8105.000000, 8138.000000
2019, 17211872.000000, 2557.000000, 8155.000000, 8161.000000, 8152.000000
2020, 17212032.000000, 2534.000000, 8160.000000, 8191.000000, 8169.000000
2021, 17212192.000000, 2506.000000, 8166.000000, 8195.000000, 8175.000000
2022, 17212352.000000, 2465.000000, 8173.000000, 8195.000000, 8178.000000
2023, 17212512.000000, 2402.500000, 8180.000000, 8193.000000, 8180.000000
2024, 17212672.000000, 2327.000000, 8190.000000, 8198.000000, 8188.000000
2025, 17212832.000000, 2230.500000, 8201.000000, 8201.000000, 8198.000000
2026, 17212992.000000, 2131.000000, 8217.000000, 8205.000000, 8209.000000
2027, 17213152.000000, 2030.000000, 8236.000000, 8204.000000, 8212.000000
2028, 17213312.000000, 1930.000000, 8261.000000, 8205.000000, 8224.000000
2029, 17213472.000000, 1836.500000, 8282.000000, 8207.000000, 8234.000000
2030, 17213632.000000, 1757.000000, 8283.000000, 8211.000000, 8243.000000
2031, 17213792.000000, 1692.500000, 8256.000000, 8213.000000, 8235.000000
2032, 17213952.000000, 1646.000000, 8202.000000, 8207.000000, 8209.000000
2033, 17214112.000000, 1612.000000, 8169.000000, 8199.000000, 8189.000000
2034, 17214272.000000, 1579.000000, 8150.000000, 8196.000000, 8177.000000
2035, 17214432.000000, 1542.000000, 8147.000000, 8195.000000, 8174.000000
2036, 17214592.000000, 1500.000000, 8155.000000, 8198.000000, 8183.000000
2037, 17214752.000000, 1453.000000, 8158.000000, 8196.000000, 8179.000000
2038, 17214912.000000, 1399.000000, 8158.000000, 8194.000000, 8179.000000
2039, 17215072.000000, 1340.000000, 8160.000000, 8196.000000, 8182.000000
2040, 17215232.000000, 1283.000000, 8163.000000, 8195.000000, 8181.000000
2041, 17215392.000000, 1264.000000, 8163.000000, 8196.000000, 8182.000000
2042, 17215552.000000, 1338.000000, 8163.000000, 8195.000000, 8181.000000
2043, 17215712.000000, 1541.500000, 8164.000000, 8196.000000, 8179.000000
2044, 17215872.000000, 1845.000000, 8164.000000, 8195.000000, 8180.000000
2045, 17216032.000000, 2183.000000, 8165.000000, 8198.000000, 8183.000000
2046, 17216192.000000, 2493.000000, 8169.000000, 8205.000000, 8197.000000
2047, 17216352.000000, 2745.000000, 8174.000000, 8202.000000, 8199.000000
2048, 17216512.000000, 2932.000000, 8186.000000, 8204.000000, 8211.000000
2049, 17216672.000000, 3061.500000, 8188.000000, 8200.000000, 8197.000000
2050, 17216832.000000, 3154.000000, 8168.000000, 8188.000000, 8177.000000
2051, 17216992.000000, 3206.000000, 8167.000000, 8184.000000, 8171.000000
2052, 17217152.000000, 3210.000000, 8168.000000, 8179.000000, 8164.000000
2053, 17217312.000000, 3164.000000, 8164.000000, 8178.000000, 8159.000000
2054, 17217472.000000, 3090.000000, 8277.000000, 8209.000000, 8233.000000
2055, 17217632.000000, 3010.500000, 8353.000000, 8145.000000, 8241.000000
2056, 17217792.000000, 2947.000000, 8124.000000, 8094.000000, 8088.000000
2057, 17217952.000000, 2904.500000, 8166.000000, 8175.000000, 8157.000000
2058, 17218112.000000, 2872.000000, 8163.000000, 8185.000000, 8163.000000
2059, 17218272.000000, 2842.500000, 8175.000000, 8189.000000, 8171.000000
2060, 17218432.000000, 2803.000000, 8184.000000, 8193.000000, 8179.000000
2061, 17218592.000000, 2750.000000, 8190.000000, 8195.000000, 8183.000000
2062, 17218752.000000, 2683.000000, 8200.000000, 8195.000000, 8188.000000
2063, 17218912.000000, 2602.500000, 8213.000000, 8196.000000, 8195.000000
2064, 17219072.000000, 2517.000000, 8228.000000, 8198.000000, 8201.000000
2065, 17219232.000000, 2434.000000, 8255.000000, 8201.000000, 8216.000000
2066, 17219392.000000, 2357.000000, 8278.000000, 8203.000000, 8227.000000
2067, 17219552.000000, 2284.500000, 8293.000000, 8205.000000, 8237.000000
2068, 17219712.000000, 2218.000000, 8279.000000, 8204.000000, 8231.000000
2069, 17219872.000000, 2153.500000, 8233.000000, 8206.000000, 8218.000000
2070, 17220032.000000, 2092.000000, 8188.000000, 8207.000000, 8204.000000
2071, 17220192.000000, 2027.500000, 8162.000000, 8201.000000, 8190.000000
2072, 17220352.000000, 1965.000000, 8151.000000, 8195.000000, 8177.000000
2073, 17220512.000000, 1897.000000, 8150.000000, 8195.000000, 8178.000000
2074, 17220672.000000, 1822.000000, 8151.000000, 8193.000000, 8175.000000
2075, 17220832.000000, 1742.000000, 8159.000000, 8196.000000, 8183.000000
2076, 17220992.000000, 1661.000000, 8163.000000, 8196.000000, 8184.000000
2077, 17221152.000000, 1576.500000, 8162.000000, 8192.000000, 8179.000000
2078, 17221312.000000, 1498.000000, 8161.000000, 8188.000000, 8173.000000
2079, 17221472.000000, 1465.000000, 8161.000000, 8188.000000, 8173.000000
2080, 17221632.000000, 1527.000000, 8159.000000, 8189.000000, 8174.000000
2081, 17221792.000000, 1743.500000, 8169.000000, 8196.000000, 8194.000000
2082, 17221952.000000, 2059.000000, 8169.000000, 8196.000000, 8194.000000
2083, 17222112.000000, 2405.500000, 8190.000000, 8203.000000, 8217.000000
2084, 17222272.000000, 2699.000000, 8186.000000, 8195.000000, 8196.000000
2085, 17222432.000000, 2908.500000, 8163.000000, 8187.000000, 8173.000000
2086, 17222592.000000, 3045.000000, 8162.000000, 8185.000000, 8170.000000
2087, 17222752.000000, 3125.500000, 8165.000000, 8183.000000, 8168.000000
2088, 17222912.000000, 3172.000000, 8155.000000, 8188.000000, 8167.000000
2089, 17223072.000000, 3173.500000, 8341.000000, 8218.000000, 8276.000000
2090, 17223232.000000, 3127.000000, 8265.000000, 8150.000000, 8224.000000
2091, 17223392.000000, 3031.500000, 8130.000000, 8112.000000, 8106.000000
2092, 17223552.000000, 2914.000000, 8161.000000, 8184.000000, 8167.000000
2093, 17223712.000000, 2804.500000, 8165.000000, 8193.000000, 8178.000000
2094, 17223872.000000, 2720.000000, 8174.000000, 8195.000000, 8182.000000
2095, 17224032.000000, 2662.000000, 8181.000000, 8199.000000, 8191.000000
2096, 17224192.000000, 2621.000000, 8190.000000, 8201.000000, 8197.000000
2097, 17224352.000000, 2578.000000, 8203.000000, 8201.000000, 8203.000000
2098, 17224512.000000, 2521.000000, 8216.000000, 8202.000000, 8209.000000
2099, 17224672.000000, 2437.500000, 8235.000000, 8204.000000, 8218.000000
2100, 17224832.000000, 2339.000000, 8260.000000, 8208.000000, 8232.000000
2101, 17224992.000000, 2229.500000, 8290.000000, 8212.000000, 8248.000000
2102, 17225152.000000, 2111.000000, 8296.000000, 8206.000000, 8244.000000
2103, 17225312.000000, 1997.500000, 8271.000000, 8206.000000, 8238.000000
2104, 17225472.000000, 1891.000000, 8222.000000, 8207.000000, 8222.000000
2105, 17225632.000000, 1799.000000, 8176.000000, 8202.000000, 8199.000000
2106, 17225792.000000, 1717.000000, 8159.000000, 8199.000000, 8192.000000
2107, 17225952.000000, 1641.000000, 8152.000000, 8192.000000, 8181.000000
2108, 17226112.000000, 1565.000000, 8151.000000, 8191.000000, 8177.000000
2109, 17226272.000000, 1484.500000, 8154.000000, 8191.000000, 8181.000000
2110, 17226432.000000, 1400.000000, 8158.000000, 8195.000000, 8186.000000
2111, 17226592.000000, 1312.500000, 8165.000000, 8194.000000, 8189.000000
2112, 17226752.000000, 1230.000000, 8162.000000, 8191.000000, 8184.000000
2113, 17226912.000000, 1160.000000, 8160.000000, 8188.000000, 8178.000000
2114, 17227072.000000, 1136.000000, 8163.000000, 8190.000000, 8182.000000
2115, 17227232.000000, 1213.500000, 8164.000000, 8191.000000, 8182.000000
2116, 17227392.000000, 1414.000000, 8165.000000, 8194.000000, 8187.000000
2117, 17227552.000000, 1695.500000, 8166.000000, 8192.000000, 8182.000000
2118, 17227712.000000, 1991.000000, 8170.000000, 8196.000000, 8193.000000
2119, 17227872.000000, 2237.500000, 8172.000000, 8196.000000, 8198.000000
2120, 17228032.000000, 2418.000000, 8189.000000, 8204.000000, 8221.000000
2121, 17228192.000000, 2540.500000, 8189.000000, 8198.000000, 8203.000000
2122, 17228352.000000, 2629.000000, 8171.000000, 8184.000000, 8173.000000
2123, 17228512.000000, 2694.500000, 8169.000000, 8178.000000, 8164.000000
2124, 17228672.000000, 2723.000000, 8168.000000, 8180.000000, 8165.000000
2125, 17228832.000000, 2698.000000, 8162.000000, 8185.000000, 8168.000000
2126, 17228992.000000, 2626.000000, 8308.000000, 8213.000000, 8255.000000
2127, 17229152.000000, 2529.500000, 8323.000000, 8139.000000, 8231.000000
2128, 17229312.000000, 2435.000000, 8132.000000, 8098.000000, 8093.000000
2129, 17229472.000000, 2361.000000, 8156.000000, 8176.000000, 8157.000000
2130, 17229632.000000, 2306.000000, 8162.000000, 8185.000000, 8168.000000
2131, 17229792.000000, 2257.500000, 8169.000000, 8190.000000, 8176.000000
2132, 17229952.000000, 2204.000000, 8177.000000, 8189.000000, 8180.000000
2133, 17230112.000000, 2133.000000, 8184.000000, 8189.000000, 8179.000000
2134, 17230272.000000, 2042.000000, 8195.000000, 8192.000000, 8189.000000
2135, 17230432.000000, 1938.500000, 8207.000000, 8195.000000, 8196.000000
2136, 17230592.000000, 1830.000000, 8226.000000, 8201.000000, 8211.000000
2137, 17230752.000000, 1717.000000, 8250.000000, 8200.000000, 8218.000000
2138, 17230912.000000, 1606.000000, 8275.000000, 8202.000000, 8230.000000
2139, 17231072.000000, 1502.500000, 8286.000000, 8205.000000, 8237.000000
2140, 17231232.000000, 1411.000000, 8277.000000, 8207.000000, 8239.000000
2141, 17231392.000000, 1323.000000, 8231.000000, 8209.000000, 8226.000000
2142, 17231552.000000, 1242.000000, 8188.000000, 8203.000000, 8203.000000
2143, 17231712.000000, 1162.500000, 8163.000000, 8194.000000, 8180.000000
2144, 17231872.000000, 1093.000000, 8153.000000, 8194.000000, 8179.000000
2145, 17232032.000000, 1027.000000, 8145.000000, 8194.000000, 8176.000000
2146, 17232192.000000, 958.000000, 8152.000000, 8196.000000, 8181.000000
2147, 17232352.000000, 885.500000, 8158.000000, 8193.000000, 8180.000000
2148, 17232512.000000, 804.000000, 8161.000000, 8190.000000, 8175.000000
2149, 17232672.000000, 731.000000, 8161.000000, 8192.000000, 8179.000000
2150, 17232832.000000, 680.000000, 8161.000000, 8192.000000, 8179.000000
2151, 17232992.000000, 710.500000, 8164.000000, 8191.000000, 8178.000000
2152, 17233152.000000, 855.000000, 8160.000000, 8188.000000, 8172.000000
2153, 17233312.000000, 1138.500000, 8161.000000, 8186.000000, 8171.000000
2154, 17233472.000000, 1495.000000, 8163.000000, 8187.000000, 8175.000000
2155, 17233632.000000, 1857.500000, 8160.000000, 8196.000000, 8188.000000
2156, 17233792.000000, 2164.000000, 8170.000000, 8197.000000, 8197.000000
2157, 17233952.000000, 2403.000000, 8189.000000, 8200.000000, 8213.000000
2158, 17234112.000000, 2585.000000, 8187.000000, 8193.000000, 8193.000000
2159, 17234272.000000, 2726.500000, 8171.000000, 8183.000000, 8170.000000
2160, 17234432.000000, 2837.000000, 8166.000000, 8185.000000, 8171.000000
2161, 17234592.000000, 2900.500000, 8167.000000, 8184.000000, 8169.000000
2162, 17234752.000000, 2917.000000, 8166.000000, 8187.000000, 8169.000000
2163, 17234912.000000, 2879.000000, 8274.000000, 8211.000000, 8233.000000
2164, 17235072.000000, 2811.000000, 8371.000000, 8155.000000, 8259.000000
2165, 17235232.000000, 2741.500000, 8140.000000, 8110.000000, 8114.000000
2166, 17235392.000000, 2685.000000, 8160.000000, 8184.000000, 8166.000000
2167, 17235552.000000, 2646.500000, 8170.000000, 8191.000000, 8174.000000
2168, 17235712.000000, 2616.000000, 8175.000000, 8195.000000, 8183.000000
2169, 17235872.000000, 2576.000000, 8179.000000, 8198.000000, 8187.000000
2170, 17236032.000000, 2524.000000, 8185.000000, 8200.000000, 8193.000000
2171, 17236192.000000, 2460.000000, 8195.000000, 8206.000000, 8205.000000
2172, 17236352.000000, 2387.000000, 8204.000000, 8203.000000, 8204.000000
2173, 17236512.000000, 2310.500000, 8223.000000, 8202.000000, 8210.000000
2174, 17236672.000000, 2242.000000, 8244.000000, 8207.000000, 8221.000000
2175, 17236832.000000, 2187.000000, 8274.000000, 8210.000000, 8238.000000
2176, 17236992.000000, 2139.000000, 8287.000000, 8213.000000, 8249.000000
2177, 17237152.000000, 2094.500000, 8277.000000, 8210.000000, 8242.000000
2178, 17237312.000000, 2050.000000, 8231.000000, 8210.000000, 8225.000000
2179, 17237472.000000, 2006.000000, 8188.000000, 8206.000000, 8206.000000
2180, 17237632.000000, 1966.000000, 8164.000000, 8199.000000, 8188.000000
2181, 17237792.000000, 1921.500000, 8151.000000, 8194.000000, 8176.000000
2182, 17237952.000000, 1867.000000, 8153.000000, 8196.000000, 8181.000000
2183, 17238112.000000, 1808.000000, 8149.000000, 8195.000000, 8176.000000
2184, 17238272.000000, 1738.000000, 8156.000000, 8193.000000, 8176.000000
2185, 17238432.000000, 1663.500000, 8159.000000, 8194.000000, 8181.000000
2186, 17238592.000000, 1595.000000, 8163.000000, 8196.000000, 8184.000000
2187, 17238752.000000, 1540.000000, 8166.000000, 8192.000000, 8182.000000
2188, 17238912.000000, 1533.000000, 8164.000000, 8187.000000, 8174.000000
2189, 17239072.000000, 1620.000000, 8167.000000, 8188.000000, 8175.000000
2190, 17239232.000000, 1823.000000, 8166.000000, 8191.000000, 8179.000000
2191, 17239392.000000, 2101.500000, 8169.000000, 8191.000000, 8181.000000
2192, 17239552.000000, 2387.000000, 8171.000000, 8193.000000, 8188.000000
2193, 17239712.000000, 2612.000000, 8177.000000, 8192.000000, 8189.000000
2194, 17239872.000000, 2768.000000, 8198.000000, 8201.000000, 8214.000000
2195, 17240032.000000, 2866.500000, 8183.000000, 8194.000000, 8189.000000
2196, 17240192.000000, 2926.000000, 8172.000000, 8186.000000, 8170.000000
2197, 17240352.000000, 2961.500000, 8169.000000, 8183.000000, 8167.000000
2198, 17240512.000000, 2971.000000, 8165.000000, 8177.000000, 8154.000000
2199, 17240672.000000, 2929.000000, 8156.000000, 8189.000000, 8162.000000
2200, 17240832.000000, 2847.000000, 8403.000000, 8200.000000, 8284.000000
2201, 17240992.000000, 2731.000000, 8239.000000, 8142.000000, 8214.000000
2202, 17241152.000000, 2607.000000, 8143.000000, 8126.000000, 8126.000000
2203, 17241312.000000, 2508.500000, 8156.000000, 8178.000000, 8159.000000
2204, 17241472.000000, 2430.000000, 8163.000000, 8186.000000, 8172.000000
2205, 17241632.000000, 2361.500000, 8167.000000, 8190.000000, 8175.000000
2206, 17241792.000000, 2290.000000, 8175.000000, 8192.000000, 8184.000000
2207, 17241952.000000, 2205.500000, 8183.000000, 8193.000000, 8188.000000
2208, 17242112.000000, 2112.000000, 8195.000000, 8194.000000, 8197.000000
2209, 17242272.000000, 2009.000000, 8206.000000, 8196.000000, 8200.000000
2210, 17242432.000000, 1904.000000, 8225.000000, 8201.000000, 8214.000000
2211, 17242592.000000, 1802.500000, 8251.000000, 8204.000000, 8226.000000
2212, 17242752.000000, 1704.000000, 8274.000000, 8202.000000, 8232.000000
2213, 17242912.000000, 1606.000000, 8283.000000, 8203.000000, 8237.000000
2214, 17243072.000000, 1518.000000, 8267.000000, 8204.000000, 8237.000000
2215, 17243232.000000, 1436.000000, 8213.000000, 8206.000000, 8219.000000
2216, 17243392.000000, 1367.000000, 8172.000000, 8206.000000, 8202.000000
2217, 17243552.000000, 1307.000000, 8154.000000, 8199.000000, 8185.000000
2218, 17243712.000000, 1252.000000, 8140.000000, 8196.000000, 8175.000000
2219, 17243872.000000, 1200.000000, 8146.000000, 8196.000000, 8179.000000
2220, 17244032.000000, 1140.000000, 8146.000000, 8196.000000, 8179.000000
2221, 17244192.000000, 1075.500000, 8152.000000, 8192.000000, 8177.000000
2222, 17244352.000000, 1015.000000, 8158.000000, 8182.000000, 8167.000000
2223, 17244512.000000, 958.500000, 8155.000000, 8177.000000, 8158.000000
2224, 17244672.000000, 911.000000, 8160.000000, 8179.000000, 8167.000000
2225, 17244832.000000, 918.500000, 8158.000000, 8181.000000, 8170.000000
2226, 17244992.000000, 1032.000000, 8161.000000, 8183.000000, 8174.000000
2227, 17245152.000000, 1268.000000, 8164.000000, 8181.000000, 8170.000000
2228, 17245312.000000, 1558.000000, 8161.000000, 8181.000000, 8170.000000
2229, 17245472.000000, 1821.500000, 8166.000000, 8184.000000, 8180.000000
2230, 17245632.000000, 2018.000000, 8167.000000, 8190.000000, 8190.000000
2231, 17245792.000000, 2151.500000, 8191.000000, 8194.000000, 8208.000000
2232, 17245952.000000, 2250.000000, 8172.000000, 8177.000000, 8167.000000
2233, 17246112.000000, 2324.000000, 8159.000000, 8167.000000, 8148.000000
2234, 17246272.000000, 2376.000000, 8156.000000, 8167.000000, 8144.000000
2235, 17246432.000000, 2393.500000, 8161.000000, 8164.000000, 8143.000000
2236, 17246592.000000, 2362.000000, 8153.000000, 8179.000000, 8150.000000
2237, 17246752.000000, 2276.500000, 8469.000000, 8157.000000, 8267.000000
2238, 17246912.000000, 2157.000000, 8149.000000, 8116.000000, 8136.000000
2239, 17247072.000000, 2033.000000, 8129.000000, 8107.000000, 8082.000000
2240, 17247232.000000, 1927.000000, 8159.000000, 8166.000000, 8139.000000
2241, 17247392.000000, 1841.500000, 8165.000000, 8176.000000, 8149.000000
2242, 17247552.000000, 1771.000000, 8177.000000, 8177.000000, 8158.000000
2243, 17247712.000000, 1699.500000, 8184.000000, 8177.000000, 8159.000000
2244, 17247872.000000, 1620.000000, 8192.000000, 8178.000000, 8167.000000
2245, 17248032.000000, 1530.500000, 8203.000000, 8185.000000, 8176.000000
2246, 17248192.000000, 1435.000000, 8217.000000, 8187.000000, 8185.000000
2247, 17248352.000000, 1340.000000, 8238.000000, 8188.000000, 8192.000000
2248, 17248512.000000, 1248.000000, 8260.000000, 8183.000000, 8203.000000
2249, 17248672.000000, 1163.500000, 8288.000000, 8186.000000, 8211.000000
2250, 17248832.000000, 1094.000000, 8291.000000, 8186.000000, 8215.000000
2251, 17248992.000000, 1041.000000, 8273.000000, 8192.000000, 8221.000000
2252, 17249152.000000, 1005.000000, 8212.000000, 8198.000000, 8206.000000
2253, 17249312.000000, 980.000000, 8173.000000, 8193.000000, 8190.000000
2254, 17249472.000000, 961.000000, 8157.000000, 8187.000000, 8179.000000
2255, 17249632.000000, 946.500000, 8144.000000, 8187.000000, 8176.000000
2256, 17249792.000000, 934.000000, 8146.000000, 8186.000000, 8175.000000
2257, 17249952.000000, 921.000000, 8146.000000, 8184.000000, 8173.000000
2258, 17250112.000000, 911.000000, 8154.000000, 8184.000000, 8172.000000
2259, 17250272.000000, 899.000000, 8155.000000, 8183.000000, 8174.000000
2260, 17250432.000000, 880.000000, 8160.000000, 8186.000000, 8178.000000
2261, 17250592.000000, 856.500000, 8162.000000, 8187.000000, 8176.000000
2262, 17250752.000000, 868.000000, 8166.000000, 8195.000000, 8185.000000
2263, 17250912.000000, 996.000000, 8175.000000, 8201.000000, 8191.000000
2264, 17251072.000000, 1251.000000, 8188.000000, 8205.000000, 8209.000000
2265, 17251232.000000, 1588.500000, 8182.000000, 8200.000000, 8193.000000
2266, 17251392.000000, 1915.000000, 8182.000000, 8192.000000, 8171.000000
2267, 17251552.000000, 2175.500000, 8161.000000, 8182.000000, 8161.000000
2268, 17251712.000000, 2347.000000, 8168.000000, 8184.000000, 8153.000000
2269, 17251872.000000, 2444.500000, 8168.000000, 8186.000000, 8157.000000
2270, 17252032.000000, 2492.000000, 8244.000000, 8219.000000, 8221.000000
2271, 17252192.000000, 2503.500000, 8368.000000, 8160.000000, 8230.000000
2272, 17252352.000000, 2491.000000, 8117.000000, 8091.000000, 8074.000000
2273, 17252512.000000, 2432.500000, 8151.000000, 8171.000000, 8137.000000
2274, 17252672.000000, 2349.000000, 8168.000000, 8189.000000, 8160.000000
2275, 17252832.000000, 2273.000000, 8172.000000, 8193.000000, 8167.000000
2276, 17252992.000000, 2227.000000, 8176.000000, 8195.000000, 8174.000000
2277, 17253152.000000, 2211.500000, 8179.000000, 8188.000000, 8169.000000
2278, 17253312.000000, 2219.000000, 8190.000000, 8188.000000, 8170.000000
2279, 17253472.000000, 2237.000000, 8202.000000, 8193.000000, 8179.000000
2280, 17253632.000000, 2257.000000, 8219.000000, 8198.000000, 8191.000000
2281, 17253792.000000, 2264.500000, 8247.000000, 8193.000000, 8197.000000
2282, 17253952.000000, 2253.000000, 8266.000000, 8196.000000, 8204.000000
2283, 17254112.000000, 2217.000000, 8292.000000, 8197.000000, 8213.000000
2284, 17254272.000000, 2156.000000, 8274.000000, 8203.000000, 8215.000000
2285, 17254432.000000, 2077.500000, 8224.000000, 8213.000000, 8221.000000
2286, 17254592.000000, 1993.000000, 8179.000000, 8215.000000, 8204.000000
2287, 17254752.000000, 1907.500000, 8159.000000, 8211.000000, 8196.000000
2288, 17254912.000000, 1817.000000, 8148.000000, 8207.000000, 8189.000000
2289, 17255072.000000, 1727.000000, 8150.000000, 8204.000000, 8185.000000
2290, 17255232.000000, 1632.000000, 8148.000000, 8204.000000, 8186.000000
2291, 17255392.000000, 1535.500000, 8153.000000, 8210.000000, 8189.000000
2292, 17255552.000000, 1436.000000, 8148.000000, 8204.000000, 8186.000000
2293, 17255712.000000, 1342.000000, 8163.000000, 8203.000000, 8189.000000
2294, 17255872.000000, 1249.000000, 8159.000000, 8202.000000, 8185.000000
2295, 17256032.000000, 1162.000000, 8165.000000, 8205.000000, 8196.000000
2296, 17256192.000000, 1161.000000, 8170.000000, 8213.000000, 8208.000000
2297, 17256352.000000, 1286.500000, 8172.000000, 8214.000000, 8214.000000
2298, 17256512.000000, 1524.000000, 8184.000000, 8213.000000, 8221.000000
2299, 17256672.000000, 1864.000000, 8177.000000, 8204.000000, 8197.000000
2300, 17256832.000000, 2158.000000, 8164.000000, 8199.000000, 8184.000000
2301, 17256992.000000, 2319.000000, 8166.000000, 8199.000000, 8185.000000
2302, 17257152.000000, 2421.000000, 8167.000000, 8198.000000, 8183.000000
2303, 17257312.000000, 2479.500000, 8173.000000, 8214.000000, 8205.000000
2304, 17257472.000000, 2501.000000, 8502.000000, 8177.000000, 8305.000000
2305, 17257632.000000, 2477.000000, 8128.000000, 8131.000000, 8145.000000
2306, 17257792.000000, 2371.000000, 8137.000000, 8155.000000, 8142.000000
2307, 17257952.000000, 2249.000000, 8165.000000, 8202.000000, 8189.000000
2308, 17258112.000000, 2138.000000, 8176.000000, 8205.000000, 8194.000000
2309, 17258272.000000, 2062.000000, 8181.000000, 8207.000000, 8199.000000
2310, 17258432.000000, 2016.000000, 8185.000000, 8209.000000, 8200.000000
2311, 17258592.000000, 1989.500000, 8194.000000, 8212.000000, 8209.000000
2312, 17258752.000000, 1968.000000, 8204.000000, 8211.000000, 8212.000000
2313, 17258912.000000, 1934.000000, 8217.000000, 8208.000000, 8212.000000
2314, 17259072.000000, 1886.000000, 8242.000000, 8210.000000, 8224.000000
2315, 17259232.000000, 1820.500000, 8265.000000, 8211.000000, 8231.000000
2316, 17259392.000000, 1745.000000, 8283.000000, 8211.000000, 8239.000000
2317, 17259552.000000, 1670.500000, 8283.000000, 8206.000000, 8238.000000
2318, 17259712.000000, 1593.000000, 8248.000000, 8206.000000, 8226.000000
2319, 17259872.000000, 1514.500000, 8200.000000, 8208.000000, 8216.000000
2320, 17260032.000000, 1438.000000, 8168.000000, 8208.000000, 8203.000000
2321, 17260192.000000, 1359.500000, 8153.000000, 8204.000000, 8195.000000
2322, 17260352.000000, 1279.000000, 8149.000000, 8199.000000, 8186.000000
2323, 17260512.000000, 1196.500000, 8151.000000, 8198.000000, 8186.000000
2324, 17260672.000000, 1115.000000, 8154.000000, 8197.000000, 8185.000000
2325, 17260832.000000, 1036.000000, 8162.000000, 8201.000000, 8194.000000
2326, 17260992.000000, 963.000000, 8162.000000, 8201.000000, 8194.000000
2327, 17261152.000000, 927.000000, 8161.000000, 8199.000000, 8188.000000
2328, 17261312.000000, 972.000000, 8161.000000, 8196.000000, 8185.000000
2329, 17261472.000000, 1149.000000, 8166.000000, 8199.000000, 8193.000000
2330, 17261632.000000, 1404.000000, 8167.000000, 8205.000000, 8207.000000
2331, 17261792.000000, 1675.500000, 8168.000000, 8208.000000, 8211.000000
2332, 17261952.000000, 1913.000000, 8183.000000, 8209.000000, 8222.000000
2333, 17262112.000000, 2104.500000, 8177.000000, 8196.000000, 8191.000000
2334, 17262272.000000, 2248.000000, 8159.000000, 8189.000000, 8174.000000
2335, 17262432.000000, 2353.000000, 8159.000000, 8189.000000, 8172.000000
2336, 17262592.000000, 2427.000000, 8160.000000, 8190.000000, 8174.000000
2337, 17262752.000000, 2469.000000, 8162.000000, 8212.000000, 8199.000000
2338, 17262912.000000, 2466.000000, 8511.000000, 8168.000000, 8306.000000
2339, 17263072.000000, 2417.500000, 8143.000000, 8091.000000, 8111.000000
2340, 17263232.000000, 2338.000000, 8136.000000, 8154.000000, 8142.000000
2341, 17263392.000000, 2258.000000, 8156.000000, 8199.000000, 8180.000000
2342, 17263552.000000, 2198.000000, 8162.000000, 8202.000000, 8185.000000
2343, 17263712.000000, 2167.500000, 8169.000000, 8204.000000, 8190.000000
2344, 17263872.000000, 2157.000000, 8175.000000, 8206.000000, 8194.000000
2345, 17264032.000000, 2153.000000, 8183.000000, 8211.000000, 8204.000000
2346, 17264192.000000, 2148.000000, 8196.000000, 8217.000000, 8217.000000
2347, 17264352.000000, 2137.500000, 8205.000000, 8219.000000, 8221.000000
2348, 17264512.000000, 2112.000000, 8228.000000, 8222.000000, 8231.000000
2349, 17264672.000000, 2071.500000, 8256.000000, 8227.000000, 8247.000000
2350, 17264832.000000, 2016.000000, 8272.000000, 8230.000000, 8258.000000
2351, 17264992.000000, 1956.500000, 8279.000000, 8228.000000, 8261.000000
2352, 17265152.000000, 1901.000000, 8244.000000, 8224.000000, 8246.000000
2353, 17265312.000000, 1856.000000, 8196.000000, 8217.000000, 8221.000000
2354, 17265472.000000, 1814.000000, 8165.000000, 8209.000000, 8202.000000
2355, 17265632.000000, 1776.500000, 8153.000000, 8203.000000, 8190.000000
2356, 17265792.000000, 1739.000000, 8148.000000, 8201.000000, 8185.000000
2357, 17265952.000000, 1708.500000, 8149.000000, 8201.000000, 8186.000000
2358, 17266112.000000, 1673.000000, 8152.000000, 8200.000000, 8185.000000
2359, 17266272.000000, 1632.000000, 8151.000000, 8201.000000, 8185.000000
2360, 17266432.000000, 1587.000000, 8156.000000, 8202.000000, 8191.000000
2361, 17266592.000000, 1573.000000, 8160.000000, 8201.000000, 8191.000000
2362, 17266752.000000, 1655.000000, 8159.000000, 8198.000000, 8187.000000
2363, 17266912.000000, 1873.500000, 8158.000000, 8196.000000, 8183.000000
2364, 17267072.000000, 2193.000000, 8163.000000, 8196.000000, 8186.000000
2365, 17267232.000000, 2531.500000, 8165.000000, 8202.000000, 8199.000000
2366, 17267392.000000, 2811.000000, 8172.000000, 8207.000000, 8209.000000
2367, 17267552.000000, 3010.000000, 8181.000000, 8210.000000, 8222.000000
2368, 17267712.000000, 3145.000000, 8191.000000, 8205.000000, 8215.000000
2369, 17267872.000000, 3227.000000, 8176.000000, 8196.000000, 8189.000000
2370, 17268032.000000, 3277.000000, 8162.000000, 8192.000000, 8177.000000
2371, 17268192.000000, 3290.000000, 8167.000000, 8191.000000, 8178.000000
2372, 17268352.000000, 3255.000000, 8169.000000, 8191.000000, 8177.000000
2373, 17268512.000000, 3174.500000, 8211.000000, 8228.000000, 8230.000000
2374, 17268672.000000, 3058.000000, 8477.000000, 8138.000000, 8267.000000
2375, 17268832.000000, 2920.500000, 8135.000000, 8084.000000, 8085.000000
2376, 17268992.000000, 2791.000000, 8158.000000, 8185.000000, 8168.000000
2377, 17269152.000000, 2682.000000, 8166.000000, 8203.000000, 8183.000000
2378, 17269312.000000, 2600.000000, 8171.000000, 8205.000000, 8188.000000
2379, 17269472.000000, 2536.500000, 8180.000000, 8207.000000, 8194.000000
2380, 17269632.000000, 2471.000000, 8185.000000, 8212.000000, 8201.000000
2381, 17269792.000000, 2399.500000, 8194.000000, 8216.000000, 8211.000000
2382, 17269952.000000, 2313.000000, 8208.000000, 8217.000000, 8217.000000
2383, 17270112.000000, 2219.500000, 8222.000000, 8219.000000, 8222.000000
2384, 17270272.000000, 2127.000000, 8250.000000, 8220.000000, 8234.000000
2385, 17270432.000000, 2031.000000, 8279.000000, 8224.000000, 8251.000000
2386, 17270592.000000, 1936.000000, 8293.000000, 8224.000000, 8258.000000
2387, 17270752.000000, 1845.500000, 8286.000000, 8219.000000, 8253.000000
2388, 17270912.000000, 1760.000000, 8246.000000, 8216.000000, 8237.000000
2389, 17271072.000000, 1680.500000, 8198.000000, 8208.000000, 8209.000000
2390, 17271232.000000, 1611.000000, 8171.000000, 8202.000000, 8195.000000
2391, 17271392.000000, 1542.500000, 8158.000000, 8199.000000, 8186.000000
2392, 17271552.000000, 1470.000000, 8160.000000, 8197.000000, 8185.000000
2393, 17271712.000000, 1384.500000, 8159.000000, 8196.000000, 8185.000000
2394, 17271872.000000, 1295.000000, 8159.000000, 8197.000000, 8186.000000
2395, 17272032.000000, 1203.000000, 8165.000000, 8197.000000, 8188.000000
2396, 17272192.000000, 1121.000000, 8162.000000, 8198.000000, 8187.000000
2397, 17272352.000000, 1103.000000, 8168.000000, 8191.000000, 8180.000000
2398, 17272512.000000, 1205.000000, 8169.000000, 8189.000000, 8179.000000
2399, 17272672.000000, 1454.500000, 8165.000000, 8188.000000, 8175.000000
2400, 17272832.000000, 1768.000000, 8166.000000, 8188.000000, 8176.000000
2401, 17272992.000000, 2047.500000, 8164.000000, 8188.000000, 8175.000000
2402, 17273152.000000, 2261.000000, 8163.000000, 8187.000000, 8173.000000
2403, 17273312.000000, 2416.000000, 8166.000000, 8188.000000, 8178.000000
2404, 17273472.000000, 2529.000000, 8174.000000, 8195.000000, 8194.000000
2405, 17273632.000000, 2602.500000, 8177.000000, 8196.000000, 8199.000000
2406, 17273792.000000, 2645.000000, 8191.000000, 8200.000000, 8208.000000
2407, 17273952.000000, 2650.000000, 8177.000000, 8186.000000, 8177.000000
2408, 17274112.000000, 2611.000000, 8169.000000, 8178.000000, 8164.000000
2409, 17274272.000000, 2518.000000, 8164.000000, 8175.000000, 8156.000000
2410, 17274432.000000, 2397.000000, 8168.000000, 8178.000000, 8163.000000
2411, 17274592.000000, 2268.000000, 8168.000000, 8202.000000, 8187.000000
2412, 17274752.000000, 2164.000000, 8532.000000, 8145.000000, 8297.000000
2413, 17274912.000000, 2102.500000, 8157.000000, 8070.000000, 8096.000000
2414, 17275072.000000, 2074.000000, 8151.000000, 8153.000000, 8143.000000
2415, 17275232.000000, 2057.500000, 8158.000000, 8186.000000, 8165.000000
2416, 17275392.000000, 2034.000000, 8169.000000, 8195.000000, 8179.000000
2417, 17275552.000000, 1992.000000, 8176.000000, 8196.000000, 8181.000000
2418, 17275712.000000, 1931.000000, 8180.000000, 8197.000000, 8186.000000
2419, 17275872.000000, 1855.000000, 8191.000000, 8199.000000, 8192.000000
2420, 17276032.000000, 1767.000000, 8205.000000, 8203.000000, 8203.000000
2421, 17276192.000000, 1678.500000, 8216.000000, 8209.000000, 8214.000000
2422, 17276352.000000, 1597.000000, 8234.000000, 8211.000000, 8224.000000
2423, 17276512.000000, 1520.500000, 8265.000000, 8209.000000, 8233.000000
2424, 17276672.000000, 1448.000000, 8280.000000, 8210.000000, 8240.000000
2425, 17276832.000000, 1380.000000, 8287.000000, 8210.000000, 8248.000000
2426, 17276992.000000, 1312.000000, 8255.000000, 8210.000000, 8237.000000
2427, 17277152.000000, 1254.500000, 8209.000000, 8208.000000, 8218.000000
2428, 17277312.000000, 1206.000000, 8173.000000, 8195.000000, 8188.000000
2429, 17277472.000000, 1169.500000, 8161.000000, 8192.000000, 8183.000000
2430, 17277632.000000, 1140.000000, 8150.000000, 8194.000000, 8181.000000
2431, 17277792.000000, 1114.500000, 8151.000000, 8197.000000, 8185.000000
2432, 17277952.000000, 1095.000000, 8156.000000, 8196.000000, 8187.000000
2433, 17278112.000000, 1075.000000, 8160.000000, 8191.000000, 8183.000000
2434, 17278272.000000, 1052.000000, 8161.000000, 8190.000000, 8179.000000
2435, 17278432.000000, 1057.500000, 8158.000000, 8191.000000, 8178.000000
2436, 17278592.000000, 1154.000000, 8162.000000, 8191.000000, 8182.000000
2437, 17278752.000000, 1378.500000, 8165.000000, 8186.000000, 8177.000000
2438, 17278912.000000, 1693.000000, 8165.000000, 8182.000000, 8173.000000
2439, 17279072.000000, 2002.000000, 8166.000000, 8181.000000, 8171.000000
2440, 17279232.000000, 2243.000000, 8166.000000, 8184.000000, 8176.000000
2441, 17279392.000000, 2396.000000, 8165.000000, 8183.000000, 8174.000000
2442, 17279552.000000, 2496.000000, 8171.000000, 8184.000000, 8179.000000
2443, 17279712.000000, 2556.000000, 8177.000000, 8186.000000, 8187.000000
2444, 17279872.000000, 2587.000000, 8182.000000, 8186.000000, 8192.000000
2445, 17280032.000000, 2591.000000, 8194.000000, 8190.000000, 8198.000000
2446, 17280192.000000, 2563.000000, 8178.000000, 8178.000000, 8170.000000
2447, 17280352.000000, 2485.500000, 8166.000000, 8174.000000, 8158.000000
2448, 17280512.000000, 2369.000000, 8165.000000, 8171.000000, 8154.000000
2449, 17280672.000000, 2227.500000, 8168.000000, 8172.000000, 8157.000000
2450, 17280832.000000, 2084.000000, 8184.000000, 8203.000000, 8193.000000
2451, 17280992.000000, 1958.000000, 8517.000000, 8135.000000, 8279.000000
2452, 17281152.000000, 1861.000000, 8153.000000, 8081.000000, 8100.000000
2453, 17281312.000000, 1784.000000, 8158.000000, 8163.000000, 8150.000000
2454, 17281472.000000, 1712.000000, 8167.000000, 8184.000000, 8165.000000
2455, 17281632.000000, 1637.500000, 8169.000000, 8191.000000, 8175.000000
2456, 17281792.000000, 1558.000000, 8173.000000, 8194.000000, 8177.000000
2457, 17281952.000000, 1469.500000, 8184.000000, 8193.000000, 8183.000000
2458, 17282112.000000, 1381.000000, 8194.000000, 8195.000000, 8190.000000
2459, 17282272.000000, 1295.000000, 8203.000000, 8195.000000, 8195.000000
2460, 17282432.000000, 1211.000000, 8216.000000, 8200.000000, 8205.000000
2461, 17282592.000000, 1137.000000, 8240.000000, 8203.000000, 8220.000000
2462, 17282752.000000, 1066.000000, 8265.000000, 8203.000000, 8227.000000
2463, 17282912.000000, 999.500000, 8287.000000, 8199.000000, 8235.000000
2464, 17283072.000000, 941.000000, 8286.000000, 8198.000000, 8234.000000
2465, 17283232.000000, 877.500000, 8252.000000, 8201.000000, 8228.000000
2466, 17283392.000000, 815.000000, 8205.000000, 8199.000000, 8209.000000
2467, 17283552.000000, 755.500000, 8168.000000, 8190.000000, 8183.000000
2468, 17283712.000000, 698.000000, 8154.000000, 8182.000000, 8168.000000
2469, 17283872.000000, 645.000000, 8152.000000, 8181.000000, 8168.000000
2470, 17284032.000000, 590.000000, 8148.000000, 8182.000000, 8168.000000
2471, 17284192.000000, 538.500000, 8153.000000, 8184.000000, 8173.000000
2472, 17284352.000000, 485.000000, 8155.000000, 8182.000000, 8171.000000
2473, 17284512.000000, 436.500000, 8156.000000, 8178.000000, 8165.000000
2474, 17284672.000000, 416.000000, 8159.000000, 8179.000000, 8168.000000
2475, 17284832.000000, 478.000000, 8158.000000, 8180.000000, 8169.000000
2476, 17284992.000000, 663.000000, 8156.000000, 8180.000000, 8169.000000
2477, 17285152.000000, 935.000000, 8157.000000, 8181.000000, 8169.000000
2478, 17285312.000000, 1205.000000, 8155.000000, 8178.000000, 8163.000000
2479, 17285472.000000, 1416.000000, 8156.000000, 8178.000000, 8165.000000
2480, 17285632.000000, 1561.000000, 8154.000000, 8181.000000, 8165.000000
2481, 17285792.000000, 1647.500000, 8157.000000, 8182.000000, 8170.000000
2482, 17285952.000000, 1689.000000, 8162.000000, 8186.000000, 8181.000000
2483, 17286112.000000, 1697.000000, 8167.000000, 8185.000000, 8182.000000
2484, 17286272.000000, 1680.000000, 8188.000000, 8193.000000, 8205.000000
2485, 17286432.000000, 1637.000000, 8181.000000, 8164.000000, 8162.000000
2486, 17286592.000000, 1565.000000, 8163.000000, 8148.000000, 8134.000000
2487, 17286752.000000, 1464.500000, 8159.000000, 8145.000000, 8128.000000
2488, 17286912.000000, 1361.000000, 8160.000000, 8145.000000, 8127.000000
2489, 17287072.000000, 1275.000000, 8148.000000, 8158.000000, 8134.000000
2490, 17287232.000000, 1222.000000, 8389.000000, 8172.000000, 8254.000000
2491, 17287392.000000, 1199.000000, 8243.000000, 8093.000000, 8164.000000
2492, 17287552.000000, 1194.000000, 8133.000000, 8098.000000, 8090.000000
2493, 17287712.000000, 1190.500000, 8153.000000, 8163.000000, 8140.000000
2494, 17287872.000000, 1178.000000, 8160.000000, 8173.000000, 8155.000000
2495, 17288032.000000, 1144.500000, 8164.000000, 8180.000000, 8165.000000
2496, 17288192.000000, 1099.000000, 8172.000000, 8184.000000, 8172.000000
2497, 17288352.000000, 1044.500000, 8174.000000, 8186.000000, 8175.000000
2498, 17288512.000000, 992.000000, 8184.000000, 8191.000000, 8185.000000
2499, 17288672.000000, 945.000000, 8202.000000, 8194.000000, 8192.000000
2500, 17288832.000000, 907.000000, 8221.000000, 8198.000000, 8206.000000
2501, 17288992.000000, 879.000000, 8245.000000, 8203.000000, 8221.000000
2502, 17289152.000000, 862.000000, 8271.000000, 8202.000000, 8230.000000
2503, 17289312.000000, 852.500000, 8282.000000, 8201.000000, 8234.000000
2504, 17289472.000000, 849.000000, 8268.000000, 8202.000000, 8230.000000
2505, 17289632.000000, 850.000000, 8217.000000, 8204.000000, 8214.000000
2506, 17289792.000000, 854.000000, 8181.000000, 8204.000000, 8202.000000
2507, 17289952.000000, 867.000000, 8156.000000, 8194.000000, 8181.000000
2508, 17290112.000000, 882.000000, 8147.000000, 8188.000000, 8167.000000
2509, 17290272.000000, 895.000000, 8148.000000, 8191.000000, 8173.000000
2510, 17290432.000000, 901.000000, 8149.000000, 8193.000000, 8176.000000
2511, 17290592.000000, 898.500000, 8155.000000, 8196.000000, 8183.000000
2512, 17290752.000000, 890.000000, 8155.000000, 8190.000000, 8173.000000
2513, 17290912.000000, 882.500000, 8154.000000, 8187.000000, 8171.000000
2514, 17291072.000000, 898.000000, 8158.000000, 8189.000000, 8176.000000
2515, 17291232.000000, 997.500000, 8158.000000, 8190.000000, 8175.000000
2516, 17291392.000000, 1208.000000, 8159.000000, 8190.000000, 8177.000000
2517, 17291552.000000, 1494.000000, 8161.000000, 8186.000000, 8171.000000
2518, 17291712.000000, 1768.000000, 8162.000000, 8186.000000, 8169.000000
2519, 17291872.000000, 1951.000000, 8162.000000, 8185.000000, 8172.000000
2520, 17292032.000000, 2052.000000, 8171.000000, 8191.000000, 8182.000000
2521, 17292192.000000, 2086.000000, 8171.000000, 8197.000000, 8194.000000
2522, 17292352.000000, 2087.000000, 8189.000000, 8199.000000, 8212.000000
2523, 17292512.000000, 2063.000000, 8189.000000, 8195.000000, 8194.000000
2524, 17292672.000000, 2019.000000, 8170.000000, 8183.000000, 8166.000000
2525, 17292832.000000, 1948.000000, 8168.000000, 8186.000000, 8169.000000
2526, 17292992.000000, 1848.000000, 8165.000000, 8186.000000, 8167.000000
2527, 17293152.000000, 1740.000000, 8169.000000, 8188.000000, 8172.000000
2528, 17293312.000000, 1637.000000, 8286.000000, 8219.000000, 8247.000000
2529, 17293472.000000, 1555.500000, 8347.000000, 8152.000000, 8240.000000
2530, 17293632.000000, 1501.000000, 8128.000000, 8100.000000, 8089.000000
2531, 17293792.000000, 1469.500000, 8162.000000, 8189.000000, 8168.000000
2532, 17293952.000000, 1447.000000, 8166.000000, 8199.000000, 8175.000000
2533, 17294112.000000, 1427.500000, 8175.000000, 8205.000000, 8189.000000
2534, 17294272.000000, 1399.000000, 8182.000000, 8214.000000, 8201.000000
2535, 17294432.000000, 1363.500000, 8189.000000, 8217.000000, 8210.000000
2536, 17294592.000000, 1323.000000, 8198.000000, 8220.000000, 8215.000000
2537, 17294752.000000, 1279.000000, 8207.000000, 8219.000000, 8218.000000
2538, 17294912.000000, 1233.000000, 8231.000000, 8216.000000, 8225.000000
2539, 17295072.000000, 1190.500000, 8254.000000, 8217.000000, 8235.000000
2540, 17295232.000000, 1146.000000, 8280.000000, 8216.000000, 8244.000000
2541, 17295392.000000, 1106.500000, 8294.000000, 8214.000000, 8249.000000
2542, 17295552.000000, 1077.000000, 8285.000000, 8212.000000, 8247.000000
2543, 17295712.000000, 1053.500000, 8239.000000, 8212.000000, 8234.000000
2544, 17295872.000000, 1036.000000, 8194.000000, 8210.000000, 8214.000000
2545, 17296032.000000, 1019.500000, 8165.000000, 8205.000000, 8200.000000
2546, 17296192.000000, 1006.000000, 8156.000000, 8202.000000, 8193.000000
2547, 17296352.000000, 977.000000, 8152.000000, 8197.000000, 8188.000000
2548, 17296512.000000, 939.000000, 8153.000000, 8196.000000, 8187.000000
2549, 17296672.000000, 888.500000, 8157.000000, 8194.000000, 8186.000000
2550, 17296832.000000, 836.000000, 8162.000000, 8194.000000, 8189.000000
2551, 17296992.000000, 778.000000, 8164.000000, 8195.000000, 8190.000000
2552, 17297152.000000, 732.000000, 8162.000000, 8193.000000, 8188.000000
2553, 17297312.000000, 753.500000, 8162.000000, 8188.000000, 8183.000000
2554, 17297472.000000, 880.000000, 8164.000000, 8189.000000, 8182.000000
2555, 17297632.000000, 1108.000000, 8161.000000, 8190.000000, 8183.000000
2556, 17297792.000000, 1344.000000, 8159.000000, 8189.000000, 8182.000000
2557, 17297952.000000, 1520.500000, 8161.000000, 8187.000000, 8178.000000
2558, 17298112.000000, 1625.000000, 8165.000000, 8190.000000, 8187.000000
2559, 17298272.000000, 1677.500000, 8174.000000, 8193.000000, 8198.000000
2560, 17298432.000000, 1689.000000, 8170.000000, 8197.000000, 8203.000000
2561, 17298592.000000, 1674.000000, 8186.000000, 8199.000000, 8208.000000
2562, 17298752.000000, 1640.000000, 8168.000000, 8186.000000, 8175.000000
2563, 17298912.000000, 1592.500000, 8159.000000, 8180.000000, 8165.000000
2564, 17299072.000000, 1532.000000, 8160.000000, 8179.000000, 8163.000000
2565, 17299232.000000, 1465.500000, 8163.000000, 8181.000000, 8165.000000
2566, 17299392.000000, 1404.000000, 8178.000000, 8209.000000, 8199.000000
2567, 17299552.000000, 1362.000000, 8504.000000, 8133.000000, 8274.000000
2568, 17299712.000000, 1349.000000, 8133.000000, 8079.000000, 8093.000000
2569, 17299872.000000, 1362.000000, 8149.000000, 8162.000000, 8147.000000
2570, 17300032.000000, 1384.000000, 8162.000000, 8190.000000, 8173.000000
2571, 17300192.000000, 1405.500000, 8164.000000, 8195.000000, 8180.000000
2572, 17300352.000000, 1426.000000, 8173.000000, 8196.000000, 8185.000000
2573, 17300512.000000, 1448.000000, 8182.000000, 8195.000000, 8188.000000
2574, 17300672.000000, 1468.000000, 8188.000000, 8196.000000, 8193.000000
2575, 17300832.000000, 1488.000000, 8195.000000, 8202.000000, 8203.000000
2576, 17300992.000000, 1506.000000, 8210.000000, 8205.000000, 8212.000000
2577, 17301152.000000, 1512.000000, 8231.000000, 8205.000000, 8220.000000
2578, 17301312.000000, 1509.000000, 8261.000000, 8205.000000, 8230.000000
2579, 17301472.000000, 1497.500000, 8279.000000, 8206.000000, 8239.000000
2580, 17301632.000000, 1479.000000, 8279.000000, 8208.000000, 8243.000000
2581, 17301792.000000, 1458.500000, 8247.000000, 8212.000000, 8238.000000
2582, 17301952.000000, 1437.000000, 8199.000000, 8206.000000, 8216.000000
2583, 17302112.000000, 1419.000000, 8166.000000, 8198.000000, 8194.000000
2584, 17302272.000000, 1407.000000, 8151.000000, 8195.000000, 8185.000000
2585, 17302432.000000, 1394.000000, 8146.000000, 8195.000000, 8184.000000
2586, 17302592.000000, 1376.000000, 8148.000000, 8198.000000, 8188.000000
2587, 17302752.000000, 1351.000000, 8155.000000, 8195.000000, 8186.000000
2588, 17302912.000000, 1324.000000, 8162.000000, 8192.000000, 8187.000000
2589, 17303072.000000, 1302.000000, 8157.000000, 8192.000000, 8182.000000
2590, 17303232.000000, 1281.000000, 8163.000000, 8193.000000, 8187.000000
2591, 17303392.000000, 1297.500000, 8162.000000, 8194.000000, 8187.000000
2592, 17303552.000000, 1391.000000, 8160.000000, 8191.000000, 8181.000000
2593, 17303712.000000, 1598.000000, 8159.000000, 8188.000000, 8177.000000
2594, 17303872.000000, 1851.000000, 8161.000000, 8189.000000, 8178.000000
2595, 17304032.000000, 2065.500000, 8159.000000, 8194.000000, 8183.000000
2596, 17304192.000000, 2197.000000, 8163.000000, 8192.000000, 8182.000000
2597, 17304352.000000, 2239.000000, 8163.000000, 8191.000000, 8179.000000
2598, 17304512.000000, 2230.000000, 8171.000000, 8194.000000, 8189.000000
2599, 17304672.000000, 2201.000000, 8175.000000, 8199.000000, 8199.000000
2600, 17304832.000000, 2161.000000, 8182.000000, 8202.000000, 8210.000000
2601, 17304992.000000, 2109.500000, 8189.000000, 8202.000000, 8203.000000
2602, 17305152.000000, 2050.000000, 8170.000000, 8188.000000, 8173.000000
2603, 17305312.000000, 1976.000000, 8163.000000, 8184.000000, 8166.000000
2604, 17305472.000000, 1899.000000, 8165.000000, 8179.000000, 8160.000000
2605, 17305632.000000, 1833.000000, 8167.000000, 8185.000000, 8172.000000
2606, 17305792.000000, 1782.000000, 8247.000000, 8217.000000, 8233.000000
2607, 17305952.000000, 1748.000000, 8409.000000, 8137.000000, 8253.000000
2608, 17306112.000000, 1729.000000, 8131.000000, 8087.000000, 8087.000000
2609, 17306272.000000, 1719.500000, 8159.000000, 8175.000000, 8158.000000
2610, 17306432.000000, 1698.000000, 8166.000000, 8190.000000, 8178.000000
2611, 17306592.000000, 1665.500000, 8175.000000, 8195.000000, 8187.000000
2612, 17306752.000000, 1622.000000, 8177.000000, 8195.000000, 8188.000000
2613, 17306912.000000, 1577.500000, 8184.000000, 8194.000000, 8188.000000
2614, 17307072.000000, 1538.000000, 8194.000000, 8194.000000, 8191.000000
2615, 17307232.000000, 1502.000000, 8206.000000, 8198.000000, 8200.000000
2616, 17307392.000000, 1467.000000, 8227.000000, 8201.000000, 8215.000000
2617, 17307552.000000, 1421.500000, 8250.000000, 8201.000000, 8223.000000
2618, 17307712.000000, 1374.000000, 8275.000000, 8200.000000, 8232.000000
2619, 17307872.000000, 1333.000000, 8290.000000, 8200.000000, 8240.000000
2620, 17308032.000000, 1294.000000, 8282.000000, 8201.000000, 8240.000000
2621, 17308192.000000, 1253.000000, 8238.000000, 8204.000000, 8228.000000
2622, 17308352.000000, 1214.000000, 8191.000000, 8198.000000, 8208.000000
2623, 17308512.000000, 1184.000000, 8165.000000, 8187.000000, 8184.000000
2624, 17308672.000000, 1158.000000, 8151.000000, 8186.000000, 8176.000000
2625, 17308832.000000, 1130.500000, 8146.000000, 8189.000000, 8176.000000
2626, 17308992.000000, 1088.000000, 8151.000000, 8192.000000, 8182.000000
2627, 17309152.000000, 1028.000000, 8154.000000, 8191.000000, 8183.000000
2628, 17309312.000000, 959.000000, 8160.000000, 8184.000000, 8176.000000
2629, 17309472.000000, 892.500000, 8158.000000, 8187.000000, 8176.000000
2630, 17309632.000000, 842.000000, 8157.000000, 8185.000000, 8173.000000
2631, 17309792.000000, 858.500000, 8159.000000, 8186.000000, 8175.000000
2632, 17309952.000000, 985.000000, 8155.000000, 8183.000000, 8170.000000
2633, 17310112.000000, 1254.000000, 8157.000000, 8182.000000, 8170.000000
2634, 17310272.000000, 1583.000000, 8159.000000, 8180.000000, 8169.000000
2635, 17310432.000000, 1881.500000, 8154.000000, 8184.000000, 8170.000000
2636, 17310592.000000, 2088.000000, 8163.000000, 8185.000000, 8175.000000
2637, 17310752.000000, 2204.000000, 8163.000000, 8184.000000, 8174.000000
2638, 17310912.000000, 2268.000000, 8162.000000, 8182.000000, 8171.000000
2639, 17311072.000000, 2296.500000, 8169.000000, 8188.000000, 8184.000000
2640, 17311232.000000, 2306.000000, 8173.000000, 8196.000000, 8198.000000
2641, 17311392.000000, 2300.000000, 8184.000000, 8197.000000, 8207.000000
2642, 17311552.000000, 2275.000000, 8190.000000, 8194.000000, 8198.000000
2643, 17311712.000000, 2237.000000, 8172.000000, 8182.000000, 8172.000000
2644, 17311872.000000, 2191.000000, 8167.000000, 8178.000000, 8165.000000
2645, 17312032.000000, 2151.000000, 8165.000000, 8181.000000, 8168.000000
2646, 17312192.000000, 2124.000000, 8165.000000, 8183.000000, 8170.000000
2647, 17312352.000000, 2110.000000, 8232.000000, 8214.000000, 8222.000000
2648, 17312512.000000, 2106.000000, 8423.000000, 8136.000000, 8257.000000
2649, 17312672.000000, 2108.000000, 8135.000000, 8089.000000, 8094.000000
2650, 17312832.000000, 2103.000000, 8156.000000, 8179.000000, 8166.000000
2651, 17312992.000000, 2088.000000, 8162.000000, 8192.000000, 8177.000000
2652, 17313152.000000, 2060.000000, 8165.000000, 8196.000000, 8181.000000
2653, 17313312.000000, 2032.000000, 8178.000000, 8197.000000, 8187.000000
2654, 17313472.000000, 2008.000000, 8179.000000, 8200.000000, 8191.000000
2655, 17313632.000000, 1988.500000, 8194.000000, 8203.000000, 8200.000000
2656, 17313792.000000, 1978.000000, 8205.000000, 8207.000000, 8207.000000
2657, 17313952.000000, 1973.500000, 8222.000000, 8207.000000, 8214.000000
2658, 17314112.000000, 1972.000000, 8243.000000, 8208.000000, 8221.000000
2659, 17314272.000000, 1970.000000, 8270.000000, 8210.000000, 8235.000000
2660, 17314432.000000, 1963.000000, 8284.000000, 8214.000000, 8246.000000
2661, 17314592.000000, 1956.000000, 8283.000000, 8213.000000, 8247.000000
2662, 17314752.000000, 1945.000000, 8246.000000, 8213.000000, 8234.000000
2663, 17314912.000000, 1936.000000, 8201.000000, 8207.000000, 8210.000000
2664, 17315072.000000, 1931.000000, 8168.000000, 8200.000000, 8189.000000
2665, 17315232.000000, 1927.000000, 8156.000000, 8200.000000, 8185.000000
2666, 17315392.000000, 1918.000000, 8150.000000, 8200.000000, 8183.000000
2667, 17315552.000000, 1896.000000, 8156.000000, 8198.000000, 8183.000000
2668, 17315712.000000, 1863.000000, 8162.000000, 8197.000000, 8186.000000
2669, 17315872.000000, 1825.000000, 8163.000000, 8198.000000, 8184.000000
2670, 17316032.000000, 1782.000000, 8165.000000, 8197.000000, 8184.000000
2671, 17316192.000000, 1746.000000, 8164.000000, 8196.000000, 8183.000000
2672, 17316352.000000, 1747.000000, 8163.000000, 8193.000000, 8179.000000
2673, 17316512.000000, 1850.500000, 8161.000000, 8190.000000, 8175.000000
2674, 17316672.000000, 2061.000000, 8164.000000, 8190.000000, 8175.000000
2675, 17316832.000000, 2344.000000, 8166.000000, 8191.000000, 8179.000000
2676, 17316992.000000, 2593.000000, 8168.000000, 8193.000000, 8182.000000
2677, 17317152.000000, 2755.000000, 8170.000000, 8189.000000, 8176.000000
2678, 17317312.000000, 2827.000000, 8166.000000, 8188.000000, 8174.000000
2679, 17317472.000000, 2845.000000, 8171.000000, 8190.000000, 8181.000000
2680, 17317632.000000, 2834.000000, 8170.000000, 8192.000000, 8181.000000
2681, 17317792.000000, 2813.500000, 8178.000000, 8198.000000, 8196.000000
2682, 17317952.000000, 2780.000000, 8180.000000, 8197.000000, 8196.000000
2683, 17318112.000000, 2723.500000, 8198.000000, 8203.000000, 8214.000000
2684, 17318272.000000, 2644.000000, 8193.000000, 8197.000000, 8197.000000
2685, 17318432.000000, 2553.000000, 8174.000000, 8188.000000, 8173.000000
2686, 17318592.000000, 2461.000000, 8172.000000, 8186.000000, 8172.000000
2687, 17318752.000000, 2383.500000, 8172.000000, 8184.000000, 8168.000000
2688, 17318912.000000, 2325.000000, 8162.000000, 8193.000000, 8170.000000
2689, 17319072.000000, 2286.000000, 8391.000000, 8204.000000, 8280.000000
2690, 17319232.000000, 2250.000000, 8238.000000, 8141.000000, 8201.000000
2691, 17319392.000000, 2210.000000, 8140.000000, 8121.000000, 8110.000000
2692, 17319552.000000, 2164.000000, 8165.000000, 8190.000000, 8169.000000
2693, 17319712.000000, 2108.500000, 8171.000000, 8196.000000, 8177.000000
2694, 17319872.000000, 2043.000000, 8180.000000, 8201.000000, 8186.000000
2695, 17320032.000000, 1979.000000, 8183.000000, 8205.000000, 8192.000000
2696, 17320192.000000, 1923.000000, 8192.000000, 8207.000000, 8198.000000
2697, 17320352.000000, 1874.500000, 8202.000000, 8207.000000, 8201.000000
2698, 17320512.000000, 1831.000000, 8215.000000, 8208.000000, 8205.000000
2699, 17320672.000000, 1788.500000, 8233.000000, 8209.000000, 8213.000000
2700, 17320832.000000, 1739.000000, 8255.000000, 8213.000000, 8226.000000
2701, 17320992.000000, 1690.000000, 8283.000000, 8213.000000, 8235.000000
2702, 17321152.000000, 1645.000000, 8294.000000, 8213.000000, 8244.000000
2703, 17321312.000000, 1611.500000, 8283.000000, 8210.000000, 8236.000000
2704, 17321472.000000, 1585.000000, 8237.000000, 8212.000000, 8223.000000
2705, 17321632.000000, 1561.000000, 8197.000000, 8212.000000, 8209.000000
2706, 17321792.000000, 1547.000000, 8165.000000, 8207.000000, 8194.000000
2707, 17321952.000000, 1540.000000, 8155.000000, 8203.000000, 8184.000000
2708, 17322112.000000, 1534.000000, 8153.000000, 8199.000000, 8178.000000
2709, 17322272.000000, 1527.000000, 8158.000000, 8199.000000, 8180.000000
2710, 17322432.000000, 1516.000000, 8159.000000, 8203.000000, 8186.000000
2711, 17322592.000000, 1515.500000, 8162.000000, 8198.000000, 8179.000000
2712, 17322752.000000, 1529.000000, 8168.000000, 8196.000000, 8183.000000
2713, 17322912.000000, 1560.500000, 8166.000000, 8194.000000, 8178.000000
2714, 17323072.000000, 1643.000000, 8169.000000, 8194.000000, 8180.000000
2715, 17323232.000000, 1841.000000, 8165.000000, 8193.000000, 8178.000000
2716, 17323392.000000, 2165.000000, 8169.000000, 8194.000000, 8184.000000
2717, 17323552.000000, 2556.000000, 8166.000000, 8194.000000, 8182.000000
2718, 17323712.000000, 2911.000000, 8164.000000, 8189.000000, 8172.000000
2719, 17323872.000000, 3160.000000, 8167.000000, 8190.000000, 8177.000000
2720, 17324032.000000, 3310.000000, 8169.000000, 8193.000000, 8183.000000
2721, 17324192.000000, 3384.000000, 8170.000000, 8194.000000, 8185.000000
2722, 17324352.000000, 3416.000000, 8172.000000, 8196.000000, 8190.000000
2723, 17324512.000000, 3423.000000, 8179.000000, 8199.000000, 8199.000000
2724, 17324672.000000, 3406.000000, 8186.000000, 8202.000000, 8211.000000
2725, 17324832.000000, 3361.000000, 8194.000000, 8200.000000, 8204.000000
2726, 17324992.000000, 3289.000000, 8179.000000, 8191.000000, 8182.000000
2727, 17325152.000000, 3194.000000, 8172.000000, 8183.000000, 8171.000000
2728, 17325312.000000, 3105.000000, 8171.000000, 8181.000000, 8168.000000
2729, 17325472.000000, 3043.500000, 8170.000000, 8183.000000, 8168.000000
2730, 17325632.000000, 3010.000000, 8219.000000, 8219.000000, 8222.000000
2731, 17325792.000000, 3003.500000, 8441.000000, 8143.000000, 8260.000000
2732, 17325952.000000, 3001.000000, 8131.000000, 8090.000000, 8096.000000
2733, 17326112.000000, 2998.500000, 8159.000000, 8173.000000, 8158.000000
2734, 17326272.000000, 2991.000000, 8167.000000, 8191.000000, 8174.000000
2735, 17326432.000000, 2983.500000, 8174.000000, 8197.000000, 8184.000000
2736, 17326592.000000, 2973.000000, 8177.000000, 8200.000000, 8187.000000
2737, 17326752.000000, 2954.500000, 8190.000000, 8199.000000, 8191.000000
2738, 17326912.000000, 2934.000000, 8192.000000, 8199.000000, 8192.000000
2739, 17327072.000000, 2910.500000, 8206.000000, 8204.000000, 8204.000000
2740, 17327232.000000, 2892.000000, 8224.000000, 8207.000000, 8213.000000
2741, 17327392.000000, 2868.000000, 8247.000000, 8208.000000, 8222.000000
2742, 17327552.000000, 2839.000000, 8270.000000, 8209.000000, 8230.000000
2743, 17327712.000000, 2808.500000, 8289.000000, 8209.000000, 8237.000000
2744, 17327872.000000, 2772.000000, 8287.000000, 8208.000000, 8238.000000
2745, 17328032.000000, 2738.000000, 8252.000000, 8210.000000, 8231.000000
2746, 17328192.000000, 2698.000000, 8199.000000, 8207.000000, 8209.000000
2747, 17328352.000000, 2653.000000, 8165.000000, 8200.000000, 8189.000000
2748, 17328512.000000, 2600.000000, 8150.000000, 8192.000000, 8173.000000
2749, 17328672.000000, 2537.500000, 8148.000000, 8194.000000, 8174.000000
2750, 17328832.000000, 2463.000000, 8148.000000, 8199.000000, 8181.000000
2751, 17328992.000000, 2380.500000, 8153.000000, 8197.000000, 8182.000000
2752, 17329152.000000, 2299.000000, 8159.000000, 8192.000000, 8179.000000
2753, 17329312.000000, 2221.500000, 8164.000000, 8190.000000, 8177.000000
2754, 17329472.000000, 2148.000000, 8158.000000, 8191.000000, 8176.000000
2755, 17329632.000000, 2094.000000, 8162.000000, 8191.000000, 8178.000000
2756, 17329792.000000, 2120.000000, 8159.000000, 8190.000000, 8177.000000
2757, 17329952.000000, 2272.500000, 8159.000000, 8189.000000, 8176.000000
2758, 17330112.000000, 2536.000000, 8162.000000, 8187.000000, 8174.000000
2759, 17330272.000000, 2824.500000, 8165.000000, 8186.000000, 8175.000000
2760, 17330432.000000, 3070.000000, 8167.000000, 8189.000000, 8178.000000
2761, 17330592.000000, 3223.500000, 8166.000000, 8189.000000, 8179.000000
2762, 17330752.000000, 3311.000000, 8168.000000, 8186.000000, 8175.000000
2763, 17330912.000000, 3355.000000, 8168.000000, 8187.000000, 8178.000000
2764, 17331072.000000, 3384.000000, 8175.000000, 8193.000000, 8191.000000
2765, 17331232.000000, 3401.500000, 8179.000000, 8199.000000, 8201.000000
2766, 17331392.000000, 3391.000000, 8199.000000, 8203.000000, 8217.000000
2767, 17331552.000000, 3350.000000, 8185.000000, 8192.000000, 8189.000000
2768, 17331712.000000, 3284.000000, 8171.000000, 8181.000000, 8168.000000
2769, 17331872.000000, 3210.000000, 8168.000000, 8181.000000, 8166.000000
2770, 17332032.000000, 3142.000000, 8170.000000, 8185.000000, 8172.000000
2771, 17332192.000000, 3090.000000, 8163.000000, 8200.000000, 8182.000000
2772, 17332352.000000, 3055.000000, 8491.000000, 8177.000000, 8305.000000
2773, 17332512.000000, 3034.000000, 8177.000000, 8099.000000, 8140.000000
2774, 17332672.000000, 3015.000000, 8150.000000, 8142.000000, 8137.000000
2775, 17332832.000000, 2984.000000, 8169.000000, 8190.000000, 8174.000000
2776, 17332992.000000, 2936.000000, 8173.000000, 8197.000000, 8182.000000
2777, 17333152.000000, 2874.500000, 8176.000000, 8195.000000, 8180.000000
2778, 17333312.000000, 2804.000000, 8183.000000, 8197.000000, 8186.000000
2779, 17333472.000000, 2734.000000, 8191.000000, 8199.000000, 8192.000000
2780, 17333632.000000, 2668.000000, 8201.000000, 8203.000000, 8202.000000
2781, 17333792.000000, 2599.000000, 8210.000000, 8208.000000, 8211.000000
2782, 17333952.000000, 2531.000000, 8235.000000, 8206.000000, 8218.000000
2783, 17334112.000000, 2466.000000, 8261.000000, 8206.000000, 8227.000000
2784, 17334272.000000, 2400.000000, 8281.000000, 8209.000000, 8239.000000
2785, 17334432.000000, 2334.500000, 8291.000000, 8211.000000, 8248.000000
2786, 17334592.000000, 2267.000000, 8270.000000, 8210.000000, 8243.000000
2787, 17334752.000000, 2196.000000, 8218.000000, 8206.000000, 8220.000000
2788, 17334912.000000, 2137.000000, 8176.000000, 8197.000000, 8194.000000
2789, 17335072.000000, 2091.000000, 8153.000000, 8193.000000, 8180.000000
2790, 17335232.000000, 2049.000000, 8143.000000, 8190.000000, 8173.000000
2791, 17335392.000000, 2008.500000, 8148.000000, 8193.000000, 8179.000000
2792, 17335552.000000, 1963.000000, 8149.000000, 8190.000000, 8175.000000
2793, 17335712.000000, 1918.500000, 8157.000000, 8185.000000, 8171.000000
2794, 17335872.000000, 1873.000000, 8159.000000, 8185.000000, 8172.000000
2795, 17336032.000000, 1832.500000, 8159.000000, 8186.000000, 8175.000000
2796, 17336192.000000, 1810.000000, 8159.000000, 8184.000000, 8171.000000
2797, 17336352.000000, 1841.500000, 8158.000000, 8180.000000, 8167.000000
2798, 17336512.000000, 1974.000000, 8160.000000, 8178.000000, 8166.000000
2799, 17336672.000000, 2248.000000, 8162.000000, 8177.000000, 8166.000000
2800, 17336832.000000, 2615.000000, 8164.000000, 8178.000000, 8167.000000
2801, 17336992.000000, 2990.000000, 8165.000000, 8179.000000, 8170.000000
2802, 17337152.000000, 3304.000000, 8165.000000, 8178.000000, 8167.000000
2803, 17337312.000000, 3521.500000, 8171.000000, 8175.000000, 8168.000000
2804, 17337472.000000, 3664.000000, 8169.000000, 8177.000000, 8167.000000
2805, 17337632.000000, 3774.000000, 8171.000000, 8183.000000, 8176.000000
2806, 17337792.000000, 3840.000000, 8178.000000, 8189.000000, 8191.000000
2807, 17337952.000000, 3858.000000, 8184.000000, 8187.000000, 8191.000000
2808, 17338112.000000, 3835.000000, 8198.000000, 8191.000000, 8200.000000
2809, 17338272.000000, 3768.500000, 8182.000000, 8182.000000, 8175.000000
2810, 17338432.000000, 3683.000000, 8171.000000, 8180.000000, 8167.000000
2811, 17338592.000000, 3586.500000, 8168.000000, 8179.000000, 8164.000000
2812, 17338752.000000, 3522.000000, 8175.000000, 8176.000000, 8164.000000
2813, 17338912.000000, 3497.000000, 8177.000000, 8199.000000, 8186.000000
2814, 17339072.000000, 3485.000000, 8517.000000, 8149.000000, 8291.000000
2815, 17339232.000000, 3470.000000, 8163.000000, 8094.000000, 8128.000000
2816, 17339392.000000, 3444.000000, 8157.000000, 8160.000000, 8154.000000
2817, 17339552.000000, 3403.000000, 8166.000000, 8185.000000, 8169.000000
2818, 17339712.000000, 3355.000000, 8171.000000, 8190.000000, 8175.000000
2819, 17339872.000000, 3302.500000, 8178.000000, 8193.000000, 8183.000000
2820, 17340032.000000, 3253.000000, 8184.000000, 8198.000000, 8190.000000
2821, 17340192.000000, 3210.000000, 8194.000000, 8199.000000, 8196.000000
2822, 17340352.000000, 3167.000000, 8206.000000, 8202.000000, 8204.000000
2823, 17340512.000000, 3128.500000, 8219.000000, 8199.000000, 8204.000000
2824, 17340672.000000, 3092.000000, 8243.000000, 8204.000000, 8219.000000
2825, 17340832.000000, 3056.000000, 8267.000000, 8208.000000, 8231.000000
2826, 17340992.000000, 3019.000000, 8290.000000, 8209.000000, 8243.000000
2827, 17341152.000000, 2985.000000, 8296.000000, 8205.000000, 8243.000000
2828, 17341312.000000, 2944.000000, 8271.000000, 8207.000000, 8237.000000
2829, 17341472.000000, 2906.500000, 8216.000000, 8206.000000, 8217.000000
2830, 17341632.000000, 2873.000000, 8177.000000, 8201.000000, 8198.000000
2831, 17341792.000000, 2840.500000, 8159.000000, 8199.000000, 8188.000000
2832, 17341952.000000, 2801.000000, 8151.000000, 8193.000000, 8177.000000
2833, 17342112.000000, 2751.000000, 8154.000000, 8192.000000, 8178.000000
2834, 17342272.000000, 2693.000000, 8158.000000, 8194.000000, 8181.000000
2835, 17342432.000000, 2631.500000, 8161.000000, 8196.000000, 8185.000000
2836, 17342592.000000, 2558.000000, 8167.000000, 8193.000000, 8184.000000
2837, 17342752.000000, 2506.500000, 8164.000000, 8189.000000, 8174.000000
2838, 17342912.000000, 2530.000000, 8167.000000, 8186.000000, 8173.000000
2839, 17343072.000000, 2672.000000, 8164.000000, 8187.000000, 8174.000000
2840, 17343232.000000, 2907.000000, 8164.000000, 8190.000000, 8177.000000
2841, 17343392.000000, 3170.500000, 8165.000000, 8186.000000, 8175.000000
2842, 17343552.000000, 3394.000000, 8164.000000, 8172.000000, 8159.000000
2843, 17343712.000000, 3546.000000, 8165.000000, 8150.000000, 8139.000000
2844, 17343872.000000, 3641.000000, 8167.000000, 8142.000000, 8131.000000
2845, 17344032.000000, 3705.500000, 8169.000000, 8148.000000, 8138.000000
2846, 17344192.000000, 3752.000000, 8170.000000, 8151.000000, 8140.000000
2847, 17344352.000000, 3785.000000, 8173.000000, 8159.000000, 8154.000000
2848, 17344512.000000, 3789.000000, 8180.000000, 8165.000000, 8166.000000
2849, 17344672.000000, 3748.500000, 8194.000000, 8176.000000, 8186.000000
2850, 17344832.000000, 3673.000000, 8191.000000, 8175.000000, 8175.000000
2851, 17344992.000000, 3581.000000, 8174.000000, 8168.000000, 8155.000000
2852, 17345152.000000, 3497.000000, 8170.000000, 8166.000000, 8149.000000
2853, 17345312.000000, 3433.000000, 8169.000000, 8168.000000, 8150.000000
2854, 17345472.000000, 3383.000000, 8168.000000, 8173.000000, 8156.000000
2855, 17345632.000000, 3341.500000, 8304.000000, 8210.000000, 8246.000000
2856, 17345792.000000, 3300.000000, 8333.000000, 8140.000000, 8235.000000
2857, 17345952.000000, 3245.500000, 8136.000000, 8097.000000, 8091.000000
2858, 17346112.000000, 3179.000000, 8162.000000, 8176.000000, 8157.000000
2859, 17346272.000000, 3101.500000, 8166.000000, 8185.000000, 8167.000000
2860, 17346432.000000, 3021.000000, 8167.000000, 8190.000000, 8173.000000
2861, 17346592.000000, 2941.500000, 8175.000000, 8196.000000, 8184.000000
2862, 17346752.000000, 2868.000000, 8186.000000, 8195.000000, 8186.000000
2863, 17346912.000000, 2799.500000, 8198.000000, 8197.000000, 8192.000000
2864, 17347072.000000, 2738.000000, 8208.000000, 8201.000000, 8199.000000
2865, 17347232.000000, 2671.000000, 8226.000000, 8205.000000, 8213.000000
2866, 17347392.000000, 2605.000000, 8254.000000, 8208.000000, 8226.000000
2867, 17347552.000000, 2536.500000, 8283.000000, 8207.000000, 8235.000000
2868, 17347712.000000, 2466.000000, 8298.000000, 8207.000000, 8245.000000
2869, 17347872.000000, 2390.000000, 8291.000000, 8209.000000, 8248.000000
2870, 17348032.000000, 2313.000000, 8245.000000, 8213.000000, 8237.000000
2871, 17348192.000000, 2238.000000, 8193.000000, 8209.000000, 8213.000000
2872, 17348352.000000, 2165.000000, 8164.000000, 8197.000000, 8188.000000
2873, 17348512.000000, 2091.000000, 8148.000000, 8194.000000, 8180.000000
2874, 17348672.000000, 2015.000000, 8150.000000, 8194.000000, 8181.000000
2875, 17348832.000000, 1935.500000, 8153.000000, 8199.000000, 8188.000000
2876, 17348992.000000, 1854.000000, 8156.000000, 8200.000000, 8189.000000
2877, 17349152.000000, 1773.000000, 8161.000000, 8195.000000, 8184.000000
2878, 17349312.000000, 1696.000000, 8161.000000, 8190.000000, 8179.000000
2879, 17349472.000000, 1664.500000, 8162.000000, 8191.000000, 8182.000000
2880, 17349632.000000, 1722.000000, 8162.000000, 8190.000000, 8181.000000
2881, 17349792.000000, 1914.000000, 8157.000000, 8190.000000, 8178.000000
2882, 17349952.000000, 2186.000000, 8161.000000, 8187.000000, 8174.000000
2883, 17350112.000000, 2487.500000, 8161.000000, 8186.000000, 8173.000000
2884, 17350272.000000, 2757.000000, 8162.000000, 8186.000000, 8175.000000
2885, 17350432.000000, 2973.500000, 8165.000000, 8187.000000, 8178.000000
2886, 17350592.000000, 3127.000000, 8166.000000, 8185.000000, 8175.000000
2887, 17350752.000000, 3224.000000, 8169.000000, 8187.000000, 8183.000000
2888, 17350912.000000, 3286.000000, 8173.000000, 8190.000000, 8187.000000
2889, 17351072.000000, 3310.500000, 8188.000000, 8198.000000, 8208.000000
2890, 17351232.000000, 3300.000000, 8189.000000, 8197.000000, 8202.000000
2891, 17351392.000000, 3246.000000, 8166.000000, 8185.000000, 8171.000000
2892, 17351552.000000, 3166.000000, 8168.000000, 8179.000000, 8164.000000
2893, 17351712.000000, 3084.500000, 8166.000000, 8180.000000, 8160.000000
2894, 17351872.000000, 3022.000000, 8165.000000, 8185.000000, 8168.000000
2895, 17352032.000000, 2990.500000, 8257.000000, 8219.000000, 8237.000000
2896, 17352192.000000, 2976.000000, 8374.000000, 8152.000000, 8252.000000
2897, 17352352.000000, 2966.500000, 8119.000000, 8097.000000, 8088.000000
2898, 17352512.000000, 2953.000000, 8159.000000, 8177.000000, 8158.000000
2899, 17352672.000000, 2926.500000, 8165.000000, 8190.000000, 8171.000000
2900, 17352832.000000, 2886.000000, 8169.000000, 8196.000000, 8180.000000
2901, 17352992.000000, 2836.500000, 8179.000000, 8197.000000, 8182.000000
2902, 17353152.000000, 2781.000000, 8183.000000, 8198.000000, 8187.000000
2903, 17353312.000000, 2711.000000, 8195.000000, 8193.000000, 8186.000000
2904, 17353472.000000, 2639.000000, 8207.000000, 8198.000000, 8195.000000
2905, 17353632.000000, 2563.500000, 8223.000000, 8199.000000, 8203.000000
2906, 17353792.000000, 2482.000000, 8255.000000, 8198.000000, 8215.000000
2907, 17353952.000000, 2402.500000, 8276.000000, 8197.000000, 8222.000000
2908, 17354112.000000, 2326.000000, 8299.000000, 8196.000000, 8232.000000
2909, 17354272.000000, 2252.500000, 8287.000000, 8200.000000, 8232.000000
2910, 17354432.000000, 2190.000000, 8246.000000, 8204.000000, 8225.000000
2911, 17354592.000000, 2136.500000, 8188.000000, 8202.000000, 8204.000000
2912, 17354752.000000, 2091.000000, 8158.000000, 8194.000000, 8181.000000
2913, 17354912.000000, 2047.000000, 8146.000000, 8190.000000, 8173.000000
2914, 17355072.000000, 2007.000000, 8141.000000, 8190.000000, 8173.000000
2915, 17355232.000000, 1965.000000, 8146.000000, 8192.000000, 8175.000000
2916, 17355392.000000, 1927.000000, 8154.000000, 8193.000000, 8181.000000
2917, 17355552.000000, 1892.000000, 8154.000000, 8189.000000, 8177.000000
2918, 17355712.000000, 1860.000000, 8159.000000, 8188.000000, 8177.000000
2919, 17355872.000000, 1851.000000, 8158.000000, 8190.000000, 8177.000000
2920, 17356032.000000, 1899.000000, 8160.000000, 8189.000000, 8179.000000
2921, 17356192.000000, 2073.000000, 8160.000000, 8188.000000, 8178.000000
2922, 17356352.000000, 2360.000000, 8160.000000, 8188.000000, 8176.000000
2923, 17356512.000000, 2706.000000, 8160.000000, 8187.000000, 8173.000000
2924, 17356672.000000, 3039.000000, 8160.000000, 8189.000000, 8177.000000
2925, 17356832.000000, 3309.000000, 8165.000000, 8193.000000, 8184.000000
2926, 17356992.000000, 3509.000000, 8171.000000, 8197.000000, 8194.000000
2927, 17357152.000000, 3649.000000, 8175.000000, 8202.000000, 8204.000000
2928, 17357312.000000, 3750.000000, 8180.000000, 8205.000000, 8214.000000
2929, 17357472.000000, 3814.500000, 8187.000000, 8206.000000, 8212.000000
2930, 17357632.000000, 3841.000000, 8178.000000, 8200.000000, 8194.000000
2931, 17357792.000000, 3819.500000, 8166.000000, 8196.000000, 8184.000000
2932, 17357952.000000, 3754.000000, 8164.000000, 8192.000000, 8177.000000
2933, 17358112.000000, 3666.500000, 8169.000000, 8192.000000, 8180.000000
2934, 17358272.000000, 3574.000000, 8190.000000, 8224.000000, 8220.000000
2935, 17358432.000000, 3492.500000, 8494.000000, 8153.000000, 8289.000000
2936, 17358592.000000, 3422.000000, 8135.000000, 8105.000000, 8122.000000
2937, 17358752.000000, 3357.500000, 8156.000000, 8176.000000, 8167.000000
2938, 17358912.000000, 3290.000000, 8167.000000, 8206.000000, 8191.000000
2939, 17359072.000000, 3200.000000, 8169.000000, 8219.000000, 8205.000000
2940, 17359232.000000, 3099.000000, 8178.000000, 8223.000000, 8215.000000
2941, 17359392.000000, 2986.500000, 8182.000000, 8225.000000, 8218.000000
2942, 17359552.000000, 2867.000000, 8193.000000, 8221.000000, 8219.000000
2943, 17359712.000000, 2750.000000, 8204.000000, 8220.000000, 8221.000000
2944, 17359872.000000, 2636.000000, 8219.000000, 8225.000000, 8232.000000
2945, 17360032.000000, 2529.000000, 8245.000000, 8228.000000, 8246.000000
2946, 17360192.000000, 2433.000000, 8272.000000, 8227.000000, 8255.000000
2947, 17360352.000000, 2337.500000, 8297.000000, 8223.000000, 8262.000000
2948, 17360512.000000, 2248.000000, 8298.000000, 8221.000000, 8261.000000
2949, 17360672.000000, 2164.500000, 8261.000000, 8223.000000, 8254.000000
2950, 17360832.000000, 2086.000000, 8204.000000, 8222.000000, 8233.000000
2951, 17360992.000000, 2009.500000, 8168.000000, 8215.000000, 8212.000000
2952, 17361152.000000, 1933.000000, 8150.000000, 8207.000000, 8194.000000
2953, 17361312.000000, 1848.000000, 8143.000000, 8203.000000, 8188.000000
2954, 17361472.000000, 1758.000000, 8144.000000, 8207.000000, 8192.000000
2955, 17361632.000000, 1662.000000, 8153.000000, 8207.000000, 8198.000000
2956, 17361792.000000, 1565.000000, 8158.000000, 8207.000000, 8198.000000
2957, 17361952.000000, 1475.000000, 8160.000000, 8202.000000, 8192.000000
2958, 17362112.000000, 1403.000000, 8161.000000, 8199.000000, 8188.000000
2959, 17362272.000000, 1396.000000, 8158.000000, 8198.000000, 8183.000000
2960, 17362432.000000, 1492.000000, 8158.000000, 8200.000000, 8187.000000
2961, 17362592.000000, 1714.500000, 8158.000000, 8198.000000, 8185.000000
2962, 17362752.000000, 2000.000000, 8156.000000, 8194.000000, 8179.000000
2963, 17362912.000000, 2293.000000, 8160.000000, 8193.000000, 8181.000000
2964, 17363072.000000, 2551.000000, 8162.000000, 8195.000000, 8182.000000
2965, 17363232.000000, 2764.500000, 8163.000000, 8196.000000, 8184.000000
2966, 17363392.000000, 2943.000000, 8168.000000, 8193.000000, 8182.000000
2967, 17363552.000000, 3083.500000, 8170.000000, 8192.000000, 8183.000000
2968, 17363712.000000, 3189.000000, 8176.000000, 8198.000000, 8198.000000
2969, 17363872.000000, 3252.500000, 8177.000000, 8199.000000, 8200.000000
2970, 17364032.000000, 3268.000000, 8196.000000, 8209.000000, 8221.000000
2971, 17364192.000000, 3230.500000, 8188.000000, 8200.000000, 8197.000000
2972, 17364352.000000, 3161.000000, 8172.000000, 8187.000000, 8173.000000
2973, 17364512.000000, 3084.000000, 8167.000000, 8185.000000, 8166.000000
2974, 17364672.000000, 3023.000000, 8174.000000, 8184.000000, 8171.000000
2975, 17364832.000000, 2981.000000, 8157.000000, 8201.000000, 8181.000000
2976, 17364992.000000, 2941.000000, 8467.000000, 8193.000000, 8313.000000
2977, 17365152.000000, 2896.000000, 8194.000000, 8097.000000, 8145.000000
2978, 17365312.000000, 2838.000000, 8147.000000, 8137.000000, 8132.000000
2979, 17365472.000000, 2758.500000, 8165.000000, 8190.000000, 8175.000000
2980, 17365632.000000, 2658.000000, 8166.000000, 8198.000000, 8184.000000
2981, 17365792.000000, 2540.500000, 8173.000000, 8200.000000, 8185.000000
2982, 17365952.000000, 2413.000000, 8179.000000, 8202.000000, 8191.000000
2983, 17366112.000000, 2286.500000, 8186.000000, 8204.000000, 8197.000000
2984, 17366272.000000, 2170.000000, 8198.000000, 8210.000000, 8209.000000
2985, 17366432.000000, 2065.500000, 8209.000000, 8212.000000, 8216.000000
2986, 17366592.000000, 1970.000000, 8231.000000, 8214.000000, 8225.000000
2987, 17366752.000000, 1882.000000, 8260.000000, 8214.000000, 8238.000000
2988, 17366912.000000, 1796.000000, 8285.000000, 8214.000000, 8247.000000
2989, 17367072.000000, 1720.500000, 8301.000000, 8214.000000, 8254.000000
2990, 17367232.000000, 1651.000000, 8282.000000, 8217.000000, 8254.000000
2991, 17367392.000000, 1585.000000, 8225.000000, 8214.000000, 8229.000000
2992, 17367552.000000, 1524.000000, 8179.000000, 8205.000000, 8202.000000
2993, 17367712.000000, 1467.000000, 8154.000000, 8196.000000, 8182.000000
2994, 17367872.000000, 1415.000000, 8143.000000, 8194.000000, 8175.000000
2995, 17368032.000000, 1363.500000, 8146.000000, 8196.000000, 8179.000000
2996, 17368192.000000, 1311.000000, 8146.000000, 8196.000000, 8181.000000
2997, 17368352.000000, 1258.500000, 8152.000000, 8192.000000, 8179.000000
2998, 17368512.000000, 1209.000000, 8155.000000, 8191.000000, 8178.000000
2999, 17368672.000000, 1177.000000, 8156.000000, 8190.000000, 8177.000000
3000, 17368832.000000, 1197.000000, 8159.000000, 8188.000000, 8177.000000
3001, 17368992.000000, 1332.500000, 8155.000000, 8188.000000, 8175.000000
3002, 17369152.000000, 1586.000000, 8158.000000, 8184.000000, 8171.000000
3003, 17369312.000000, 1947.000000, 8158.000000, 8181.000000, 8166.000000
3004, 17369472.000000, 2337.000000, 8160.000000, 8182.000000, 8168.000000
3005, 17369632.000000, 2690.000000, 8161.000000, 8184.000000, 8171.000000
3006, 17369792.000000, 2965.000000, 8161.000000, 8184.000000, 8171.000000
3007, 17369952.000000, 3159.000000, 8160.000000, 8183.000000, 8169.000000
3008, 17370112.000000, 3306.000000, 8166.000000, 8181.000000, 8169.000000
3009, 17370272.000000, 3420.500000, 8171.000000, 8191.000000, 8188.000000
3010, 17370432.000000, 3507.000000, 8174.000000, 8196.000000, 8195.000000
3011, 17370592.000000, 3551.000000, 8194.000000, 8201.000000, 8213.000000
3012, 17370752.000000, 3533.000000, 8187.000000, 8190.000000, 8190.000000
3013, 17370912.000000, 3476.500000, 8169.000000, 8179.000000, 8165.000000
3014, 17371072.000000, 3397.000000, 8163.000000, 8179.000000, 8161.000000
3015, 17371232.000000, 3325.500000, 8169.000000, 8180.000000, 8164.000000
3016, 17371392.000000, 3274.000000, 8154.000000, 8189.000000, 8167.000000
3017, 17371552.000000, 3239.500000, 8380.000000, 8202.000000, 8276.000000
3018, 17371712.000000, 3211.000000, 8257.000000, 8120.000000, 8194.000000
3019, 17371872.000000, 3171.500000, 8141.000000, 8118.000000, 8115.000000
3020, 17372032.000000, 3122.000000, 8160.000000, 8185.000000, 8167.000000
3021, 17372192.000000, 3059.000000, 8165.000000, 8192.000000, 8177.000000
3022, 17372352.000000, 2983.000000, 8170.000000, 8193.000000, 8178.000000
3023, 17372512.000000, 2904.500000, 8176.000000, 8196.000000, 8185.000000
3024, 17372672.000000, 2826.000000, 8184.000000, 8196.000000, 8188.000000
3025, 17372832.000000, 2746.000000, 8195.000000, 8203.000000, 8200.000000
3026, 17372992.000000, 2675.000000, 8208.000000, 8205.000000, 8207.000000
3027, 17373152.000000, 2604.500000, 8224.000000, 8202.000000, 8210.000000
3028, 17373312.000000, 2537.000000, 8255.000000, 8206.000000, 8225.000000
3029, 17373472.000000, 2472.000000, 8283.000000, 8207.000000, 8237.000000
3030, 17373632.000000, 2406.000000, 8301.000000, 8212.000000, 8252.000000
3031, 17373792.000000, 2340.000000, 8290.000000, 8211.000000, 8251.000000
3032, 17373952.000000, 2279.000000, 8236.000000, 8207.000000, 8227.000000
3033, 17374112.000000, 2214.500000, 8187.000000, 8203.000000, 8203.000000
3034, 17374272.000000, 2152.000000, 8160.000000, 8196.000000, 8184.000000
3035, 17374432.000000, 2089.000000, 8152.000000, 8194.000000, 8179.000000
3036, 17374592.000000, 2023.000000, 8148.000000, 8191.000000, 8173.000000
3037, 17374752.000000, 1951.500000, 8152.000000, 8192.000000, 8175.000000
3038, 17374912.000000, 1878.000000, 8155.000000, 8191.000000, 8174.000000
3039, 17375072.000000, 1810.000000, 8159.000000, 8194.000000, 8181.000000
3040, 17375232.000000, 1741.000000, 8165.000000, 8194.000000, 8185.000000
3041, 17375392.000000, 1700.000000, 8165.000000, 8190.000000, 8179.000000
3042, 17375552.000000, 1728.000000, 8166.000000, 8182.000000, 8170.000000
3043, 17375712.000000, 1873.500000, 8163.000000, 8158.000000, 8142.000000
3044, 17375872.000000, 2119.000000, 8162.000000, 8153.000000, 8138.000000
3045, 17376032.000000, 2408.000000, 8165.000000, 8157.000000, 8144.000000
3046, 17376192.000000, 2674.000000, 8167.000000, 8156.000000, 8143.000000
3047, 17376352.000000, 2880.000000, 8172.000000, 8158.000000, 8146.000000
3048, 17376512.000000, 3041.000000, 8167.000000, 8161.000000, 8148.000000
3049, 17376672.000000, 3171.000000, 8170.000000, 8165.000000, 8152.000000
3050, 17376832.000000, 3275.000000, 8170.000000, 8170.000000, 8159.000000
3051, 17376992.000000, 3362.000000, 8177.000000, 8175.000000, 8172.000000
3052, 17377152.000000, 3408.000000, 8180.000000, 8177.000000, 8176.000000
3053, 17377312.000000, 3401.500000, 8196.000000, 8186.000000, 8196.000000
3054, 17377472.000000, 3341.000000, 8193.000000, 8184.000000, 8186.000000
3055, 17377632.000000, 3249.000000, 8176.000000, 8177.000000, 8166.000000
3056, 17377792.000000, 3152.000000, 8172.000000, 8175.000000, 8159.000000
3057, 17377952.000000, 3068.000000, 8176.000000, 8173.000000, 8160.000000
3058, 17378112.000000, 2998.000000, 8171.000000, 8180.000000, 8163.000000
3059, 17378272.000000, 2930.000000, 8297.000000, 8210.000000, 8243.000000
3060, 17378432.000000, 2863.000000, 8364.000000, 8144.000000, 8252.000000
3061, 17378592.000000, 2786.500000, 8144.000000, 8102.000000, 8101.000000
3062, 17378752.000000, 2693.000000, 8165.000000, 8179.000000, 8162.000000
3063, 17378912.000000, 2581.500000, 8169.000000, 8189.000000, 8173.000000
3064, 17379072.000000, 2460.000000, 8173.000000, 8194.000000, 8179.000000
3065, 17379232.000000, 2340.500000, 8178.000000, 8200.000000, 8188.000000
3066, 17379392.000000, 2227.000000, 8184.000000, 8202.000000, 8194.000000
3067, 17379552.000000, 2121.500000, 8196.000000, 8199.000000, 8195.000000
3068, 17379712.000000, 2024.000000, 8207.000000, 8202.000000, 8201.000000
3069, 17379872.000000, 1930.000000, 8223.000000, 8208.000000, 8212.000000
3070, 17380032.000000, 1845.000000, 8249.000000, 8212.000000, 8227.000000
3071, 17380192.000000, 1770.000000, 8279.000000, 8213.000000, 8240.000000
3072, 17380352.000000, 1705.000000, 8297.000000, 8210.000000, 8245.000000
3073, 17380512.000000, 1649.000000, 8294.000000, 8210.000000, 8247.000000
3074, 17380672.000000, 1598.000000, 8248.000000, 8213.000000, 8235.000000
3075, 17380832.000000, 1548.500000, 8193.000000, 8209.000000, 8211.000000
3076, 17380992.000000, 1497.000000, 8164.000000, 8201.000000, 8190.000000
3077, 17381152.000000, 1443.000000, 8151.000000, 8195.000000, 8177.000000
3078, 17381312.000000, 1390.000000, 8148.000000, 8193.000000, 8173.000000
3079, 17381472.000000, 1330.500000, 8147.000000, 8196.000000, 8179.000000
3080, 17381632.000000, 1271.000000, 8153.000000, 8197.000000, 8182.000000
3081, 17381792.000000, 1213.000000, 8157.000000, 8196.000000, 8182.000000
3082, 17381952.000000, 1158.000000, 8159.000000, 8191.000000, 8178.000000
3083, 17382112.000000, 1123.500000, 8160.000000, 8187.000000, 8173.000000
3084, 17382272.000000, 1151.000000, 8160.000000, 8188.000000, 8176.000000
3085, 17382432.000000, 1280.500000, 8162.000000, 8189.000000, 8180.000000
3086, 17382592.000000, 1523.000000, 8161.000000, 8187.000000, 8178.000000
3087, 17382752.000000, 1839.500000, 8163.000000, 8184.000000, 8176.000000
3088, 17382912.000000, 2164.000000, 8165.000000, 8182.000000, 8175.000000
3089, 17383072.000000, 2448.000000, 8167.000000, 8184.000000, 8177.000000
3090, 17383232.000000, 2684.000000, 8165.000000, 8183.000000, 8178.000000
3091, 17383392.000000, 2869.500000, 8170.000000, 8182.000000, 8177.000000
3092, 17383552.000000, 3008.000000, 8171.000000, 8180.000000, 8177.000000
3093, 17383712.000000, 3109.500000, 8175.000000, 8186.000000, 8188.000000
3094, 17383872.000000, 3169.000000, 8179.000000, 8191.000000, 8195.000000
3095, 17384032.000000, 3166.500000, 8202.000000, 8203.000000, 8221.000000
3096, 17384192.000000, 3110.000000, 8189.000000, 8191.000000, 8192.000000
3097, 17384352.000000, 3012.000000, 8175.000000, 8182.000000, 8174.000000
3098, 17384512.000000, 2904.000000, 8173.000000, 8178.000000, 8167.000000
3099, 17384672.000000, 2802.500000, 8174.000000, 8181.000000, 8172.000000
3100, 17384832.000000, 2723.000000, 8163.000000, 8196.000000, 8180.000000
3101, 17384992.000000, 2656.000000, 8438.000000, 8192.000000, 8295.000000
3102, 17385152.000000, 2594.000000, 8195.000000, 8133.000000, 8178.000000
3103, 17385312.000000, 2518.000000, 8137.000000, 8122.000000, 8109.000000
3104, 17385472.000000, 2426.000000, 8167.000000, 8186.000000, 8169.000000
3105, 17385632.000000, 2316.000000, 8172.000000, 8194.000000, 8178.000000
3106, 17385792.000000, 2206.000000, 8177.000000, 8195.000000, 8182.000000
3107, 17385952.000000, 2091.000000, 8181.000000, 8193.000000, 8183.000000
3108, 17386112.000000, 1978.000000, 8194.000000, 8193.000000, 8186.000000
3109, 17386272.000000, 1868.500000, 8203.000000, 8196.000000, 8193.000000
3110, 17386432.000000, 1768.000000, 8218.000000, 8197.000000, 8203.000000
3111, 17386592.000000, 1676.500000, 8232.000000, 8196.000000, 8204.000000
3112, 17386752.000000, 1598.000000, 8261.000000, 8196.000000, 8215.000000
3113, 17386912.000000, 1525.500000, 8289.000000, 8196.000000, 8224.000000
3114, 17387072.000000, 1458.000000, 8301.000000, 8198.000000, 8236.000000
3115, 17387232.000000, 1397.500000, 8285.000000, 8202.000000, 8237.000000
3116, 17387392.000000, 1339.000000, 8236.000000, 8202.000000, 8220.000000
3117, 17387552.000000, 1287.500000, 8184.000000, 8196.000000, 8194.000000
3118, 17387712.000000, 1243.000000, 8157.000000, 8191.000000, 8179.000000
3119, 17387872.000000, 1201.500000, 8149.000000, 8187.000000, 8170.000000
3120, 17388032.000000, 1160.000000, 8150.000000, 8189.000000, 8176.000000
3121, 17388192.000000, 1115.500000, 8150.000000, 8189.000000, 8174.000000
3122, 17388352.000000, 1070.000000, 8155.000000, 8187.000000, 8172.000000
3123, 17388512.000000, 1022.000000, 8157.000000, 8186.000000, 8170.000000
3124, 17388672.000000, 974.000000, 8159.000000, 8186.000000, 8173.000000
3125, 17388832.000000, 944.500000, 8161.000000, 8189.000000, 8176.000000
3126, 17388992.000000, 972.000000, 8160.000000, 8187.000000, 8173.000000
3127, 17389152.000000, 1113.500000, 8159.000000, 8183.000000, 8170.000000
3128, 17389312.000000, 1362.000000, 8161.000000, 8185.000000, 8170.000000
3129, 17389472.000000, 1687.000000, 8160.000000, 8186.000000, 8172.000000
3130, 17389632.000000, 2038.000000, 8161.000000, 8189.000000, 8176.000000
3131, 17389792.000000, 2368.000000, 8161.000000, 8188.000000, 8175.000000
3132, 17389952.000000, 2642.000000, 8168.000000, 8192.000000, 8187.000000
3133, 17390112.000000, 2844.500000, 8170.000000, 8195.000000, 8192.000000
3134, 17390272.000000, 2998.000000, 8190.000000, 8203.000000, 8219.000000
3135, 17390432.000000, 3113.000000, 8185.000000, 8199.000000, 8199.000000
3136, 17390592.000000, 3195.000000, 8165.000000, 8188.000000, 8173.000000
3137, 17390752.000000, 3228.000000, 8167.000000, 8183.000000, 8168.000000
3138, 17390912.000000, 3223.000000, 8165.000000, 8184.000000, 8167.000000
3139, 17391072.000000, 3187.000000, 8161.000000, 8195.000000, 8176.000000
3140, 17391232.000000, 3140.000000, 8342.000000, 8222.000000, 8283.000000
3141, 17391392.000000, 3104.000000, 8270.000000, 8147.000000, 8222.000000
3142, 17391552.000000, 3075.000000, 8129.000000, 8113.000000, 8104.000000
3143, 17391712.000000, 3054.500000, 8159.000000, 8192.000000, 8173.000000
3144, 17391872.000000, 3029.000000, 8167.000000, 8202.000000, 8187.000000
3145, 17392032.000000, 2987.000000, 8171.000000, 8209.000000, 8196.000000
3146, 17392192.000000, 2925.000000, 8181.000000, 8209.000000, 8201.000000
3147, 17392352.000000, 2838.500000, 8190.000000, 8210.000000, 8206.000000
3148, 17392512.000000, 2733.000000, 8199.000000, 8213.000000, 8213.000000
3149, 17392672.000000, 2624.500000, 8210.000000, 8218.000000, 8223.000000
3150, 17392832.000000, 2521.000000, 8232.000000, 8222.000000, 8234.000000
3151, 17392992.000000, 2417.500000, 8260.000000, 8223.000000, 8245.000000
3152, 17393152.000000, 2313.000000, 8292.000000, 8221.000000, 8257.000000
3153, 17393312.000000, 2211.000000, 8302.000000, 8220.000000, 8260.000000
3154, 17393472.000000, 2106.000000, 8290.000000, 8222.000000, 8262.000000
3155, 17393632.000000, 2002.000000, 8237.000000, 8224.000000, 8245.000000
3156, 17393792.000000, 1898.000000, 8186.000000, 8219.000000, 8220.000000
3157, 17393952.000000, 1798.500000, 8160.000000, 8214.000000, 8204.000000
3158, 17394112.000000, 1705.000000, 8148.000000, 8213.000000, 8197.000000
3159, 17394272.000000, 1614.000000, 8149.000000, 8215.000000, 8200.000000
3160, 17394432.000000, 1520.000000, 8148.000000, 8216.000000, 8200.000000
3161, 17394592.000000, 1420.500000, 8154.000000, 8214.000000, 8200.000000
3162, 17394752.000000, 1327.000000, 8161.000000, 8211.000000, 8200.000000
3163, 17394912.000000, 1241.000000, 8165.000000, 8208.000000, 8197.000000
3164, 17395072.000000, 1163.000000, 8163.000000, 8208.000000, 8198.000000
3165, 17395232.000000, 1130.000000, 8165.000000, 8210.000000, 8201.000000
3166, 17395392.000000, 1178.000000, 8166.000000, 8205.000000, 8195.000000
3167, 17395552.000000, 1342.500000, 8164.000000, 8201.000000, 8188.000000
3168, 17395712.000000, 1587.000000, 8163.000000, 8199.000000, 8185.000000
3169, 17395872.000000, 1861.500000, 8166.000000, 8203.000000, 8191.000000
3170, 17396032.000000, 2115.000000, 8166.000000, 8201.000000, 8187.000000
3171, 17396192.000000, 2329.000000, 8170.000000, 8201.000000, 8188.000000
3172, 17396352.000000, 2511.000000, 8170.000000, 8202.000000, 8193.000000
3173, 17396512.000000, 2668.500000, 8178.000000, 8205.000000, 8205.000000
3174, 17396672.000000, 2805.000000, 8184.000000, 8207.000000, 8213.000000
3175, 17396832.000000, 2900.500000, 8194.000000, 8210.000000, 8216.000000
3176, 17396992.000000, 2949.000000, 8179.000000, 8196.000000, 8185.000000
3177, 17397152.000000, 2931.500000, 8171.000000, 8189.000000, 8174.000000
3178, 17397312.000000, 2874.000000, 8173.000000, 8189.000000, 8176.000000
3179, 17397472.000000, 2792.500000, 8171.000000, 8190.000000, 8175.000000
3180, 17397632.000000, 2711.000000, 8183.000000, 8221.000000, 8210.000000
3181, 17397792.000000, 2647.500000, 8520.000000, 8149.000000, 8295.000000
3182, 17397952.000000, 2595.000000, 8157.000000, 8088.000000, 8110.000000
3183, 17398112.000000, 2547.500000, 8158.000000, 8175.000000, 8162.000000
3184, 17398272.000000, 2491.000000, 8168.000000, 8198.000000, 8179.000000
3185, 17398432.000000, 2423.000000, 8172.000000, 8206.000000, 8190.000000
3186, 17398592.000000, 2340.000000, 8178.000000, 8206.000000, 8192.000000
3187, 17398752.000000, 2244.500000, 8189.000000, 8205.000000, 8196.000000
3188, 17398912.000000, 2141.000000, 8195.000000, 8209.000000, 8202.000000
3189, 17399072.000000, 2044.000000, 8204.000000, 8212.000000, 8211.000000
3190, 17399232.000000, 1953.000000, 8223.000000, 8215.000000, 8219.000000
3191, 17399392.000000, 1874.500000, 8244.000000, 8217.000000, 8229.000000
3192, 17399552.000000, 1802.000000, 8277.000000, 8215.000000, 8241.000000
3193, 17399712.000000, 1737.500000, 8297.000000, 8217.000000, 8252.000000
3194, 17399872.000000, 1674.000000, 8306.000000, 8219.000000, 8262.000000
3195, 17400032.000000, 1616.500000, 8271.000000, 8217.000000, 8247.000000
3196, 17400192.000000, 1560.000000, 8214.000000, 8212.000000, 8222.000000
3197, 17400352.000000, 1507.000000, 8172.000000, 8204.000000, 8196.000000
3198, 17400512.000000, 1459.000000, 8156.000000, 8197.000000, 8182.000000
3199, 17400672.000000, 1411.000000, 8147.000000, 8199.000000, 8182.000000
3200, 17400832.000000, 1353.000000, 8148.000000, 8198.000000, 8182.000000
3201, 17400992.000000, 1284.000000, 8152.000000, 8197.000000, 8182.000000
3202, 17401152.000000, 1212.000000, 8155.000000, 8193.000000, 8178.000000
3203, 17401312.000000, 1137.500000, 8159.000000, 8192.000000, 8179.000000
3204, 17401472.000000, 1067.000000, 8158.000000, 8193.000000, 8180.000000
3205, 17401632.000000, 1025.000000, 8162.000000, 8191.000000, 8180.000000
3206, 17401792.000000, 1056.000000, 8159.000000, 8186.000000, 8173.000000
3207, 17401952.000000, 1201.000000, 8162.000000, 8184.000000, 8171.000000
3208, 17402112.000000, 1447.000000, 8160.000000, 8182.000000, 8168.000000
3209, 17402272.000000, 1756.500000, 8161.000000, 8186.000000, 8175.000000
3210, 17402432.000000, 2057.000000, 8160.000000, 8187.000000, 8173.000000
3211, 17402592.000000, 2314.000000, 8163.000000, 8183.000000, 8169.000000
3212, 17402752.000000, 2525.000000, 8167.000000, 8183.000000, 8170.000000
3213, 17402912.000000, 2689.500000, 8170.000000, 8188.000000, 8179.000000
3214, 17403072.000000, 2824.000000, 8172.000000, 8194.000000, 8190.000000
3215, 17403232.000000, 2928.000000, 8193.000000, 8199.000000, 8211.000000
3216, 17403392.000000, 3001.000000, 8188.000000, 8190.000000, 8187.000000
3217, 17403552.000000, 3018.000000, 8171.000000, 8166.000000, 8151.000000
3218, 17403712.000000, 2982.000000, 8167.000000, 8148.000000, 8129.000000
3219, 17403872.000000, 2906.500000, 8166.000000, 8147.000000, 8129.000000
3220, 17404032.000000, 2818.000000, 8159.000000, 8157.000000, 8138.000000
3221, 17404192.000000, 2738.000000, 8311.000000, 8185.000000, 8229.000000
3222, 17404352.000000, 2675.000000, 8326.000000, 8107.000000, 8199.000000
3223, 17404512.000000, 2626.000000, 8135.000000, 8078.000000, 8069.000000
3224, 17404672.000000, 2579.000000, 8158.000000, 8162.000000, 8141.000000
3225, 17404832.000000, 2521.000000, 8166.000000, 8175.000000, 8159.000000
3226, 17404992.000000, 2450.000000, 8168.000000, 8177.000000, 8160.000000
3227, 17405152.000000, 2362.500000, 8177.000000, 8181.000000, 8168.000000
3228, 17405312.000000, 2264.000000, 8181.000000, 8184.000000, 8174.000000
3229, 17405472.000000, 2166.000000, 8195.000000, 8188.000000, 8185.000000
3230, 17405632.000000, 2072.000000, 8204.000000, 8193.000000, 8194.000000
3231, 17405792.000000, 1984.500000, 8225.000000, 8194.000000, 8201.000000
3232, 17405952.000000, 1900.000000, 8247.000000, 8195.000000, 8209.000000
3233, 17406112.000000, 1818.000000, 8280.000000, 8201.000000, 8231.000000
3234, 17406272.000000, 1742.000000, 8298.000000, 8206.000000, 8246.000000
3235, 17406432.000000, 1674.500000, 8291.000000, 8205.000000, 8244.000000
3236, 17406592.000000, 1614.000000, 8246.000000, 8206.000000, 8231.000000
3237, 17406752.000000, 1558.000000, 8191.000000, 8200.000000, 8202.000000
3238, 17406912.000000, 1504.000000, 8163.000000, 8192.000000, 8182.000000
3239, 17407072.000000, 1448.000000, 8148.000000, 8194.000000, 8180.000000
3240, 17407232.000000, 1392.000000, 8147.000000, 8194.000000, 8181.000000
3241, 17407392.000000, 1328.500000, 8147.000000, 8191.000000, 8178.000000
3242, 17407552.000000, 1262.000000, 8149.000000, 8190.000000, 8177.000000
3243, 17407712.000000, 1196.000000, 8154.000000, 8192.000000, 8182.000000
3244, 17407872.000000, 1136.000000, 8158.000000, 8190.000000, 8181.000000
3245, 17408032.000000, 1095.000000, 8159.000000, 8190.000000, 8181.000000
3246, 17408192.000000, 1103.000000, 8157.000000, 8189.000000, 8177.000000
3247, 17408352.000000, 1212.500000, 8158.000000, 8187.000000, 8174.000000
3248, 17408512.000000, 1436.000000, 8158.000000, 8186.000000, 8173.000000
3249, 17408672.000000, 1762.500000, 8157.000000, 8188.000000, 8174.000000
3250, 17408832.000000, 2132.000000, 8164.000000, 8190.000000, 8179.000000
3251, 17408992.000000, 2492.500000, 8162.000000, 8188.000000, 8177.000000
3252, 17409152.000000, 2809.000000, 8161.000000, 8188.000000, 8177.000000
3253, 17409312.000000, 3063.000000, 8165.000000, 8188.000000, 8177.000000
3254, 17409472.000000, 3254.000000, 8174.000000, 8196.000000, 8195.000000
3255, 17409632.000000, 3387.000000, 8178.000000, 8200.000000, 8202.000000
3256, 17409792.000000, 3478.000000, 8198.000000, 8205.000000, 8216.000000
3257, 17409952.000000, 3515.000000, 8183.000000, 8190.000000, 8185.000000
3258, 17410112.000000, 3499.000000, 8168.000000, 8187.000000, 8174.000000
3259, 17410272.000000, 3441.000000, 8167.000000, 8185.000000, 8168.000000
3260, 17410432.000000, 3361.000000, 8171.000000, 8188.000000, 8175.000000
3261, 17410592.000000, 3280.000000, 8158.000000, 8198.000000, 8175.000000
3262, 17410752.000000, 3211.000000, 8459.000000, 8186.000000, 8295.000000
3263, 17410912.000000, 3158.000000, 8205.000000, 8121.000000, 8177.000000
3264, 17411072.000000, 3110.000000, 8148.000000, 8140.000000, 8136.000000
3265, 17411232.000000, 3048.000000, 8163.000000, 8191.000000, 8171.000000
3266, 17411392.000000, 2973.000000, 8168.000000, 8197.000000, 8180.000000
3267, 17411552.000000, 2878.000000, 8174.000000, 8197.000000, 8180.000000
3268, 17411712.000000, 2764.000000, 8181.000000, 8199.000000, 8187.000000
3269, 17411872.000000, 2637.000000, 8185.000000, 8204.000000, 8193.000000
3270, 17412032.000000, 2504.000000, 8197.000000, 8206.000000, 8199.000000
3271, 17412192.000000, 2367.000000, 8214.000000, 8204.000000, 8202.000000
3272, 17412352.000000, 2232.000000, 8233.000000, 8208.000000, 8214.000000
3273, 17412512.000000, 2097.500000, 8263.000000, 8210.000000, 8228.000000
3274, 17412672.000000, 1968.000000, 8290.000000, 8215.000000, 8245.000000
3275, 17412832.000000, 1841.000000, 8304.000000, 8215.000000, 8251.000000
3276, 17412992.000000, 1718.000000, 8284.000000, 8214.000000, 8244.000000
3277, 17413152.000000, 1611.500000, 8233.000000, 8214.000000, 8228.000000
3278, 17413312.000000, 1515.000000, 8183.000000, 8208.000000, 8201.000000
3279, 17413472.000000, 1432.000000, 8155.000000, 8201.000000, 8182.000000
3280, 17413632.000000, 1358.000000, 8147.000000, 8197.000000, 8178.000000
3281, 17413792.000000, 1292.000000, 8146.000000, 8196.000000, 8175.000000
3282, 17413952.000000, 1228.000000, 8147.000000, 8194.000000, 8175.000000
3283, 17414112.000000, 1171.500000, 8152.000000, 8193.000000, 8174.000000
3284, 17414272.000000, 1120.000000, 8152.000000, 8195.000000, 8176.000000
3285, 17414432.000000, 1077.000000, 8159.000000, 8195.000000, 8180.000000
3286, 17414592.000000, 1041.000000, 8157.000000, 8192.000000, 8174.000000
3287, 17414752.000000, 1040.000000, 8155.000000, 8188.000000, 8167.000000
3288, 17414912.000000, 1116.000000, 8158.000000, 8189.000000, 8172.000000
3289, 17415072.000000, 1309.000000, 8158.000000, 8191.000000, 8174.000000
3290, 17415232.000000, 1589.000000, 8156.000000, 8193.000000, 8174.000000
3291, 17415392.000000, 1902.500000, 8160.000000, 8188.000000, 8172.000000
3292, 17415552.000000, 2189.000000, 8165.000000, 8189.000000, 8174.000000
3293, 17415712.000000, 2425.000000, 8167.000000, 8189.000000, 8170.000000
3294, 17415872.000000, 2607.000000, 8172.000000, 8196.000000, 8188.000000
3295, 17416032.000000, 2741.500000, 8175.000000, 8200.000000, 8198.000000
3296, 17416192.000000, 2847.000000, 8187.000000, 8198.000000, 8206.000000
3297, 17416352.000000, 2911.500000, 8190.000000, 8192.000000, 8192.000000
3298, 17416512.000000, 2935.000000, 8173.000000, 8182.000000, 8167.000000
3299, 17416672.000000, 2903.000000, 8166.000000, 8179.000000, 8163.000000
3300, 17416832.000000, 2833.000000, 8169.000000, 8181.000000, 8167.000000
3301, 17416992.000000, 2744.500000, 8170.000000, 8178.000000, 8163.000000
3302, 17417152.000000, 2659.000000, 8246.000000, 8209.000000, 8224.000000
3303, 17417312.000000, 2596.000000, 8412.000000, 8134.000000, 8246.000000
3304, 17417472.000000, 2549.000000, 8129.000000, 8086.000000, 8085.000000
3305, 17417632.000000, 2512.000000, 8158.000000, 8175.000000, 8160.000000
3306, 17417792.000000, 2469.000000, 8161.000000, 8188.000000, 8169.000000
3307, 17417952.000000, 2409.000000, 8172.000000, 8192.000000, 8180.000000
3308, 17418112.000000, 2326.000000, 8174.000000, 8194.000000, 8183.000000
3309, 17418272.000000, 2232.000000, 8183.000000, 8197.000000, 8190.000000
3310, 17418432.000000, 2129.000000, 8189.000000, 8200.000000, 8195.000000
3311, 17418592.000000, 2016.000000, 8207.000000, 8199.000000, 8202.000000
3312, 17418752.000000, 1895.000000, 8226.000000, 8200.000000, 8210.000000
3313, 17418912.000000, 1771.000000, 8250.000000, 8203.000000, 8219.000000
3314, 17419072.000000, 1656.000000, 8280.000000, 8205.000000, 8233.000000
3315, 17419232.000000, 1546.500000, 8298.000000, 8205.000000, 8241.000000
3316, 17419392.000000, 1444.000000, 8298.000000, 8203.000000, 8243.000000
3317, 17419552.000000, 1352.000000, 8254.000000, 8205.000000, 8229.000000
3318, 17419712.000000, 1269.000000, 8199.000000, 8202.000000, 8208.000000
3319, 17419872.000000, 1203.000000, 8164.000000, 8199.000000, 8188.000000
3320, 17420032.000000, 1150.000000, 8155.000000, 8196.000000, 8185.000000
3321, 17420192.000000, 1103.000000, 8147.000000, 8192.000000, 8175.000000
3322, 17420352.000000, 1058.000000, 8152.000000, 8190.000000, 8175.000000
3323, 17420512.000000, 997.500000, 8150.000000, 8195.000000, 8180.000000
3324, 17420672.000000, 929.000000, 8160.000000, 8194.000000, 8184.000000
3325, 17420832.000000, 851.000000, 8160.000000, 8194.000000, 8182.000000
3326, 17420992.000000, 788.000000, 8159.000000, 8193.000000, 8182.000000
3327, 17421152.000000, 781.000000, 8162.000000, 8189.000000, 8176.000000
3328, 17421312.000000, 879.000000, 8162.000000, 8189.000000, 8178.000000
3329, 17421472.000000, 1147.000000, 8161.000000, 8193.000000, 8180.000000
3330, 17421632.000000, 1588.000000, 8164.000000, 8190.000000, 8179.000000
3331, 17421792.000000, 1943.500000, 8164.000000, 8188.000000, 8177.000000
3332, 17421952.000000, 2250.000000, 8168.000000, 8191.000000, 8186.000000
3333, 17422112.000000, 2462.000000, 8171.000000, 8199.000000, 8200.000000
3334, 17422272.000000, 2625.000000, 8180.000000, 8203.000000, 8212.000000
3335, 17422432.000000, 2748.500000, 8186.000000, 8201.000000, 8208.000000
3336, 17422592.000000, 2840.000000, 8169.000000, 8187.000000, 8175.000000
3337, 17422752.000000, 2881.500000, 8166.000000, 8183.000000, 8167.000000
3338, 17422912.000000, 2869.000000, 8168.000000, 8183.000000, 8170.000000
3339, 17423072.000000, 2809.000000, 8169.000000, 8186.000000, 8172.000000
3340, 17423232.000000, 2731.000000, 8192.000000, 8215.000000, 8210.000000
3341, 17423392.000000, 2664.000000, 8486.000000, 8134.000000, 8263.000000
3342, 17423552.000000, 2616.000000, 8131.000000, 8087.000000, 8099.000000
3343, 17423712.000000, 2583.500000, 8152.000000, 8168.000000, 8153.000000
3344, 17423872.000000, 2554.000000, 8162.000000, 8192.000000, 8173.000000
3345, 17424032.000000, 2513.500000, 8168.000000, 8196.000000, 8179.000000
3346, 17424192.000000, 2454.000000, 8177.000000, 8196.000000, 8183.000000
3347, 17424352.000000, 2374.500000, 8180.000000, 8195.000000, 8184.000000
3348, 17424512.000000, 2284.000000, 8191.000000, 8200.000000, 8195.000000
3349, 17424672.000000, 2191.500000, 8205.000000, 8203.000000, 8205.000000
3350, 17424832.000000, 2103.000000, 8217.000000, 8205.000000, 8209.000000
3351, 17424992.000000, 2023.000000, 8242.000000, 8203.000000, 8217.000000
3352, 17425152.000000, 1954.000000, 8272.000000, 8205.000000, 8231.000000
3353, 17425312.000000, 1896.000000, 8297.000000, 8207.000000, 8244.000000
3354, 17425472.000000, 1847.000000, 8299.000000, 8208.000000, 8250.000000
3355, 17425632.000000, 1806.500000, 8256.000000, 8209.000000, 8235.000000
3356, 17425792.000000, 1774.000000, 8200.000000, 8205.000000, 8211.000000
3357, 17425952.000000, 1746.000000, 8168.000000, 8197.000000, 8192.000000
3358, 17426112.000000, 1717.000000, 8152.000000, 8193.000000, 8180.000000
3359, 17426272.000000, 1675.000000, 8143.000000, 8195.000000, 8178.000000
3360, 17426432.000000, 1626.000000, 8147.000000, 8196.000000, 8183.000000
3361, 17426592.000000, 1573.000000, 8153.000000, 8192.000000, 8179.000000
3362, 17426752.000000, 1518.000000, 8159.000000, 8193.000000, 8182.000000
3363, 17426912.000000, 1459.500000, 8158.000000, 8194.000000, 8183.000000
3364, 17427072.000000, 1412.000000, 8160.000000, 8194.000000, 8182.000000
3365, 17427232.000000, 1415.500000, 8161.000000, 8196.000000, 8185.000000
3366, 17427392.000000, 1511.000000, 8164.000000, 8194.000000, 8185.000000
3367, 17427552.000000, 1715.000000, 8164.000000, 8192.000000, 8181.000000
3368, 17427712.000000, 1980.000000, 8165.000000, 8192.000000, 8181.000000
3369, 17427872.000000, 2247.000000, 8167.000000, 8194.000000, 8185.000000
3370, 17428032.000000, 2477.000000, 8168.000000, 8195.000000, 8186.000000
3371, 17428192.000000, 2651.000000, 8168.000000, 8195.000000, 8188.000000
3372, 17428352.000000, 2776.000000, 8175.000000, 8197.000000, 8195.000000
3373, 17428512.000000, 2863.500000, 8176.000000, 8202.000000, 8204.000000
3374, 17428672.000000, 2916.000000, 8194.000000, 8211.000000, 8223.000000
3375, 17428832.000000, 2925.000000, 8185.000000, 8199.000000, 8194.000000
3376, 17428992.000000, 2888.000000, 8170.000000, 8190.000000, 8175.000000
3377, 17429152.000000, 2804.000000, 8170.000000, 8187.000000, 8168.000000
3378, 17429312.000000, 2699.000000, 8166.000000, 8188.000000, 8168.000000
3379, 17429472.000000, 2591.500000, 8161.000000, 8205.000000, 8184.000000
3380, 17429632.000000, 2498.000000, 8475.000000, 8192.000000, 8310.000000
3381, 17429792.000000, 2427.500000, 8180.000000, 8107.000000, 8144.000000
3382, 17429952.000000, 2373.000000, 8143.000000, 8140.000000, 8127.000000
3383, 17430112.000000, 2324.500000, 8164.000000, 8193.000000, 8172.000000
3384, 17430272.000000, 2269.000000, 8168.000000, 8200.000000, 8181.000000
3385, 17430432.000000, 2205.000000, 8175.000000, 8203.000000, 8189.000000
3386, 17430592.000000, 2138.000000, 8184.000000, 8202.000000, 8190.000000
3387, 17430752.000000, 2069.000000, 8190.000000, 8205.000000, 8197.000000
3388, 17430912.000000, 1989.000000, 8198.000000, 8208.000000, 8203.000000
3389, 17431072.000000, 1905.500000, 8215.000000, 8212.000000, 8214.000000
3390, 17431232.000000, 1826.000000, 8238.000000, 8215.000000, 8225.000000
3391, 17431392.000000, 1746.000000, 8263.000000, 8215.000000, 8235.000000
3392, 17431552.000000, 1672.000000, 8292.000000, 8216.000000, 8248.000000
3393, 17431712.000000, 1596.000000, 8303.000000, 8218.000000, 8257.000000
3394, 17431872.000000, 1520.000000, 8282.000000, 8220.000000, 8251.000000
3395, 17432032.000000, 1441.500000, 8227.000000, 8218.000000, 8232.000000
3396, 17432192.000000, 1363.000000, 8179.000000, 8206.000000, 8201.000000
3397, 17432352.000000, 1287.500000, 8159.000000, 8200.000000, 8185.000000
3398, 17432512.000000, 1208.000000, 8149.000000, 8197.000000, 8178.000000
3399, 17432672.000000, 1132.000000, 8148.000000, 8201.000000, 8185.000000
3400, 17432832.000000, 1060.000000, 8153.000000, 8202.000000, 8187.000000
3401, 17432992.000000, 999.500000, 8156.000000, 8198.000000, 8183.000000
3402, 17433152.000000, 954.000000, 8164.000000, 8196.000000, 8183.000000
3403, 17433312.000000, 925.500000, 8163.000000, 8196.000000, 8182.000000
3404, 17433472.000000, 950.000000, 8162.000000, 8195.000000, 8182.000000
3405, 17433632.000000, 1067.500000, 8163.000000, 8192.000000, 8180.000000
3406, 17433792.000000, 1293.000000, 8162.000000, 8188.000000, 8177.000000
3407, 17433952.000000, 1603.500000, 8159.000000, 8187.000000, 8172.000000
3408, 17434112.000000, 1934.000000, 8164.000000, 8191.000000, 8178.000000
3409, 17434272.000000, 2230.500000, 8163.000000, 8192.000000, 8178.000000
3410, 17434432.000000, 2476.000000, 8166.000000, 8191.000000, 8179.000000
3411, 17434592.000000, 2665.500000, 8174.000000, 8195.000000, 8192.000000
3412, 17434752.000000, 2812.000000, 8176.000000, 8195.000000, 8195.000000
3413, 17434912.000000, 2914.500000, 8188.000000, 8201.000000, 8215.000000
3414, 17435072.000000, 2972.000000, 8189.000000, 8196.000000, 8199.000000
3415, 17435232.000000, 2974.500000, 8173.000000, 8183.000000, 8172.000000
3416, 17435392.000000, 2921.000000, 8166.000000, 8180.000000, 8164.000000
3417, 17435552.000000, 2820.500000, 8165.000000, 8178.000000, 8161.000000
3418, 17435712.000000, 2707.000000, 8165.000000, 8182.000000, 8165.000000
3419, 17435872.000000, 2611.500000, 8269.000000, 8219.000000, 8243.000000
3420, 17436032.000000, 2539.000000, 8384.000000, 8133.000000, 8240.000000
3421, 17436192.000000, 2484.500000, 8132.000000, 8091.000000, 8086.000000
3422, 17436352.000000, 2429.000000, 8157.000000, 8178.000000, 8158.000000
3423, 17436512.000000, 2364.500000, 8161.000000, 8191.000000, 8168.000000
3424, 17436672.000000, 2286.000000, 8170.000000, 8196.000000, 8179.000000
3425, 17436832.000000, 2183.000000, 8176.000000, 8199.000000, 8184.000000
3426, 17436992.000000, 2067.000000, 8182.000000, 8197.000000, 8184.000000
3427, 17437152.000000, 1940.500000, 8189.000000, 8200.000000, 8193.000000
3428, 17437312.000000, 1817.000000, 8202.000000, 8204.000000, 8200.000000
3429, 17437472.000000, 1704.500000, 8218.000000, 8209.000000, 8213.000000
3430, 17437632.000000, 1605.000000, 8246.000000, 8207.000000, 8220.000000
3431, 17437792.000000, 1515.500000, 8276.000000, 8208.000000, 8233.000000
3432, 17437952.000000, 1441.000000, 8293.000000, 8210.000000, 8244.000000
3433, 17438112.000000, 1381.000000, 8287.000000, 8210.000000, 8244.000000
3434, 17438272.000000, 1343.000000, 8242.000000, 8212.000000, 8232.000000
3435, 17438432.000000, 1318.000000, 8191.000000, 8204.000000, 8204.000000
3436, 17438592.000000, 1301.000000, 8158.000000, 8195.000000, 8180.000000
3437, 17438752.000000, 1281.500000, 8145.000000, 8191.000000, 8171.000000
3438, 17438912.000000, 1252.000000, 8142.000000, 8193.000000, 8173.000000
3439, 17439072.000000, 1207.000000, 8141.000000, 8195.000000, 8176.000000
3440, 17439232.000000, 1152.000000, 8150.000000, 8194.000000, 8179.000000
3441, 17439392.000000, 1096.000000, 8151.000000, 8191.000000, 8175.000000
3442, 17439552.000000, 1043.000000, 8152.000000, 8189.000000, 8172.000000
3443, 17439712.000000, 1017.500000, 8155.000000, 8189.000000, 8174.000000
3444, 17439872.000000, 1068.000000, 8153.000000, 8192.000000, 8177.000000
3445, 17440032.000000, 1227.000000, 8158.000000, 8189.000000, 8176.000000
3446, 17440192.000000, 1497.000000, 8155.000000, 8187.000000, 8172.000000
3447, 17440352.000000, 1839.000000, 8155.000000, 8186.000000, 8171.000000
3448, 17440512.000000, 2189.000000, 8159.000000, 8189.000000, 8176.000000
3449, 17440672.000000, 2493.500000, 8160.000000, 8191.000000, 8179.000000
3450, 17440832.000000, 2740.000000, 8161.000000, 8191.000000, 8180.000000
3451, 17440992.000000, 2926.000000, 8169.000000, 8190.000000, 8184.000000
3452, 17441152.000000, 3075.000000, 8171.000000, 8194.000000, 8191.000000
3453, 17441312.000000, 3186.500000, 8178.000000, 8200.000000, 8204.000000
3454, 17441472.000000, 3262.000000, 8190.000000, 8201.000000, 8205.000000
3455, 17441632.000000, 3280.000000, 8174.000000, 8194.000000, 8185.000000
3456, 17441792.000000, 3250.000000, 8166.000000, 8183.000000, 8169.000000
3457, 17441952.000000, 3192.500000, 8165.000000, 8182.000000, 8167.000000
3458, 17442112.000000, 3131.000000, 8167.000000, 8184.000000, 8169.000000
3459, 17442272.000000, 3080.500000, 8174.000000, 8211.000000, 8200.000000
3460, 17442432.000000, 3038.000000, 8517.000000, 8151.000000, 8295.000000
3461, 17442592.000000, 3001.000000, 8162.000000, 8098.000000, 8131.000000
3462, 17442752.000000, 2956.000000, 8155.000000, 8167.000000, 8158.000000
3463, 17442912.000000, 2893.000000, 8163.000000, 8195.000000, 8177.000000
3464, 17443072.000000, 2816.000000, 8166.000000, 8199.000000, 8181.000000
3465, 17443232.000000, 2718.000000, 8174.000000, 8202.000000, 8189.000000
3466, 17443392.000000, 2612.000000, 8185.000000, 8201.000000, 8190.000000
3467, 17443552.000000, 2506.500000, 8189.000000, 8202.000000, 8193.000000
3468, 17443712.000000, 2396.000000, 8199.000000, 8209.000000, 8205.000000
3469, 17443872.000000, 2287.500000, 8213.000000, 8210.000000, 8211.000000
3470, 17444032.000000, 2182.000000, 8240.000000, 8210.000000, 8221.000000
3471, 17444192.000000, 2081.500000, 8265.000000, 8207.000000, 8225.000000
3472, 17444352.000000, 1987.000000, 8290.000000, 8210.000000, 8242.000000
3473, 17444512.000000, 1895.500000, 8300.000000, 8212.000000, 8251.000000
3474, 17444672.000000, 1806.000000, 8272.000000, 8214.000000, 8244.000000
3475, 17444832.000000, 1722.000000, 8214.000000, 8211.000000, 8219.000000
3476, 17444992.000000, 1640.000000, 8173.000000, 8202.000000, 8193.000000
3477, 17445152.000000, 1564.000000, 8153.000000, 8196.000000, 8179.000000
3478, 17445312.000000, 1489.000000, 8149.000000, 8196.000000, 8177.000000
3479, 17445472.000000, 1409.000000, 8149.000000, 8199.000000, 8180.000000
3480, 17445632.000000, 1322.000000, 8150.000000, 8198.000000, 8179.000000
3481, 17445792.000000, 1233.500000, 8157.000000, 8195.000000, 8179.000000
3482, 17445952.000000, 1149.000000, 8161.000000, 8195.000000, 8180.000000
3483, 17446112.000000, 1084.000000, 8163.000000, 8195.000000, 8179.000000
3484, 17446272.000000, 1071.000000, 8159.000000, 8194.000000, 8177.000000
3485, 17446432.000000, 1151.000000, 8158.000000, 8193.000000, 8176.000000
3486, 17446592.000000, 1334.000000, 8163.000000, 8187.000000, 8171.000000
3487, 17446752.000000, 1591.000000, 8162.000000, 8187.000000, 8170.000000
3488, 17446912.000000, 1868.000000, 8159.000000, 8189.000000, 8174.000000
3489, 17447072.000000, 2121.500000, 8161.000000, 8191.000000, 8176.000000
3490, 17447232.000000, 2338.000000, 8161.000000, 8190.000000, 8173.000000
3491, 17447392.000000, 2514.000000, 8168.000000, 8190.000000, 8179.000000
3492, 17447552.000000, 2655.000000, 8166.000000, 8195.000000, 8187.000000
3493, 17447712.000000, 2764.000000, 8175.000000, 8196.000000, 8194.000000
3494, 17447872.000000, 2837.000000, 8190.000000, 8204.000000, 8208.000000
3495, 17448032.000000, 2854.000000, 8180.000000, 8188.000000, 8179.000000
3496, 17448192.000000, 2820.000000, 8166.000000, 8181.000000, 8163.000000
3497, 17448352.000000, 2745.000000, 8164.000000, 8178.000000, 8159.000000
3498, 17448512.000000, 2659.000000, 8165.000000, 8182.000000, 8165.000000
3499, 17448672.000000, 2583.000000, 8165.000000, 8201.000000, 8182.000000
3500, 17448832.000000, 2523.000000, 8515.000000, 8164.000000, 8300.000000
3501, 17448992.000000, 2477.000000, 8169.000000, 8094.000000, 8128.000000
3502, 17449152.000000, 2430.000000, 8147.000000, 8147.000000, 8136.000000
3503, 17449312.000000, 2374.500000, 8163.000000, 8187.000000, 8167.000000
3504, 17449472.000000, 2308.000000, 8165.000000, 8194.000000, 8175.000000
3505, 17449632.000000, 2228.000000, 8176.000000, 8192.000000, 8177.000000
3506, 17449792.000000, 2138.000000, 8182.000000, 8191.000000, 8180.000000
3507, 17449952.000000, 2042.500000, 8186.000000, 8195.000000, 8186.000000
3508, 17450112.000000, 1947.000000, 8200.000000, 8197.000000, 8194.000000
3509, 17450272.000000, 1854.500000, 8213.000000, 8197.000000, 8200.000000
3510, 17450432.000000, 1766.000000, 8237.000000, 8201.000000, 8212.000000
3511, 17450592.000000, 1685.000000, 8263.000000, 8198.000000, 8220.000000
3512, 17450752.000000, 1607.000000, 8293.000000, 8200.000000, 8234.000000
3513, 17450912.000000, 1527.500000, 8303.000000, 8203.000000, 8244.000000
3514, 17451072.000000, 1451.000000, 8273.000000, 8204.000000, 8237.000000
3515, 17451232.000000, 1378.000000, 8221.000000, 8204.000000, 8216.000000
3516, 17451392.000000, 1307.000000, 8176.000000, 8193.000000, 8188.000000
3517, 17451552.000000, 1239.000000, 8151.000000, 8189.000000, 8173.000000
3518, 17451712.000000, 1169.000000, 8143.000000, 8191.000000, 8172.000000
3519, 17451872.000000, 1094.000000, 8143.000000, 8193.000000, 8172.000000
3520, 17452032.000000, 1019.000000, 8144.000000, 8190.000000, 8169.000000
3521, 17452192.000000, 945.000000, 8148.000000, 8186.000000, 8168.000000
3522, 17452352.000000, 871.000000, 8154.000000, 8186.000000, 8170.000000
3523, 17452512.000000, 806.500000, 8157.000000, 8184.000000, 8168.000000
3524, 17452672.000000, 773.000000, 8158.000000, 8182.000000, 8167.000000
3525, 17452832.000000, 823.500000, 8156.000000, 8177.000000, 8160.000000
3526, 17452992.000000, 980.000000, 8159.000000, 8174.000000, 8159.000000
3527, 17453152.000000, 1230.500000, 8159.000000, 8173.000000, 8158.000000
3528, 17453312.000000, 1525.000000, 8162.000000, 8174.000000, 8161.000000
3529, 17453472.000000, 1818.500000, 8164.000000, 8177.000000, 8164.000000
3530, 17453632.000000, 2074.000000, 8166.000000, 8177.000000, 8169.000000
3531, 17453792.000000, 2274.500000, 8175.000000, 8181.000000, 8179.000000
3532, 17453952.000000, 2426.000000, 8189.000000, 8189.000000, 8202.000000
3533, 17454112.000000, 2541.500000, 8185.000000, 8185.000000, 8187.000000
3534, 17454272.000000, 2625.000000, 8170.000000, 8175.000000, 8164.000000
3535, 17454432.000000, 2661.500000, 8165.000000, 8172.000000, 8155.000000
3536, 17454592.000000, 2645.000000, 8168.000000, 8167.000000, 8152.000000
3537, 17454752.000000, 2579.000000, 8162.000000, 8173.000000, 8156.000000
3538, 17454912.000000, 2495.000000, 8272.000000, 8205.000000, 8231.000000
3539, 17455072.000000, 2413.500000, 8363.000000, 8145.000000, 8242.000000
3540, 17455232.000000, 2354.000000, 8121.000000, 8086.000000, 8080.000000
3541, 17455392.000000, 2310.000000, 8159.000000, 8168.000000, 8151.000000
3542, 17455552.000000, 2280.000000, 8170.000000, 8181.000000, 8164.000000
3543, 17455712.000000, 2248.000000, 8170.000000, 8188.000000, 8173.000000
3544, 17455872.000000, 2205.000000, 8177.000000, 8190.000000, 8179.000000
3545, 17456032.000000, 2146.000000, 8189.000000, 8191.000000, 8186.000000
3546, 17456192.000000, 2075.000000, 8196.000000, 8191.000000, 8187.000000
3547, 17456352.000000, 1993.500000, 8211.000000, 8193.000000, 8195.000000
3548, 17456512.000000, 1908.000000, 8227.000000, 8199.000000, 8209.000000
3549, 17456672.000000, 1822.000000, 8253.000000, 8202.000000, 8220.000000
3550, 17456832.000000, 1739.000000, 8287.000000, 8201.000000, 8233.000000
3551, 17456992.000000, 1670.500000, 8303.000000, 8198.000000, 8237.000000
3552, 17457152.000000, 1613.000000, 8299.000000, 8200.000000, 8242.000000
3553, 17457312.000000, 1567.000000, 8246.000000, 8206.000000, 8229.000000
3554, 17457472.000000, 1531.000000, 8192.000000, 8206.000000, 8211.000000
3555, 17457632.000000, 1502.500000, 8162.000000, 8198.000000, 8191.000000
3556, 17457792.000000, 1483.000000, 8149.000000, 8193.000000, 8178.000000
3557, 17457952.000000, 1469.500000, 8146.000000, 8193.000000, 8178.000000
3558, 17458112.000000, 1444.000000, 8149.000000, 8199.000000, 8184.000000
3559, 17458272.000000, 1405.000000, 8154.000000, 8200.000000, 8188.000000
3560, 17458432.000000, 1355.000000, 8156.000000, 8199.000000, 8188.000000
3561, 17458592.000000, 1306.000000, 8162.000000, 8196.000000, 8187.000000
3562, 17458752.000000, 1265.000000, 8163.000000, 8195.000000, 8185.000000
3563, 17458912.000000, 1263.500000, 8165.000000, 8196.000000, 8187.000000
3564, 17459072.000000, 1337.000000, 8168.000000, 8197.000000, 8190.000000
3565, 17459232.000000, 1513.500000, 8162.000000, 8195.000000, 8184.000000
3566, 17459392.000000, 1772.000000, 8166.000000, 8194.000000, 8184.000000
3567, 17459552.000000, 2059.500000, 8164.000000, 8194.000000, 8181.000000
3568, 17459712.000000, 2325.000000, 8168.000000, 8196.000000, 8187.000000
3569, 17459872.000000, 2541.500000, 8173.000000, 8203.000000, 8203.000000
3570, 17460032.000000, 2717.000000, 8179.000000, 8205.000000, 8209.000000
3571, 17460192.000000, 2846.500000, 8195.000000, 8208.000000, 8223.000000
3572, 17460352.000000, 2933.000000, 8190.000000, 8204.000000, 8206.000000
3573, 17460512.000000, 2973.500000, 8165.000000, 8192.000000, 8177.000000
3574, 17460672.000000, 2961.000000, 8169.000000, 8192.000000, 8178.000000
