1357, 13490344.000000, 1980.500000, 8212.500000, 8203.000000, 8201.000000
1358, 13490504.000000, 1897.125000, 8231.000000, 8207.000000, 8211.000000
1359, 13490664.000000, 1821.875000, 8251.500000, 8208.000000, 8220.500000
1360, 13490824.000000, 1754.875000, 8260.500000, 8210.000000, 8226.500000
1361, 13490984.000000, 1699.125000, 8254.500000, 8211.000000, 8228.500000
1362, 13491144.000000, 1662.875000, 8228.000000, 8211.000000, 8224.000000
1363, 13491304.000000, 1648.125000, 8190.500000, 8204.000000, 8204.000000
1364, 13491464.000000, 1643.750000, 8167.000000, 8194.500000, 8185.500000
1365, 13491624.000000, 1638.125000, 8158.500000, 8191.000000, 8179.000000
1366, 13491784.000000, 1620.375000, 8160.500000, 8191.000000, 8179.500000
1367, 13491944.000000, 1585.000000, 8166.500000, 8192.000000, 8182.500000
1368, 13492104.000000, 1540.750000, 8166.500000, 8189.500000, 8180.000000
1369, 13492264.000000, 1494.750000, 8168.000000, 8188.500000, 8179.500000
1370, 13492424.000000, 1456.750000, 8166.000000, 8186.000000, 8176.000000
1371, 13492584.000000, 1453.250000, 8165.000000, 8186.000000, 8175.000000
1372, 13492744.000000, 1530.875000, 8164.500000, 8186.000000, 8175.000000
1373, 13492904.000000, 1762.750000, 8166.000000, 8185.000000, 8173.000000
1374, 13493064.000000, 2129.125000, 8163.500000, 8184.000000, 8170.500000
1375, 13493224.000000, 2553.125000, 8166.000000, 8183.000000, 8171.000000
1376, 13493384.000000, 2900.250000, 8166.500000, 8185.500000, 8174.000000
1377, 13493544.000000, 3101.625000, 8174.000000, 8194.500000, 8193.500000
1378, 13493704.000000, 3157.375000, 8175.000000, 8195.000000, 8197.000000
1379, 13493864.000000, 3119.750000, 8193.500000, 8201.000000, 8213.000000
1380, 13494024.000000, 3042.375000, 8182.500000, 8186.500000, 8179.500000
1381, 13494184.000000, 2942.125000, 8165.500000, 8178.500000, 8160.000000
1382, 13494344.000000, 2816.625000, 8164.500000, 8177.000000, 8156.000000
1383, 13494504.000000, 2666.875000, 8166.000000, 8177.000000, 8157.000000
1384, 13494664.000000, 2528.375000, 8164.500000, 8194.500000, 8171.500000
1385, 13494824.000000, 2433.875000, 8491.000000, 8180.500000, 8319.000000
1386, 13494984.000000, 2390.125000, 8174.000000, 8065.500000, 8107.500000
1387, 13495144.000000, 2378.750000, 8152.500000, 8151.000000, 8141.000000
1388, 13495304.000000, 2368.625000, 8161.000000, 8186.500000, 8161.500000
1389, 13495464.000000, 2330.250000, 8166.000000, 8193.500000, 8171.500000
1390, 13495624.000000, 2256.625000, 8172.500000, 8199.500000, 8181.000000
1391, 13495784.000000, 2162.375000, 8181.000000, 8202.000000, 8189.000000
1392, 13495944.000000, 2057.875000, 8191.000000, 8203.000000, 8192.000000
1393, 13496104.000000, 1956.625000, 8201.500000, 8206.000000, 8198.000000
1394, 13496264.000000, 1862.625000, 8215.000000, 8206.000000, 8203.500000
1395, 13496424.000000, 1778.000000, 8234.500000, 8211.000000, 8216.000000
1396, 13496584.000000, 1703.625000, 8253.500000, 8212.500000, 8223.500000
1397, 13496744.000000, 1639.625000, 8263.000000, 8213.000000, 8229.500000
1398, 13496904.000000, 1591.125000, 8256.500000, 8214.500000, 8232.500000
1399, 13497064.000000, 1559.375000, 8224.500000, 8213.500000, 8223.500000
1400, 13497224.000000, 1543.500000, 8189.000000, 8206.000000, 8203.500000
1401, 13497384.000000, 1532.875000, 8166.500000, 8197.500000, 8187.000000
1402, 13497544.000000, 1519.875000, 8161.000000, 8195.000000, 8182.000000
1403, 13497704.000000, 1494.125000, 8162.000000, 8194.500000, 8182.000000
1404, 13497864.000000, 1461.125000, 8166.000000, 8193.000000, 8183.000000
1405, 13498024.000000, 1422.000000, 8168.000000, 8192.000000, 8183.000000
1406, 13498184.000000, 1385.250000, 8166.000000, 8190.500000, 8179.500000
1407, 13498344.000000, 1350.875000, 8166.500000, 8189.000000, 8177.500000
1408, 13498504.000000, 1340.000000, 8165.000000, 8188.500000, 8175.500000
1409, 13498664.000000, 1406.125000, 8163.000000, 8186.000000, 8172.000000
1410, 13498824.000000, 1618.125000, 8162.500000, 8186.500000, 8172.000000
1411, 13498984.000000, 1988.375000, 8162.000000, 8187.500000, 8172.500000
1412, 13499144.000000, 2414.875000, 8165.000000, 8186.000000, 8171.500000
1413, 13499304.000000, 2772.250000, 8166.000000, 8185.000000, 8171.000000
1414, 13499464.000000, 2984.125000, 8174.000000, 8194.000000, 8191.000000
1415, 13499624.000000, 3043.250000, 8174.500000, 8197.000000, 8196.500000
1416, 13499784.000000, 3000.000000, 8188.000000, 8201.000000, 8210.500000
1417, 13499944.000000, 2909.375000, 8191.500000, 8196.000000, 8196.500000
1418, 13500104.000000, 2794.375000, 8170.500000, 8183.000000, 8166.000000
1419, 13500264.000000, 2649.625000, 8166.000000, 8178.500000, 8158.500000
1420, 13500424.000000, 2489.375000, 8166.500000, 8179.000000, 8157.500000
1421, 13500584.000000, 2349.375000, 8155.500000, 8184.000000, 8155.000000
1422, 13500744.000000, 2259.500000, 8382.500000, 8224.000000, 8303.000000
1423, 13500904.000000, 2223.000000, 8249.500000, 8095.000000, 8172.500000
1424, 13501064.000000, 2216.875000, 8144.500000, 8117.000000, 8111.500000
1425, 13501224.000000, 2206.375000, 8159.000000, 8182.000000, 8155.500000
1426, 13501384.000000, 2169.000000, 8163.500000, 8190.000000, 8166.500000
1427, 13501544.000000, 2096.750000, 8170.500000, 8193.500000, 8173.500000
1428, 13501704.000000, 2003.000000, 8180.000000, 8195.000000, 8180.000000
1429, 13501864.000000, 1902.375000, 8189.000000, 8196.000000, 8185.000000
1430, 13502024.000000, 1804.375000, 8197.500000, 8198.500000, 8190.500000
1431, 13502184.000000, 1715.375000, 8213.500000, 8202.000000, 8200.500000
1432, 13502344.000000, 1641.750000, 8230.500000, 8205.500000, 8209.500000
1433, 13502504.000000, 1579.625000, 8251.500000, 8209.500000, 8221.000000
1434, 13502664.000000, 1533.250000, 8262.000000, 8210.000000, 8226.000000
1435, 13502824.000000, 1502.750000, 8262.000000, 8211.000000, 8230.500000
1436, 13502984.000000, 1485.625000, 8236.500000, 8212.000000, 8226.000000
1437, 13503144.000000, 1481.375000, 8198.500000, 8205.500000, 8207.000000
1438, 13503304.000000, 1476.625000, 8172.000000, 8196.500000, 8187.500000
1439, 13503464.000000, 1466.875000, 8162.000000, 8192.000000, 8181.000000
1440, 13503624.000000, 1444.375000, 8160.000000, 8191.000000, 8179.000000
1441, 13503784.000000, 1409.000000, 8161.500000, 8192.500000, 8181.500000
1442, 13503944.000000, 1361.625000, 8165.500000, 8192.500000, 8183.000000
1443, 13504104.000000, 1316.375000, 8166.000000, 8190.500000, 8181.500000
1444, 13504264.000000, 1275.125000, 8165.000000, 8188.000000, 8177.000000
1445, 13504424.000000, 1241.750000, 8166.000000, 8186.000000, 8176.000000
1446, 13504584.000000, 1260.375000, 8164.000000, 8186.000000, 8173.000000
1447, 13504744.000000, 1397.250000, 8162.500000, 8187.500000, 8174.000000
1448, 13504904.000000, 1690.375000, 8162.000000, 8187.000000, 8174.000000
1449, 13505064.000000, 2080.625000, 8163.500000, 8186.000000, 8172.500000
1450, 13505224.000000, 2454.125000, 8164.500000, 8187.000000, 8173.000000
1451, 13505384.000000, 2692.250000, 8165.000000, 8188.000000, 8178.000000
1452, 13505544.000000, 2771.250000, 8176.500000, 8198.500000, 8201.000000
1453, 13505704.000000, 2697.250000, 8174.500000, 8196.500000, 8199.000000
1454, 13505864.000000, 2543.875000, 8194.000000, 8204.500000, 8216.000000
1455, 13506024.000000, 2352.375000, 8176.500000, 8190.500000, 8181.500000
1456, 13506184.000000, 2139.875000, 8166.000000, 8182.000000, 8165.000000
1457, 13506344.000000, 1913.125000, 8163.000000, 8184.000000, 8164.000000
1458, 13506504.000000, 1697.250000, 8166.000000, 8182.500000, 8164.500000
1459, 13506664.000000, 1521.875000, 8178.500000, 8210.000000, 8194.500000
1460, 13506824.000000, 1399.625000, 8486.000000, 8160.500000, 8302.500000
1461, 13506984.000000, 1326.000000, 8150.000000, 8072.000000, 8099.000000
1462, 13507144.000000, 1271.000000, 8150.500000, 8167.500000, 8151.500000
1463, 13507304.000000, 1205.875000, 8156.500000, 8190.500000, 8168.000000
1464, 13507464.000000, 1124.625000, 8160.500000, 8195.000000, 8175.500000
1465, 13507624.000000, 1035.500000, 8168.000000, 8200.500000, 8184.000000
1466, 13507784.000000, 946.875000, 8177.000000, 8202.500000, 8191.500000
1467, 13507944.000000, 865.000000, 8188.000000, 8207.000000, 8199.500000
1468, 13508104.000000, 784.500000, 8197.000000, 8210.500000, 8205.000000
1469, 13508264.000000, 718.375000, 8213.500000, 8211.500000, 8212.000000
1470, 13508424.000000, 664.625000, 8230.500000, 8214.500000, 8221.500000
1471, 13508584.000000, 620.000000, 8251.500000, 8220.500000, 8235.500000
1472, 13508744.000000, 592.250000, 8254.500000, 8223.500000, 8242.000000
1473, 13508904.000000, 586.250000, 8249.500000, 8222.500000, 8243.500000
1474, 13509064.000000, 599.125000, 8217.000000, 8224.500000, 8235.000000
1475, 13509224.000000, 626.500000, 8179.000000, 8217.000000, 8216.500000
1476, 13509384.000000, 664.375000, 8160.500000, 8212.000000, 8202.500000
1477, 13509544.000000, 718.000000, 8156.000000, 8200.500000, 8192.000000
1478, 13509704.000000, 789.250000, 8155.500000, 8193.000000, 8184.000000
1479, 13509864.000000, 872.000000, 8160.000000, 8194.500000, 8184.500000
1480, 13510024.000000, 942.625000, 8159.500000, 8194.500000, 8186.000000
1481, 13510184.000000, 982.000000, 8161.500000, 8195.000000, 8186.000000
1482, 13510344.000000, 980.750000, 8157.000000, 8193.500000, 8185.500000
1483, 13510504.000000, 952.750000, 8155.000000, 8196.000000, 8185.000000
1484, 13510664.000000, 959.250000, 8157.500000, 8194.000000, 8182.500000
1485, 13510824.000000, 1097.000000, 8155.000000, 8195.000000, 8183.500000
1486, 13510984.000000, 1390.125000, 8158.500000, 8194.500000, 8184.500000
1487, 13511144.000000, 1787.500000, 8158.000000, 8194.500000, 8183.500000
1488, 13511304.000000, 2151.875000, 8158.000000, 8194.000000, 8184.500000
1489, 13511464.000000, 2386.125000, 8166.000000, 8202.500000, 8200.500000
1490, 13511624.000000, 2463.750000, 8166.000000, 8206.000000, 8208.000000
1491, 13511784.000000, 2423.250000, 8190.000000, 8213.000000, 8230.000000
1492, 13511944.000000, 2331.375000, 8173.000000, 8201.500000, 8196.000000
1493, 13512104.000000, 2213.375000, 8159.500000, 8191.500000, 8175.000000
1494, 13512264.000000, 2084.500000, 8158.000000, 8185.500000, 8166.500000
1495, 13512424.000000, 1958.000000, 8163.000000, 8189.000000, 8171.000000
1496, 13512584.000000, 1864.250000, 8165.500000, 8209.500000, 8188.000000
1497, 13512744.000000, 1830.500000, 8479.000000, 8200.500000, 8327.000000
1498, 13512904.000000, 1844.500000, 8145.500000, 8120.500000, 8149.500000
1499, 13513064.000000, 1871.625000, 8143.000000, 8158.000000, 8144.000000
1500, 13513224.000000, 1880.000000, 8160.000000, 8193.500000, 8168.500000
1501, 13513384.000000, 1844.875000, 8164.000000, 8198.500000, 8178.000000
1502, 13513544.000000, 1773.625000, 8172.000000, 8199.000000, 8183.000000
1503, 13513704.000000, 1682.250000, 8175.500000, 8199.500000, 8186.000000
1504, 13513864.000000, 1591.875000, 8187.500000, 8200.500000, 8192.000000
1505, 13514024.000000, 1516.125000, 8197.500000, 8199.500000, 8194.500000
1506, 13514184.000000, 1461.750000, 8213.000000, 8202.000000, 8203.000000
1507, 13514344.000000, 1421.250000, 8234.000000, 8201.500000, 8211.500000
1508, 13514504.000000, 1390.750000, 8252.000000, 8200.500000, 8215.500000
1509, 13514664.000000, 1368.625000, 8260.000000, 8201.000000, 8221.500000
1510, 13514824.000000, 1355.750000, 8257.000000, 8203.500000, 8227.000000
1511, 13514984.000000, 1353.625000, 8225.500000, 8209.000000, 8223.500000
1512, 13515144.000000, 1360.625000, 8188.500000, 8206.500000, 8211.500000
1513, 13515304.000000, 1376.375000, 8162.000000, 8201.500000, 8195.000000
1514, 13515464.000000, 1392.625000, 8153.500000, 8194.000000, 8186.500000
1515, 13515624.000000, 1400.625000, 8154.500000, 8196.000000, 8186.500000
1516, 13515784.000000, 1398.375000, 8153.500000, 8194.500000, 8188.000000
1517, 13515944.000000, 1380.375000, 8160.500000, 8194.500000, 8189.000000
1518, 13516104.000000, 1357.625000, 8160.000000, 8192.500000, 8186.500000
1519, 13516264.000000, 1328.500000, 8161.500000, 8191.500000, 8186.500000
1520, 13516424.000000, 1308.750000, 8158.000000, 8189.500000, 8182.500000
1521, 13516584.000000, 1331.250000, 8157.000000, 8190.000000, 8181.000000
1522, 13516744.000000, 1461.625000, 8156.500000, 8191.000000, 8182.500000
1523, 13516904.000000, 1759.500000, 8158.000000, 8188.000000, 8180.500000
1524, 13517064.000000, 2179.375000, 8159.000000, 8187.000000, 8180.000000
1525, 13517224.000000, 2609.625000, 8162.500000, 8191.500000, 8187.500000
1526, 13517384.000000, 2930.500000, 8167.500000, 8197.500000, 8204.000000
1527, 13517544.000000, 3092.000000, 8173.000000, 8200.000000, 8210.500000
1528, 13517704.000000, 3121.750000, 8188.000000, 8202.500000, 8215.500000
1529, 13517864.000000, 3074.250000, 8169.500000, 8185.000000, 8177.500000
1530, 13518024.000000, 2977.875000, 8162.000000, 8178.500000, 8165.500000
1531, 13518184.000000, 2838.000000, 8161.000000, 8178.500000, 8163.500000
1532, 13518344.000000, 2669.375000, 8163.500000, 8179.500000, 8165.000000
1533, 13518504.000000, 2507.125000, 8205.000000, 8217.000000, 8217.500000
1534, 13518664.000000, 2394.625000, 8424.500000, 8149.500000, 8272.500000
1535, 13518824.000000, 2349.000000, 8122.500000, 8079.000000, 8089.000000
1536, 13518984.000000, 2343.125000, 8150.500000, 8166.000000, 8148.000000
1537, 13519144.000000, 2340.500000, 8155.000000, 8184.500000, 8163.500000
1538, 13519304.000000, 2315.500000, 8166.000000, 8190.000000, 8172.000000
1539, 13519464.000000, 2255.500000, 8172.000000, 8191.500000, 8177.500000
1540, 13519624.000000, 2172.125000, 8181.500000, 8194.000000, 8182.500000
1541, 13519784.000000, 2072.000000, 8189.500000, 8196.000000, 8190.000000
1542, 13519944.000000, 1970.875000, 8204.000000, 8198.500000, 8197.500000
1543, 13520104.000000, 1871.000000, 8218.000000, 8200.000000, 8202.500000
1544, 13520264.000000, 1772.375000, 8245.000000, 8201.000000, 8211.000000
1545, 13520424.000000, 1681.125000, 8258.500000, 8201.000000, 8218.500000
1546, 13520584.000000, 1598.500000, 8263.000000, 8201.500000, 8223.500000
1547, 13520744.000000, 1536.875000, 8251.500000, 8205.000000, 8225.500000
1548, 13520904.000000, 1500.000000, 8215.000000, 8205.500000, 8217.000000
1549, 13521064.000000, 1487.750000, 8178.500000, 8202.500000, 8200.500000
1550, 13521224.000000, 1484.875000, 8160.000000, 8195.500000, 8186.500000
1551, 13521384.000000, 1477.875000, 8155.000000, 8194.500000, 8183.500000
1552, 13521544.000000, 1455.375000, 8156.000000, 8195.500000, 8185.000000
1553, 13521704.000000, 1416.125000, 8159.500000, 8194.000000, 8183.500000
1554, 13521864.000000, 1363.000000, 8162.500000, 8193.500000, 8185.000000
1555, 13522024.000000, 1303.000000, 8163.500000, 8192.500000, 8184.000000
1556, 13522184.000000, 1245.625000, 8162.000000, 8193.500000, 8184.500000
1557, 13522344.000000, 1206.750000, 8162.500000, 8194.500000, 8184.000000
1558, 13522504.000000, 1232.250000, 8160.500000, 8191.500000, 8180.000000
1559, 13522664.000000, 1390.125000, 8160.500000, 8191.500000, 8178.000000
1560, 13522824.000000, 1716.125000, 8160.000000, 8191.000000, 8179.000000
1561, 13522984.000000, 2136.875000, 8164.500000, 8190.500000, 8180.500000
1562, 13523144.000000, 2532.000000, 8167.000000, 8192.500000, 8184.000000
1563, 13523304.000000, 2789.875000, 8175.000000, 8201.000000, 8203.000000
1564, 13523464.000000, 2898.875000, 8177.000000, 8202.500000, 8208.500000
1565, 13523624.000000, 2885.125000, 8195.000000, 8207.000000, 8222.000000
1566, 13523784.000000, 2811.125000, 8177.500000, 8192.500000, 8186.000000
1567, 13523944.000000, 2703.375000, 8168.000000, 8184.500000, 8169.500000
1568, 13524104.000000, 2561.000000, 8170.500000, 8184.000000, 8167.000000
1569, 13524264.000000, 2394.500000, 8169.000000, 8182.000000, 8164.000000
1570, 13524424.000000, 2235.500000, 8179.000000, 8208.500000, 8193.000000
1571, 13524584.000000, 2131.875000, 8499.500000, 8170.000000, 8316.000000
1572, 13524744.000000, 2090.625000, 8156.000000, 8063.500000, 8091.500000
1573, 13524904.000000, 2090.250000, 8155.000000, 8159.500000, 8146.000000
1574, 13525064.000000, 2088.250000, 8163.000000, 8189.000000, 8165.000000
1575, 13525224.000000, 2062.375000, 8169.500000, 8194.000000, 8173.500000
1576, 13525384.000000, 2000.125000, 8175.000000, 8197.500000, 8180.500000
1577, 13525544.000000, 1917.500000, 8185.000000, 8199.500000, 8188.000000
1578, 13525704.000000, 1822.250000, 8194.000000, 8202.000000, 8193.000000
1579, 13525864.000000, 1731.750000, 8203.000000, 8203.500000, 8198.500000
1580, 13526024.000000, 1649.125000, 8220.000000, 8205.500000, 8207.000000
1581, 13526184.000000, 1576.750000, 8239.500000, 8210.000000, 8217.000000
1582, 13526344.000000, 1514.000000, 8259.000000, 8213.500000, 8229.000000
1583, 13526504.000000, 1456.250000, 8268.000000, 8214.500000, 8234.500000
1584, 13526664.000000, 1409.250000, 8258.500000, 8213.000000, 8233.500000
1585, 13526824.000000, 1381.000000, 8228.000000, 8211.000000, 8224.000000
1586, 13526984.000000, 1367.750000, 8191.000000, 8205.000000, 8204.500000
1587, 13527144.000000, 1368.875000, 8170.000000, 8197.000000, 8188.000000
1588, 13527304.000000, 1374.000000, 8164.500000, 8192.500000, 8180.500000
1589, 13527464.000000, 1370.125000, 8165.000000, 8192.000000, 8181.000000
1590, 13527624.000000, 1356.750000, 8165.000000, 8191.000000, 8180.000000
1591, 13527784.000000, 1329.500000, 8167.000000, 8191.500000, 8180.500000
1592, 13527944.000000, 1296.125000, 8169.000000, 8192.000000, 8183.000000
1593, 13528104.000000, 1260.875000, 8168.000000, 8190.000000, 8179.000000
1594, 13528264.000000, 1233.875000, 8165.000000, 8188.000000, 8175.000000
1595, 13528424.000000, 1269.625000, 8164.000000, 8186.000000, 8173.000000
1596, 13528584.000000, 1433.875000, 8165.000000, 8186.000000, 8173.000000
1597, 13528744.000000, 1787.750000, 8165.500000, 8186.000000, 8172.500000
1598, 13528904.000000, 2253.125000, 8167.000000, 8187.000000, 8174.000000
1599, 13529064.000000, 2708.750000, 8168.000000, 8185.500000, 8172.500000
1600, 13529224.000000, 3032.000000, 8172.500000, 8189.000000, 8181.500000
1601, 13529384.000000, 3186.750000, 8180.000000, 8198.500000, 8201.500000
1602, 13529544.000000, 3200.875000, 8179.000000, 8196.000000, 8200.000000
1603, 13529704.000000, 3139.000000, 8197.500000, 8199.000000, 8207.500000
1604, 13529864.000000, 3045.375000, 8178.500000, 8183.000000, 8171.500000
1605, 13530024.000000, 2923.500000, 8168.000000, 8176.000000, 8157.000000
1606, 13530184.000000, 2781.500000, 8170.500000, 8176.500000, 8158.500000
1607, 13530344.000000, 2636.250000, 8173.000000, 8177.000000, 8160.000000
1608, 13530504.000000, 2524.875000, 8215.000000, 8220.500000, 8219.000000
1609, 13530664.000000, 2461.000000, 8455.500000, 8130.000000, 8267.000000
1610, 13530824.000000, 2438.500000, 8150.000000, 8048.500000, 8055.500000
1611, 13530984.000000, 2424.625000, 8162.000000, 8169.000000, 8149.500000
1612, 13531144.000000, 2396.500000, 8166.500000, 8186.000000, 8164.000000
1613, 13531304.000000, 2335.875000, 8173.000000, 8189.500000, 8170.500000
1614, 13531464.000000, 2252.250000, 8181.000000, 8190.000000, 8175.000000
1615, 13531624.000000, 2155.000000, 8187.000000, 8191.500000, 8179.500000
1616, 13531784.000000, 2059.375000, 8197.500000, 8193.500000, 8186.500000
1617, 13531944.000000, 1973.625000, 8210.000000, 8196.000000, 8193.000000
1618, 13532104.000000, 1904.000000, 8227.500000, 8199.500000, 8203.000000
1619, 13532264.000000, 1850.125000, 8246.500000, 8204.000000, 8215.000000
1620, 13532424.000000, 1811.375000, 8266.000000, 8207.000000, 8225.500000
1621, 13532584.000000, 1781.750000, 8270.500000, 8211.000000, 8233.500000
1622, 13532744.000000, 1756.875000, 8258.000000, 8211.000000, 8232.000000
1623, 13532904.000000, 1738.250000, 8221.500000, 8204.500000, 8215.000000
1624, 13533064.000000, 1723.250000, 8187.500000, 8193.500000, 8189.000000
1625, 13533224.000000, 1706.625000, 8170.500000, 8186.000000, 8176.000000
1626, 13533384.000000, 1683.500000, 8166.000000, 8182.500000, 8170.500000
1627, 13533544.000000, 1645.750000, 8169.500000, 8185.000000, 8173.500000
1628, 13533704.000000, 1595.125000, 8172.500000, 8183.000000, 8173.500000
1629, 13533864.000000, 1535.375000, 8174.000000, 8182.000000, 8173.000000
1630, 13534024.000000, 1475.000000, 8174.000000, 8182.000000, 8173.000000
1631, 13534184.000000, 1418.250000, 8174.000000, 8179.000000, 8170.000000
1632, 13534344.000000, 1376.125000, 8172.500000, 8180.000000, 8169.500000
1633, 13534504.000000, 1395.750000, 8172.500000, 8177.500000, 8166.000000
1634, 13534664.000000, 1546.875000, 8172.000000, 8175.000000, 8163.000000
1635, 13534824.000000, 1866.250000, 8171.000000, 8176.000000, 8163.500000
1636, 13534984.000000, 2284.125000, 8171.000000, 8174.500000, 8163.500000
1637, 13535144.000000, 2681.625000, 8176.000000, 8175.500000, 8166.500000
1638, 13535304.000000, 2954.125000, 8178.500000, 8176.500000, 8169.000000
1639, 13535464.000000, 3069.125000, 8185.500000, 8186.000000, 8190.500000
1640, 13535624.000000, 3060.125000, 8185.500000, 8187.000000, 8191.500000
1641, 13535784.000000, 2987.750000, 8205.500000, 8197.500000, 8211.500000
1642, 13535944.000000, 2895.750000, 8188.000000, 8184.500000, 8179.000000
1643, 13536104.000000, 2780.125000, 8175.000000, 8175.500000, 8159.500000
1644, 13536264.000000, 2645.750000, 8174.000000, 8173.000000, 8156.000000
1645, 13536424.000000, 2503.625000, 8175.500000, 8176.500000, 8159.000000
1646, 13536584.000000, 2386.500000, 8175.500000, 8196.500000, 8177.500000
1647, 13536744.000000, 2312.250000, 8504.000000, 8168.500000, 8314.500000
1648, 13536904.000000, 2274.875000, 8187.000000, 8044.500000, 8086.000000
1649, 13537064.000000, 2251.500000, 8162.000000, 8153.500000, 8143.500000
1650, 13537224.000000, 2208.875000, 8166.000000, 8183.500000, 8159.500000
1651, 13537384.000000, 2131.875000, 8169.500000, 8187.500000, 8166.000000
1652, 13537544.000000, 2027.000000, 8178.500000, 8191.000000, 8174.500000
1653, 13537704.000000, 1902.125000, 8185.500000, 8192.000000, 8178.000000
1654, 13537864.000000, 1779.125000, 8195.000000, 8194.000000, 8185.000000
1655, 13538024.000000, 1667.375000, 8207.000000, 8197.500000, 8193.000000
1656, 13538184.000000, 1572.875000, 8219.500000, 8200.000000, 8199.500000
1657, 13538344.000000, 1494.875000, 8239.000000, 8204.000000, 8210.500000
1658, 13538504.000000, 1431.375000, 8259.000000, 8208.000000, 8222.000000
1659, 13538664.000000, 1386.625000, 8267.000000, 8209.500000, 8228.500000
1660, 13538824.000000, 1356.250000, 8261.000000, 8210.500000, 8230.500000
1661, 13538984.000000, 1347.375000, 8229.000000, 8210.000000, 8222.500000
1662, 13539144.000000, 1354.625000, 8193.000000, 8201.000000, 8199.000000
1663, 13539304.000000, 1368.125000, 8172.000000, 8192.500000, 8182.500000
1664, 13539464.000000, 1373.625000, 8164.500000, 8189.500000, 8175.500000
1665, 13539624.000000, 1356.500000, 8163.500000, 8189.000000, 8175.500000
1666, 13539784.000000, 1318.500000, 8168.000000, 8189.000000, 8178.000000
1667, 13539944.000000, 1264.625000, 8169.000000, 8189.000000, 8178.000000
1668, 13540104.000000, 1209.375000, 8169.500000, 8186.500000, 8175.000000
1669, 13540264.000000, 1163.625000, 8168.000000, 8184.000000, 8171.000000
1670, 13540424.000000, 1133.375000, 8166.500000, 8185.000000, 8171.500000
1671, 13540584.000000, 1140.375000, 8166.000000, 8185.000000, 8171.000000
1672, 13540744.000000, 1245.625000, 8166.500000, 8185.500000, 8172.000000
1673, 13540904.000000, 1502.125000, 8167.500000, 8183.000000, 8169.000000
1674, 13541064.000000, 1888.250000, 8168.000000, 8183.500000, 8170.500000
1675, 13541224.000000, 2299.500000, 8169.000000, 8182.500000, 8170.500000
1676, 13541384.000000, 2628.250000, 8172.000000, 8183.000000, 8173.000000
1677, 13541544.000000, 2799.500000, 8173.000000, 8183.000000, 8173.500000
1678, 13541704.000000, 2837.625000, 8181.000000, 8189.000000, 8191.000000
1679, 13541864.000000, 2789.500000, 8182.000000, 8191.000000, 8195.000000
1680, 13542024.000000, 2705.250000, 8197.000000, 8196.000000, 8209.500000
1681, 13542184.000000, 2605.125000, 8194.000000, 8189.500000, 8191.000000
1682, 13542344.000000, 2484.500000, 8172.500000, 8176.500000, 8161.000000
1683, 13542504.000000, 2354.500000, 8171.500000, 8172.500000, 8154.500000
1684, 13542664.000000, 2238.750000, 8171.500000, 8170.000000, 8151.500000
1685, 13542824.000000, 2167.250000, 8160.000000, 8177.500000, 8152.500000
1686, 13542984.000000, 2138.750000, 8384.000000, 8215.500000, 8296.500000
1687, 13543144.000000, 2138.000000, 8263.000000, 8084.000000, 8170.500000
1688, 13543304.000000, 2128.875000, 8151.000000, 8115.500000, 8115.000000
1689, 13543464.000000, 2093.875000, 8163.500000, 8179.500000, 8156.000000
1690, 13543624.000000, 2023.500000, 8168.500000, 8187.000000, 8166.500000
1691, 13543784.000000, 1928.000000, 8174.500000, 8189.500000, 8173.000000
1692, 13543944.000000, 1828.000000, 8182.500000, 8192.000000, 8179.000000
1693, 13544104.000000, 1730.875000, 8192.000000, 8192.500000, 8183.500000
1694, 13544264.000000, 1649.375000, 8202.000000, 8194.000000, 8189.000000
1695, 13544424.000000, 1582.625000, 8215.500000, 8197.000000, 8197.500000
1696, 13544584.000000, 1529.875000, 8234.000000, 8199.500000, 8206.500000
1697, 13544744.000000, 1494.500000, 8252.000000, 8204.500000, 8218.500000
1698, 13544904.000000, 1469.000000, 8262.500000, 8206.000000, 8224.000000
1699, 13545064.000000, 1452.875000, 8262.000000, 8206.500000, 8226.500000
1700, 13545224.000000, 1444.750000, 8241.500000, 8207.500000, 8224.500000
1701, 13545384.000000, 1441.375000, 8205.500000, 8203.500000, 8209.500000
1702, 13545544.000000, 1436.625000, 8176.500000, 8193.500000, 8188.500000
1703, 13545704.000000, 1424.625000, 8167.000000, 8189.500000, 8180.500000
1704, 13545864.000000, 1399.375000, 8162.000000, 8187.500000, 8176.500000
1705, 13546024.000000, 1361.375000, 8164.000000, 8187.500000, 8176.500000
1706, 13546184.000000, 1316.875000, 8167.000000, 8187.000000, 8179.500000
1707, 13546344.000000, 1275.625000, 8167.000000, 8186.000000, 8177.000000
1708, 13546504.000000, 1242.625000, 8167.000000, 8185.000000, 8176.000000
1709, 13546664.000000, 1218.375000, 8164.000000, 8183.500000, 8172.000000
1710, 13546824.000000, 1208.875000, 8164.000000, 8182.500000, 8169.500000
1711, 13546984.000000, 1251.000000, 8165.000000, 8182.500000, 8171.500000
1712, 13547144.000000, 1411.500000, 8162.000000, 8182.500000, 8169.500000
1713, 13547304.000000, 1714.625000, 8165.500000, 8181.500000, 8169.000000
1714, 13547464.000000, 2109.000000, 8166.000000, 8182.000000, 8169.000000
1715, 13547624.000000, 2477.250000, 8167.000000, 8182.500000, 8169.500000
1716, 13547784.000000, 2730.375000, 8171.000000, 8188.000000, 8180.500000
1717, 13547944.000000, 2831.500000, 8177.000000, 8195.500000, 8198.500000
1718, 13548104.000000, 2822.000000, 8177.000000, 8196.000000, 8198.000000
1719, 13548264.000000, 2748.500000, 8197.500000, 8199.500000, 8208.000000
1720, 13548424.000000, 2642.000000, 8174.500000, 8184.500000, 8174.000000
1721, 13548584.000000, 2513.000000, 8164.000000, 8180.000000, 8163.000000
1722, 13548744.000000, 2369.000000, 8163.000000, 8180.000000, 8161.000000
1723, 13548904.000000, 2240.875000, 8165.500000, 8179.500000, 8163.000000
1724, 13549064.000000, 2139.625000, 8192.500000, 8211.500000, 8203.000000
1725, 13549224.000000, 2107.250000, 8466.000000, 8154.500000, 8295.500000
1726, 13549384.000000, 2106.125000, 8145.500000, 8074.000000, 8095.000000
1727, 13549544.000000, 2097.000000, 8151.500000, 8173.500000, 8156.000000
1728, 13549704.000000, 2052.875000, 8156.500000, 8190.000000, 8167.500000
1729, 13549864.000000, 1980.375000, 8162.000000, 8195.000000, 8174.000000
1730, 13550024.000000, 1871.250000, 8170.500000, 8198.000000, 8181.000000
1731, 13550184.000000, 1741.125000, 8177.500000, 8200.000000, 8187.500000
1732, 13550344.000000, 1644.125000, 8190.000000, 8205.000000, 8197.000000
1733, 13550504.000000, 1571.125000, 8201.000000, 8204.500000, 8200.000000
1734, 13550664.000000, 1512.625000, 8215.000000, 8207.000000, 8207.500000
1735, 13550824.000000, 1466.375000, 8233.500000, 8208.500000, 8214.500000
1736, 13550984.000000, 1427.500000, 8250.500000, 8215.000000, 8229.000000
1737, 13551144.000000, 1401.375000, 8258.500000, 8216.000000, 8233.500000
1738, 13551304.000000, 1383.500000, 8248.500000, 8217.000000, 8234.500000
1739, 13551464.000000, 1375.750000, 8216.500000, 8216.000000, 8226.000000
1740, 13551624.000000, 1370.375000, 8180.000000, 8210.500000, 8208.000000
1741, 13551784.000000, 1355.625000, 8159.000000, 8205.000000, 8194.000000
1742, 13551944.000000, 1329.250000, 8157.000000, 8202.000000, 8190.000000
1743, 13552104.000000, 1293.625000, 8157.500000, 8201.500000, 8190.000000
1744, 13552264.000000, 1251.750000, 8160.000000, 8200.500000, 8190.500000
1745, 13552424.000000, 1206.750000, 8161.000000, 8198.000000, 8189.000000
1746, 13552584.000000, 1165.000000, 8165.000000, 8198.500000, 8188.000000
1747, 13552744.000000, 1134.000000, 8159.500000, 8198.500000, 8189.000000
1748, 13552904.000000, 1138.250000, 8160.000000, 8197.000000, 8185.000000
1749, 13553064.000000, 1244.375000, 8156.500000, 8197.000000, 8184.500000
1750, 13553224.000000, 1484.375000, 8157.000000, 8197.500000, 8184.500000
1751, 13553384.000000, 1838.000000, 8160.000000, 8198.000000, 8186.000000
1752, 13553544.000000, 2204.125000, 8158.000000, 8198.000000, 8186.500000
1753, 13553704.000000, 2477.250000, 8159.000000, 8198.000000, 8187.000000
1754, 13553864.000000, 2609.250000, 8158.500000, 8197.500000, 8186.500000
1755, 13554024.000000, 2615.250000, 8167.000000, 8206.000000, 8206.000000
1756, 13554184.000000, 2553.250000, 8167.500000, 8208.000000, 8208.500000
1757, 13554344.000000, 2448.250000, 8189.000000, 8215.000000, 8232.000000
1758, 13554504.000000, 2313.250000, 8175.000000, 8203.500000, 8199.500000
1759, 13554664.000000, 2156.625000, 8159.500000, 8193.500000, 8178.000000
1760, 13554824.000000, 2017.375000, 8159.000000, 8178.000000, 8163.000000
1761, 13554984.000000, 1926.375000, 8159.000000, 8179.500000, 8164.500000
1762, 13555144.000000, 1895.375000, 8157.000000, 8196.000000, 8179.000000
1763, 13555304.000000, 1914.500000, 8458.000000, 8197.500000, 8322.000000
1764, 13555464.000000, 1941.625000, 8148.500000, 8124.500000, 8165.500000
1765, 13555624.000000, 1945.750000, 8136.500000, 8142.500000, 8136.500000
1766, 13555784.000000, 1916.250000, 8155.000000, 8185.000000, 8166.000000
1767, 13555944.000000, 1852.250000, 8160.500000, 8191.000000, 8173.500000
1768, 13556104.000000, 1768.625000, 8166.500000, 8196.000000, 8181.500000
1769, 13556264.000000, 1681.750000, 8173.500000, 8199.000000, 8186.000000
1770, 13556424.000000, 1598.000000, 8183.000000, 8199.000000, 8194.500000
1771, 13556584.000000, 1520.250000, 8191.500000, 8202.000000, 8201.000000
1772, 13556744.000000, 1451.875000, 8206.000000, 8202.500000, 8206.500000
1773, 13556904.000000, 1392.250000, 8231.000000, 8204.500000, 8213.500000
1774, 13557064.000000, 1348.125000, 8246.000000, 8203.500000, 8220.500000
1775, 13557224.000000, 1314.125000, 8254.500000, 8203.500000, 8226.000000
1776, 13557384.000000, 1295.375000, 8251.000000, 8207.500000, 8231.000000
1777, 13557544.000000, 1286.750000, 8227.000000, 8210.500000, 8229.000000
1778, 13557704.000000, 1285.000000, 8184.000000, 8212.500000, 8217.000000
1779, 13557864.000000, 1282.125000, 8159.000000, 8205.000000, 8201.500000
1780, 13558024.000000, 1274.125000, 8150.000000, 8200.500000, 8193.500000
1781, 13558184.000000, 1254.375000, 8147.000000, 8199.000000, 8192.000000
1782, 13558344.000000, 1227.375000, 8157.500000, 8198.000000, 8193.500000
1783, 13558504.000000, 1192.625000, 8153.500000, 8196.500000, 8191.000000
1784, 13558664.000000, 1154.000000, 8157.500000, 8193.000000, 8187.500000
1785, 13558824.000000, 1117.500000, 8154.000000, 8192.000000, 8186.000000
1786, 13558984.000000, 1101.875000, 8154.500000, 8192.000000, 8184.500000
1787, 13559144.000000, 1156.625000, 8154.000000, 8191.000000, 8184.000000
1788, 13559304.000000, 1332.375000, 8152.000000, 8189.000000, 8181.500000
1789, 13559464.000000, 1664.375000, 8153.000000, 8187.500000, 8178.500000
1790, 13559624.000000, 2063.375000, 8155.000000, 8183.500000, 8176.000000
1791, 13559784.000000, 2419.875000, 8160.500000, 8183.500000, 8178.000000
1792, 13559944.000000, 2639.375000, 8161.500000, 8193.500000, 8197.000000
1793, 13560104.000000, 2717.625000, 8167.000000, 8196.000000, 8204.500000
1794, 13560264.000000, 2696.750000, 8180.000000, 8202.000000, 8224.000000
1795, 13560424.000000, 2611.125000, 8175.500000, 8188.000000, 8190.000000
1796, 13560584.000000, 2484.375000, 8157.500000, 8177.000000, 8163.500000
1797, 13560744.000000, 2324.125000, 8157.000000, 8172.500000, 8161.500000
1798, 13560904.000000, 2166.375000, 8157.500000, 8174.000000, 8161.500000
1799, 13561064.000000, 2054.375000, 8156.000000, 8188.000000, 8169.000000
1800, 13561224.000000, 2010.625000, 8435.500000, 8198.000000, 8316.500000
1801, 13561384.000000, 2016.000000, 8140.000000, 8114.500000, 8155.000000
1802, 13561544.000000, 2038.625000, 8127.500000, 8119.000000, 8113.500000
1803, 13561704.000000, 2041.500000, 8155.000000, 8168.500000, 8153.500000
1804, 13561864.000000, 2015.500000, 8160.500000, 8171.000000, 8157.000000
1805, 13562024.000000, 1958.125000, 8170.500000, 8172.000000, 8164.000000
1806, 13562184.000000, 1879.875000, 8173.500000, 8174.000000, 8168.000000
1807, 13562344.000000, 1797.375000, 8184.000000, 8176.000000, 8173.000000
1808, 13562504.000000, 1717.125000, 8192.500000, 8178.000000, 8179.500000
1809, 13562664.000000, 1639.625000, 8213.000000, 8180.000000, 8185.000000
1810, 13562824.000000, 1563.375000, 8227.000000, 8180.500000, 8191.000000
1811, 13562984.000000, 1493.750000, 8244.500000, 8182.000000, 8200.000000
1812, 13563144.000000, 1441.125000, 8265.500000, 8187.500000, 8211.500000
1813, 13563304.000000, 1413.250000, 8259.500000, 8185.500000, 8212.500000
1814, 13563464.000000, 1407.250000, 8226.500000, 8191.000000, 8210.000000
1815, 13563624.000000, 1413.875000, 8192.500000, 8192.000000, 8198.500000
1816, 13563784.000000, 1422.125000, 8162.000000, 8186.500000, 8184.000000
1817, 13563944.000000, 1423.375000, 8157.500000, 8183.000000, 8176.500000
1818, 13564104.000000, 1414.875000, 8153.000000, 8182.500000, 8174.000000
1819, 13564264.000000, 1389.500000, 8156.500000, 8182.000000, 8175.500000
1820, 13564424.000000, 1352.750000, 8154.500000, 8182.500000, 8177.000000
1821, 13564584.000000, 1310.000000, 8158.500000, 8184.000000, 8178.000000
1822, 13564744.000000, 1271.500000, 8158.500000, 8180.500000, 8173.500000
1823, 13564904.000000, 1251.125000, 8159.500000, 8175.000000, 8169.500000
1824, 13565064.000000, 1283.750000, 8160.000000, 8174.500000, 8167.500000
1825, 13565224.000000, 1437.500000, 8156.500000, 8175.000000, 8166.500000
1826, 13565384.000000, 1746.500000, 8160.000000, 8176.500000, 8168.500000
1827, 13565544.000000, 2153.375000, 8156.500000, 8174.500000, 8167.000000
1828, 13565704.000000, 2536.250000, 8164.000000, 8182.000000, 8179.000000
1829, 13565864.000000, 2791.750000, 8170.500000, 8186.000000, 8191.500000
1830, 13566024.000000, 2902.250000, 8171.000000, 8189.000000, 8200.000000
1831, 13566184.000000, 2898.000000, 8189.000000, 8190.000000, 8200.000000
1832, 13566344.000000, 2826.000000, 8167.000000, 8175.000000, 8167.500000
1833, 13566504.000000, 2709.625000, 8165.000000, 8169.000000, 8154.500000
1834, 13566664.000000, 2556.625000, 8164.500000, 8169.000000, 8155.000000
1835, 13566824.000000, 2390.375000, 8162.000000, 8171.000000, 8158.000000
1836, 13566984.000000, 2250.125000, 8227.000000, 8216.000000, 8227.500000
1837, 13567144.000000, 2177.375000, 8383.500000, 8149.000000, 8261.500000
1838, 13567304.000000, 2170.875000, 8123.500000, 8066.500000, 8070.500000
1839, 13567464.000000, 2194.250000, 8152.500000, 8162.000000, 8143.000000
1840, 13567624.000000, 2207.750000, 8162.000000, 8180.500000, 8161.500000
1841, 13567784.000000, 2190.250000, 8170.000000, 8183.000000, 8168.000000
1842, 13567944.000000, 2139.625000, 8177.000000, 8187.000000, 8176.500000
1843, 13568104.000000, 2064.375000, 8186.500000, 8189.500000, 8183.000000
1844, 13568264.000000, 1979.625000, 8195.500000, 8191.500000, 8188.000000
1845, 13568424.000000, 1892.125000, 8205.000000, 8193.500000, 8195.500000
1846, 13568584.000000, 1805.625000, 8221.500000, 8196.000000, 8202.000000
1847, 13568744.000000, 1721.375000, 8247.000000, 8198.000000, 8211.500000
1848, 13568904.000000, 1643.625000, 8267.500000, 8200.000000, 8219.500000
1849, 13569064.000000, 1581.875000, 8269.000000, 8199.000000, 8225.000000
1850, 13569224.000000, 1542.000000, 8252.500000, 8201.000000, 8223.000000
1851, 13569384.000000, 1528.750000, 8211.000000, 8201.500000, 8213.000000
1852, 13569544.000000, 1531.125000, 8181.000000, 8198.000000, 8199.500000
1853, 13569704.000000, 1532.000000, 8166.000000, 8189.500000, 8182.500000
1854, 13569864.000000, 1526.125000, 8159.000000, 8186.500000, 8177.500000
1855, 13570024.000000, 1504.125000, 8161.000000, 8189.500000, 8180.500000
1856, 13570184.000000, 1466.750000, 8168.500000, 8190.000000, 8183.500000
1857, 13570344.000000, 1420.125000, 8165.500000, 8188.500000, 8182.000000
1858, 13570504.000000, 1374.750000, 8169.000000, 8186.500000, 8180.500000
1859, 13570664.000000, 1336.500000, 8166.000000, 8186.000000, 8178.000000
1860, 13570824.000000, 1332.000000, 8167.000000, 8184.500000, 8174.500000
1861, 13570984.000000, 1435.375000, 8165.500000, 8184.000000, 8175.500000
1862, 13571144.000000, 1697.750000, 8166.000000, 8182.000000, 8173.000000
1863, 13571304.000000, 2106.875000, 8168.000000, 8183.000000, 8172.000000
1864, 13571464.000000, 2548.000000, 8168.500000, 8186.000000, 8179.500000
1865, 13571624.000000, 2894.125000, 8176.500000, 8191.000000, 8195.500000
1866, 13571784.000000, 3086.750000, 8181.000000, 8197.500000, 8205.500000
1867, 13571944.000000, 3134.375000, 8198.000000, 8200.000000, 8218.000000
1868, 13572104.000000, 3098.125000, 8179.000000, 8183.500000, 8177.000000
1869, 13572264.000000, 3010.375000, 8170.000000, 8175.500000, 8160.500000
1870, 13572424.000000, 2879.000000, 8166.000000, 8176.000000, 8158.000000
1871, 13572584.000000, 2710.000000, 8170.500000, 8176.000000, 8161.000000
1872, 13572744.000000, 2535.500000, 8187.500000, 8205.500000, 8195.000000
1873, 13572904.000000, 2408.625000, 8487.500000, 8160.500000, 8302.500000
1874, 13573064.000000, 2348.125000, 8138.500000, 8067.500000, 8088.000000
1875, 13573224.000000, 2343.500000, 8153.000000, 8161.500000, 8147.000000
1876, 13573384.000000, 2352.875000, 8164.000000, 8189.500000, 8166.500000
1877, 13573544.000000, 2337.500000, 8172.000000, 8193.500000, 8176.500000
1878, 13573704.000000, 2283.125000, 8179.500000, 8196.500000, 8181.500000
1879, 13573864.000000, 2198.875000, 8187.000000, 8200.000000, 8189.000000
1880, 13574024.000000, 2100.000000, 8195.000000, 8200.500000, 8193.500000
1881, 13574184.000000, 2002.250000, 8207.500000, 8202.000000, 8200.500000
1882, 13574344.000000, 1913.750000, 8226.000000, 8206.500000, 8212.000000
1883, 13574504.000000, 1827.750000, 8243.000000, 8206.500000, 8216.500000
1884, 13574664.000000, 1743.000000, 8265.000000, 8208.000000, 8227.500000
1885, 13574824.000000, 1666.875000, 8269.500000, 8210.500000, 8233.000000
1886, 13574984.000000, 1606.000000, 8265.000000, 8209.500000, 8235.000000
1887, 13575144.000000, 1577.250000, 8226.500000, 8211.500000, 8226.500000
1888, 13575304.000000, 1573.000000, 8188.500000, 8205.000000, 8206.000000
1889, 13575464.000000, 1573.000000, 8170.000000, 8196.500000, 8189.000000
1890, 13575624.000000, 1570.375000, 8162.000000, 8194.000000, 8183.500000
1891, 13575784.000000, 1549.500000, 8165.000000, 8196.000000, 8187.000000
1892, 13575944.000000, 1511.375000, 8169.000000, 8196.000000, 8189.000000
1893, 13576104.000000, 1458.875000, 8170.500000, 8194.500000, 8187.500000
1894, 13576264.000000, 1405.250000, 8171.500000, 8193.000000, 8186.500000
1895, 13576424.000000, 1352.125000, 8171.000000, 8192.500000, 8185.500000
1896, 13576584.000000, 1330.125000, 8172.500000, 8193.000000, 8183.500000
1897, 13576744.000000, 1401.625000, 8173.000000, 8191.000000, 8183.500000
1898, 13576904.000000, 1631.000000, 8171.000000, 8190.500000, 8181.500000
1899, 13577064.000000, 2026.125000, 8172.000000, 8190.500000, 8181.500000
1900, 13577224.000000, 2485.250000, 8173.000000, 8190.500000, 8181.500000
1901, 13577384.000000, 2867.875000, 8178.500000, 8197.000000, 8193.000000
1902, 13577544.000000, 3096.875000, 8184.500000, 8204.500000, 8207.500000
1903, 13577704.000000, 3171.000000, 8181.000000, 8205.000000, 8212.500000
1904, 13577864.000000, 3141.750000, 8199.500000, 8208.500000, 8220.500000
1905, 13578024.000000, 3064.250000, 8182.500000, 8198.500000, 8189.500000
1906, 13578184.000000, 2954.250000, 8173.000000, 8192.500000, 8175.500000
1907, 13578344.000000, 2802.500000, 8174.000000, 8191.000000, 8174.000000
1908, 13578504.000000, 2624.375000, 8176.000000, 8192.500000, 8175.500000
1909, 13578664.000000, 2463.375000, 8208.000000, 8226.500000, 8222.500000
1910, 13578824.000000, 2359.125000, 8467.500000, 8162.000000, 8300.000000
1911, 13578984.000000, 2321.625000, 8142.500000, 8071.500000, 8083.500000
1912, 13579144.000000, 2316.875000, 8162.500000, 8179.500000, 8161.500000
1913, 13579304.000000, 2305.375000, 8167.500000, 8198.000000, 8176.000000
1914, 13579464.000000, 2264.625000, 8174.000000, 8200.000000, 8183.000000
1915, 13579624.000000, 2186.500000, 8181.500000, 8204.500000, 8189.000000
1916, 13579784.000000, 2086.625000, 8187.000000, 8205.500000, 8193.500000
1917, 13579944.000000, 1981.375000, 8201.500000, 8207.000000, 8200.500000
1918, 13580104.000000, 1881.125000, 8208.000000, 8210.000000, 8204.000000
1919, 13580264.000000, 1788.125000, 8224.500000, 8212.500000, 8213.500000
1920, 13580424.000000, 1704.000000, 8248.500000, 8215.000000, 8226.500000
1921, 13580584.000000, 1624.625000, 8265.000000, 8217.500000, 8235.000000
1922, 13580744.000000, 1557.250000, 8272.500000, 8218.500000, 8241.000000
1923, 13580904.000000, 1510.625000, 8261.500000, 8218.000000, 8241.000000
1924, 13581064.000000, 1486.625000, 8222.000000, 8216.000000, 8227.000000
1925, 13581224.000000, 1483.625000, 8188.000000, 8210.500000, 8209.000000
1926, 13581384.000000, 1482.875000, 8172.000000, 8204.000000, 8195.000000
1927, 13581544.000000, 1476.875000, 8167.500000, 8201.500000, 8190.500000
1928, 13581704.000000, 1450.125000, 8166.500000, 8202.000000, 8190.500000
1929, 13581864.000000, 1406.875000, 8170.500000, 8201.500000, 8191.500000
1930, 13582024.000000, 1353.375000, 8172.000000, 8200.000000, 8192.000000
1931, 13582184.000000, 1303.125000, 8175.000000, 8199.000000, 8191.000000
1932, 13582344.000000, 1261.875000, 8173.500000, 8198.000000, 8188.000000
1933, 13582504.000000, 1256.625000, 8171.000000, 8197.000000, 8186.000000
1934, 13582664.000000, 1347.875000, 8170.500000, 8198.000000, 8186.000000
1935, 13582824.000000, 1607.000000, 8173.000000, 8196.500000, 8185.500000
1936, 13582984.000000, 2032.000000, 8173.000000, 8196.000000, 8185.000000
1937, 13583144.000000, 2506.125000, 8175.000000, 8196.500000, 8187.500000
1938, 13583304.000000, 2899.500000, 8174.500000, 8195.500000, 8185.000000
1939, 13583464.000000, 3117.750000, 8178.000000, 8200.000000, 8196.000000
1940, 13583624.000000, 3177.750000, 8186.000000, 8205.500000, 8210.500000
1941, 13583784.000000, 3130.500000, 8185.500000, 8206.500000, 8213.000000
1942, 13583944.000000, 3041.625000, 8203.000000, 8209.000000, 8216.500000
1943, 13584104.000000, 2924.500000, 8182.500000, 8194.000000, 8183.000000
1944, 13584264.000000, 2772.625000, 8174.000000, 8188.000000, 8171.000000
1945, 13584424.000000, 2599.875000, 8174.500000, 8187.500000, 8171.000000
1946, 13584584.000000, 2442.875000, 8176.500000, 8188.000000, 8172.000000
1947, 13584744.000000, 2342.875000, 8225.000000, 8228.500000, 8230.500000
1948, 13584904.000000, 2299.250000, 8445.000000, 8149.000000, 8281.500000
1949, 13585064.000000, 2291.375000, 8143.000000, 8066.500000, 8072.500000
1950, 13585224.000000, 2278.375000, 8165.500000, 8178.500000, 8162.000000
1951, 13585384.000000, 2233.375000, 8168.000000, 8196.500000, 8175.500000
1952, 13585544.000000, 2151.000000, 8177.000000, 8200.000000, 8183.000000
1953, 13585704.000000, 2043.250000, 8184.000000, 8200.000000, 8186.000000
1954, 13585864.000000, 1929.500000, 8188.500000, 8201.000000, 8189.000000
1955, 13586024.000000, 1824.625000, 8198.500000, 8205.000000, 8198.500000
1956, 13586184.000000, 1734.875000, 8209.000000, 8207.500000, 8204.000000
1957, 13586344.000000, 1655.250000, 8225.500000, 8210.000000, 8213.000000
1958, 13586504.000000, 1584.875000, 8246.000000, 8211.500000, 8221.500000
1959, 13586664.000000, 1527.875000, 8266.500000, 8212.500000, 8231.000000
1960, 13586824.000000, 1483.250000, 8268.500000, 8214.000000, 8236.000000
1961, 13586984.000000, 1455.000000, 8256.500000, 8216.000000, 8238.000000
1962, 13587144.000000, 1445.875000, 8219.000000, 8212.500000, 8222.500000
1963, 13587304.000000, 1446.000000, 8185.500000, 8202.000000, 8198.000000
1964, 13587464.000000, 1443.375000, 8169.500000, 8196.000000, 8185.500000
1965, 13587624.000000, 1428.000000, 8165.500000, 8194.500000, 8182.000000
1966, 13587784.000000, 1398.000000, 8164.500000, 8194.500000, 8182.500000
1967, 13587944.000000, 1355.125000, 8168.500000, 8193.500000, 8183.000000
1968, 13588104.000000, 1305.500000, 8170.000000, 8191.500000, 8182.000000
1969, 13588264.000000, 1256.125000, 8170.000000, 8190.000000, 8179.000000
1970, 13588424.000000, 1213.500000, 8172.000000, 8189.000000, 8179.000000
1971, 13588584.000000, 1207.250000, 8171.000000, 8189.000000, 8178.500000
1972, 13588744.000000, 1295.375000, 8171.500000, 8188.000000, 8177.500000
1973, 13588904.000000, 1564.625000, 8169.500000, 8187.000000, 8175.500000
1974, 13589064.000000, 1989.625000, 8172.000000, 8187.000000, 8177.000000
1975, 13589224.000000, 2474.250000, 8172.500000, 8186.500000, 8175.000000
1976, 13589384.000000, 2864.750000, 8175.000000, 8187.000000, 8178.000000
1977, 13589544.000000, 3087.750000, 8174.500000, 8187.000000, 8178.500000
1978, 13589704.000000, 3142.625000, 8182.000000, 8194.500000, 8196.500000
1979, 13589864.000000, 3089.000000, 8186.500000, 8198.500000, 8204.000000
1980, 13590024.000000, 2993.625000, 8201.500000, 8206.000000, 8222.000000
1981, 13590184.000000, 2881.625000, 8192.500000, 8193.000000, 8190.500000
1982, 13590344.000000, 2745.125000, 8178.000000, 8183.000000, 8169.000000
1983, 13590504.000000, 2585.000000, 8174.000000, 8179.000000, 8162.000000
1984, 13590664.000000, 2436.625000, 8176.000000, 8180.500000, 8163.500000
1985, 13590824.000000, 2329.625000, 8168.000000, 8192.000000, 8167.500000
1986, 13590984.000000, 2279.000000, 8454.000000, 8211.500000, 8329.000000
1987, 13591144.000000, 2266.750000, 8213.000000, 8062.000000, 8121.000000
1988, 13591304.000000, 2258.750000, 8156.000000, 8139.000000, 8134.500000
1989, 13591464.000000, 2221.500000, 8167.500000, 8187.500000, 8164.500000
1990, 13591624.000000, 2150.375000, 8172.000000, 8193.500000, 8173.500000
1991, 13591784.000000, 2049.500000, 8179.500000, 8198.000000, 8182.000000
1992, 13591944.000000, 1936.250000, 8188.500000, 8200.000000, 8188.000000
1993, 13592104.000000, 1828.000000, 8192.000000, 8202.000000, 8191.500000
1994, 13592264.000000, 1732.750000, 8204.000000, 8203.500000, 8198.500000
1995, 13592424.000000, 1652.875000, 8216.500000, 8206.500000, 8206.000000
1996, 13592584.000000, 1589.250000, 8234.000000, 8209.500000, 8215.500000
1997, 13592744.000000, 1536.125000, 8257.000000, 8214.000000, 8228.500000
1998, 13592904.000000, 1495.125000, 8268.000000, 8215.000000, 8235.000000
1999, 13593064.000000, 1459.875000, 8265.500000, 8217.500000, 8239.500000
2000, 13593224.000000, 1434.250000, 8236.000000, 8216.000000, 8231.500000
2001, 13593384.000000, 1423.125000, 8197.500000, 8206.500000, 8207.500000
2002, 13593544.000000, 1413.375000, 8174.500000, 8196.500000, 8188.000000
2003, 13593704.000000, 1400.250000, 8165.000000, 8193.000000, 8180.000000
2004, 13593864.000000, 1377.375000, 8164.500000, 8191.000000, 8178.000000
2005, 13594024.000000, 1341.000000, 8165.500000, 8191.000000, 8178.500000
2006, 13594184.000000, 1296.875000, 8168.500000, 8192.000000, 8181.500000
2007, 13594344.000000, 1255.625000, 8169.500000, 8190.000000, 8178.500000
2008, 13594504.000000, 1221.500000, 8171.000000, 8189.000000, 8180.000000
2009, 13594664.000000, 1195.625000, 8170.000000, 8187.000000, 8176.000000
2010, 13594824.000000, 1208.875000, 8170.000000, 8186.000000, 8175.000000
2011, 13594984.000000, 1346.500000, 8169.500000, 8185.000000, 8173.500000
2012, 13595144.000000, 1648.750000, 8170.000000, 8185.000000, 8172.000000
2013, 13595304.000000, 2094.125000, 8171.000000, 8183.500000, 8172.500000
2014, 13595464.000000, 2545.375000, 8172.000000, 8183.000000, 8173.000000
2015, 13595624.000000, 2883.875000, 8173.000000, 8183.000000, 8173.500000
2016, 13595784.000000, 3044.000000, 8181.000000, 8191.000000, 8191.500000
2017, 13595944.000000, 3054.750000, 8186.000000, 8196.000000, 8203.000000
2018, 13596104.000000, 2980.125000, 8187.500000, 8193.500000, 8201.500000
2019, 13596264.000000, 2875.500000, 8198.500000, 8194.500000, 8200.000000
2020, 13596424.000000, 2756.250000, 8177.000000, 8180.500000, 8168.000000
2021, 13596584.000000, 2614.500000, 8173.000000, 8177.500000, 8162.000000
2022, 13596744.000000, 2463.000000, 8173.000000, 8177.000000, 8160.000000
2023, 13596904.000000, 2336.125000, 8174.500000, 8176.500000, 8160.500000
2024, 13597064.000000, 2258.750000, 8267.000000, 8226.000000, 8247.000000
2025, 13597224.000000, 2230.500000, 8396.500000, 8118.500000, 8247.000000
2026, 13597384.000000, 2226.625000, 8148.000000, 8074.500000, 8078.000000
2027, 13597544.000000, 2209.125000, 8163.500000, 8176.000000, 8155.500000
2028, 13597704.000000, 2164.375000, 8169.000000, 8186.000000, 8166.000000
2029, 13597864.000000, 2081.250000, 8176.500000, 8188.000000, 8172.000000
2030, 13598024.000000, 1975.375000, 8182.500000, 8190.500000, 8178.500000
2031, 13598184.000000, 1861.250000, 8192.000000, 8192.000000, 8185.000000
2032, 13598344.000000, 1751.750000, 8200.000000, 8193.000000, 8187.500000
2033, 13598504.000000, 1651.875000, 8212.500000, 8195.000000, 8194.500000
2034, 13598664.000000, 1567.250000, 8228.000000, 8199.000000, 8204.000000
2035, 13598824.000000, 1497.375000, 8250.000000, 8203.000000, 8216.500000
2036, 13598984.000000, 1443.750000, 8265.000000, 8204.500000, 8224.000000
2037, 13599144.000000, 1405.500000, 8268.000000, 8208.000000, 8230.000000
2038, 13599304.000000, 1382.250000, 8251.000000, 8207.000000, 8227.500000
2039, 13599464.000000, 1367.250000, 8213.000000, 8201.000000, 8210.000000
2040, 13599624.000000, 1354.375000, 8182.000000, 8191.500000, 8188.000000
2041, 13599784.000000, 1338.000000, 8166.500000, 8187.000000, 8176.500000
2042, 13599944.000000, 1313.375000, 8166.000000, 8185.500000, 8175.500000
2043, 13600104.000000, 1275.375000, 8166.000000, 8188.000000, 8178.000000
2044, 13600264.000000, 1230.625000, 8170.500000, 8187.000000, 8179.000000
2045, 13600424.000000, 1184.375000, 8171.000000, 8186.000000, 8179.000000
2046, 13600584.000000, 1144.250000, 8172.000000, 8185.500000, 8177.500000
2047, 13600744.000000, 1112.750000, 8172.000000, 8185.500000, 8177.500000
2048, 13600904.000000, 1101.750000, 8171.500000, 8183.500000, 8175.000000
2049, 13601064.000000, 1153.250000, 8171.500000, 8182.000000, 8172.500000
2050, 13601224.000000, 1331.375000, 8172.500000, 8181.500000, 8172.000000
2051, 13601384.000000, 1674.625000, 8174.000000, 8183.500000, 8175.000000
2052, 13601544.000000, 2102.000000, 8173.000000, 8183.500000, 8174.500000
2053, 13601704.000000, 2491.875000, 8173.000000, 8181.500000, 8172.500000
2054, 13601864.000000, 2745.125000, 8176.000000, 8185.000000, 8178.500000
2055, 13602024.000000, 2840.125000, 8185.500000, 8192.000000, 8199.500000
2056, 13602184.000000, 2812.125000, 8184.000000, 8192.000000, 8198.000000
2057, 13602344.000000, 2721.125000, 8203.500000, 8197.500000, 8210.000000
2058, 13602504.000000, 2600.375000, 8186.500000, 8181.500000, 8175.500000
2059, 13602664.000000, 2461.125000, 8173.500000, 8173.000000, 8158.000000
2060, 13602824.000000, 2312.875000, 8173.000000, 8170.000000, 8154.500000
2061, 13602984.000000, 2180.000000, 8176.500000, 8172.000000, 8158.000000
2062, 13603144.000000, 2088.250000, 8193.000000, 8201.500000, 8191.500000
2063, 13603304.000000, 2049.000000, 8508.000000, 8144.000000, 8299.500000
2064, 13603464.000000, 2046.500000, 8172.000000, 8047.500000, 8081.500000
2065, 13603624.000000, 2053.000000, 8163.500000, 8158.000000, 8146.500000
2066, 13603784.000000, 2040.125000, 8168.000000, 8179.000000, 8160.500000
2067, 13603944.000000, 1988.500000, 8171.500000, 8181.500000, 8165.000000
2068, 13604104.000000, 1905.125000, 8178.000000, 8183.000000, 8170.000000
2069, 13604264.000000, 1805.375000, 8185.500000, 8184.500000, 8174.500000
2070, 13604424.000000, 1701.125000, 8196.000000, 8186.000000, 8181.000000
2071, 13604584.000000, 1609.125000, 8206.000000, 8188.500000, 8187.000000
2072, 13604744.000000, 1529.500000, 8222.500000, 8191.000000, 8195.500000
2073, 13604904.000000, 1464.000000, 8240.000000, 8193.000000, 8203.000000
2074, 13605064.000000, 1410.750000, 8258.500000, 8194.500000, 8212.000000
2075, 13605224.000000, 1370.875000, 8263.500000, 8199.500000, 8220.000000
2076, 13605384.000000, 1345.125000, 8256.000000, 8201.000000, 8222.500000
2077, 13605544.000000, 1333.125000, 8219.000000, 8199.000000, 8210.000000
2078, 13605704.000000, 1331.000000, 8185.500000, 8190.500000, 8188.500000
2079, 13605864.000000, 1330.375000, 8163.500000, 8184.500000, 8174.000000
2080, 13606024.000000, 1319.250000, 8160.500000, 8183.000000, 8171.500000
2081, 13606184.000000, 1297.500000, 8162.500000, 8185.000000, 8173.500000
2082, 13606344.000000, 1261.875000, 8163.500000, 8184.000000, 8174.500000
2083, 13606504.000000, 1219.375000, 8165.500000, 8184.500000, 8174.000000
2084, 13606664.000000, 1181.500000, 8164.000000, 8185.000000, 8173.000000
2085, 13606824.000000, 1156.000000, 8163.000000, 8185.000000, 8173.000000
2086, 13606984.000000, 1140.875000, 8162.000000, 8186.000000, 8173.000000
2087, 13607144.000000, 1153.375000, 8158.500000, 8186.000000, 8172.000000
2088, 13607304.000000, 1252.750000, 8159.500000, 8186.000000, 8171.500000
2089, 13607464.000000, 1488.500000, 8158.500000, 8186.000000, 8170.000000
2090, 13607624.000000, 1853.500000, 8158.500000, 8188.000000, 8172.000000
2091, 13607784.000000, 2252.000000, 8159.000000, 8189.000000, 8174.000000
2092, 13607944.000000, 2574.125000, 8161.000000, 8191.000000, 8178.500000
2093, 13608104.000000, 2742.875000, 8168.500000, 8199.000000, 8196.500000
2094, 13608264.000000, 2775.875000, 8170.000000, 8199.000000, 8196.000000
2095, 13608424.000000, 2711.500000, 8188.500000, 8208.500000, 8215.000000
2096, 13608584.000000, 2600.375000, 8165.500000, 8194.500000, 8178.000000
2097, 13608744.000000, 2455.625000, 8155.000000, 8187.000000, 8163.500000
2098, 13608904.000000, 2289.625000, 8156.500000, 8187.000000, 8162.500000
2099, 13609064.000000, 2131.125000, 8156.000000, 8186.000000, 8163.000000
2100, 13609224.000000, 2010.000000, 8177.500000, 8218.500000, 8200.500000
2101, 13609384.000000, 1951.250000, 8466.500000, 8172.500000, 8305.500000
2102, 13609544.000000, 1942.500000, 8130.500000, 8092.000000, 8109.000000
2103, 13609704.000000, 1955.125000, 8137.500000, 8178.000000, 8152.000000
2104, 13609864.000000, 1954.875000, 8144.000000, 8198.000000, 8164.000000
2105, 13610024.000000, 1918.250000, 8146.000000, 8203.500000, 8172.500000
2106, 13610184.000000, 1848.750000, 8156.500000, 8208.000000, 8181.500000
2107, 13610344.000000, 1756.000000, 8163.500000, 8209.000000, 8184.500000
2108, 13610504.000000, 1651.750000, 8171.000000, 8211.000000, 8190.000000
2109, 13610664.000000, 1549.000000, 8181.500000, 8211.500000, 8196.000000
2110, 13610824.000000, 1454.750000, 8194.000000, 8219.500000, 8208.500000
2111, 13610984.000000, 1373.625000, 8219.000000, 8227.000000, 8223.500000
2112, 13611144.000000, 1300.875000, 8232.000000, 8230.000000, 8232.500000
2113, 13611304.000000, 1242.250000, 8238.000000, 8229.000000, 8236.500000
2114, 13611464.000000, 1199.500000, 8224.500000, 8236.000000, 8242.000000
2115, 13611624.000000, 1174.000000, 8193.000000, 8238.500000, 8236.500000
2116, 13611784.000000, 1162.875000, 8154.000000, 8232.000000, 8217.000000
2117, 13611944.000000, 1160.375000, 8133.500000, 8223.500000, 8200.000000
2118, 13612104.000000, 1152.375000, 8129.500000, 8220.000000, 8193.500000
2119, 13612264.000000, 1135.375000, 8129.000000, 8219.500000, 8195.000000
2120, 13612424.000000, 1103.875000, 8133.500000, 8217.500000, 8194.000000
2121, 13612584.000000, 1057.500000, 8134.500000, 8214.500000, 8192.500000
2122, 13612744.000000, 1007.375000, 8132.500000, 8214.000000, 8191.500000
2123, 13612904.000000, 958.375000, 8131.000000, 8215.000000, 8190.000000
2124, 13613064.000000, 920.875000, 8131.000000, 8214.000000, 8189.000000
2125, 13613224.000000, 909.625000, 8126.500000, 8213.500000, 8189.000000
2126, 13613384.000000, 960.250000, 8131.000000, 8214.000000, 8189.000000
2127, 13613544.000000, 1132.375000, 8127.000000, 8214.500000, 8189.500000
2128, 13613704.000000, 1447.000000, 8132.000000, 8213.000000, 8190.000000
2129, 13613864.000000, 1835.875000, 8129.000000, 8212.000000, 8188.500000
2130, 13614024.000000, 2183.500000, 8137.500000, 8219.000000, 8205.000000
2131, 13614184.000000, 2397.500000, 8140.000000, 8222.000000, 8211.500000
2132, 13614344.000000, 2476.750000, 8153.500000, 8228.000000, 8231.500000
2133, 13614504.000000, 2440.500000, 8146.000000, 8218.000000, 8202.500000
2134, 13614664.000000, 2335.875000, 8124.500000, 8205.000000, 8176.500000
2135, 13614824.000000, 2177.000000, 8126.000000, 8200.000000, 8173.000000
2136, 13614984.000000, 1982.125000, 8130.000000, 8203.500000, 8174.500000
2137, 13615144.000000, 1797.750000, 8120.500000, 8212.500000, 8178.000000
2138, 13615304.000000, 1663.875000, 8396.000000, 8230.000000, 8325.000000
2139, 13615464.000000, 1614.250000, 8117.000000, 8157.000000, 8190.000000
2140, 13615624.000000, 1629.000000, 8096.500000, 8150.000000, 8130.000000
2141, 13615784.000000, 1673.875000, 8125.500000, 8205.500000, 8171.500000
2142, 13615944.000000, 1706.375000, 8124.500000, 8209.500000, 8179.000000
2143, 13616104.000000, 1703.000000, 8133.500000, 8210.500000, 8184.000000
2144, 13616264.000000, 1663.000000, 8140.500000, 8208.500000, 8185.500000
2145, 13616424.000000, 1596.875000, 8152.500000, 8210.000000, 8190.000000
2146, 13616584.000000, 1520.000000, 8163.500000, 8210.500000, 8197.000000
2147, 13616744.000000, 1442.250000, 8176.000000, 8209.500000, 8198.500000
2148, 13616904.000000, 1370.500000, 8198.500000, 8210.000000, 8206.500000
2149, 13617064.000000, 1304.000000, 8213.500000, 8208.500000, 8211.000000
2150, 13617224.000000, 1249.500000, 8225.000000, 8210.500000, 8218.500000
2151, 13617384.000000, 1206.250000, 8225.500000, 8212.000000, 8224.500000
2152, 13617544.000000, 1181.375000, 8196.500000, 8218.000000, 8224.000000
2153, 13617704.000000, 1176.625000, 8160.500000, 8213.500000, 8207.500000
2154, 13617864.000000, 1186.625000, 8129.000000, 8204.000000, 8187.500000
2155, 13618024.000000, 1198.500000, 8124.000000, 8195.500000, 8177.500000
2156, 13618184.000000, 1204.875000, 8124.000000, 8195.500000, 8175.500000
2157, 13618344.000000, 1196.250000, 8125.500000, 8194.500000, 8177.500000
2158, 13618504.000000, 1171.125000, 8130.000000, 8191.000000, 8175.000000
2159, 13618664.000000, 1130.375000, 8133.500000, 8190.500000, 8175.000000
2160, 13618824.000000, 1084.875000, 8130.500000, 8187.000000, 8171.500000
2161, 13618984.000000, 1044.250000, 8131.500000, 8190.000000, 8172.000000
2162, 13619144.000000, 1016.500000, 8131.000000, 8185.500000, 8168.500000
2163, 13619304.000000, 1030.000000, 8132.000000, 8185.500000, 8168.500000
2164, 13619464.000000, 1123.875000, 8128.500000, 8185.000000, 8167.000000
2165, 13619624.000000, 1372.250000, 8139.000000, 8186.500000, 8175.500000
2166, 13619784.000000, 1741.750000, 8143.000000, 8196.000000, 8191.500000
2167, 13619944.000000, 2144.375000, 8146.500000, 8198.500000, 8200.000000
2168, 13620104.000000, 2451.000000, 8163.500000, 8202.500000, 8209.500000
2169, 13620264.000000, 2616.000000, 8146.000000, 8186.500000, 8173.000000
2170, 13620424.000000, 2655.750000, 8138.500000, 8178.000000, 8156.500000
2171, 13620584.000000, 2603.375000, 8140.500000, 8179.500000, 8156.500000
2172, 13620744.000000, 2491.500000, 8144.000000, 8177.000000, 8156.500000
2173, 13620904.000000, 2329.250000, 8166.500000, 8204.500000, 8193.000000
2174, 13621064.000000, 2149.500000, 8444.000000, 8161.500000, 8292.500000
2175, 13621224.000000, 1997.750000, 8114.000000, 8089.000000, 8109.000000
2176, 13621384.000000, 1920.500000, 8134.000000, 8158.000000, 8140.500000
2177, 13621544.000000, 1916.250000, 8146.000000, 8181.000000, 8157.500000
2178, 13621704.000000, 1955.250000, 8151.000000, 8185.500000, 8163.500000
2179, 13621864.000000, 1991.250000, 8159.000000, 8186.000000, 8169.500000
2180, 13622024.000000, 1998.875000, 8171.500000, 8189.000000, 8176.500000
2181, 13622184.000000, 1966.750000, 8179.500000, 8193.000000, 8184.000000
2182, 13622344.000000, 1907.375000, 8193.000000, 8193.000000, 8189.000000
2183, 13622504.000000, 1832.625000, 8208.500000, 8195.500000, 8196.500000
2184, 13622664.000000, 1754.125000, 8228.000000, 8196.500000, 8204.500000
2185, 13622824.000000, 1678.250000, 8249.500000, 8197.000000, 8212.500000
2186, 13622984.000000, 1602.500000, 8261.500000, 8200.000000, 8219.500000
2187, 13623144.000000, 1535.375000, 8248.000000, 8200.000000, 8221.500000
2188, 13623304.000000, 1480.125000, 8209.000000, 8199.500000, 8211.000000
2189, 13623464.000000, 1452.625000, 8176.000000, 8196.500000, 8195.000000
2190, 13623624.000000, 1446.250000, 8156.000000, 8188.500000, 8181.500000
2191, 13623784.000000, 1455.750000, 8153.000000, 8187.000000, 8178.000000
2192, 13623944.000000, 1468.375000, 8155.000000, 8186.000000, 8177.000000
2193, 13624104.000000, 1471.750000, 8162.500000, 8185.000000, 8178.500000
2194, 13624264.000000, 1458.500000, 8162.000000, 8186.000000, 8179.500000
2195, 13624424.000000, 1424.625000, 8164.500000, 8184.500000, 8179.500000
2196, 13624584.000000, 1385.000000, 8166.000000, 8185.000000, 8181.000000
2197, 13624744.000000, 1346.625000, 8165.000000, 8185.000000, 8178.500000
2198, 13624904.000000, 1323.000000, 8164.500000, 8182.000000, 8176.000000
2199, 13625064.000000, 1345.375000, 8165.500000, 8182.500000, 8175.000000
2200, 13625224.000000, 1478.000000, 8167.000000, 8183.000000, 8176.000000
2201, 13625384.000000, 1756.875000, 8172.500000, 8184.000000, 8179.500000
2202, 13625544.000000, 2148.375000, 8177.500000, 8190.500000, 8196.000000
2203, 13625704.000000, 2533.750000, 8181.500000, 8196.000000, 8205.000000
2204, 13625864.000000, 2819.875000, 8198.500000, 8201.000000, 8223.000000
2205, 13626024.000000, 2949.375000, 8192.000000, 8191.000000, 8194.000000
2206, 13626184.000000, 2964.750000, 8175.500000, 8178.500000, 8169.000000
2207, 13626344.000000, 2898.875000, 8173.000000, 8175.000000, 8162.000000
2208, 13626504.000000, 2777.500000, 8175.500000, 8177.000000, 8163.500000
2209, 13626664.000000, 2611.750000, 8168.500000, 8191.500000, 8174.000000
2210, 13626824.000000, 2421.125000, 8464.500000, 8205.000000, 8329.500000
2211, 13626984.000000, 2266.125000, 8177.000000, 8102.000000, 8152.000000
2212, 13627144.000000, 2180.375000, 8158.500000, 8137.000000, 8137.500000
2213, 13627304.000000, 2170.125000, 8172.000000, 8185.000000, 8168.000000
2214, 13627464.000000, 2193.375000, 8177.000000, 8189.000000, 8176.000000
2215, 13627624.000000, 2216.125000, 8189.000000, 8195.500000, 8186.500000
2216, 13627784.000000, 2207.500000, 8195.000000, 8195.500000, 8189.000000
2217, 13627944.000000, 2164.000000, 8203.000000, 8197.000000, 8194.000000
2218, 13628104.000000, 2089.625000, 8216.000000, 8198.000000, 8199.000000
2219, 13628264.000000, 2000.500000, 8232.500000, 8202.000000, 8209.000000
2220, 13628424.000000, 1910.500000, 8249.500000, 8206.000000, 8221.000000
2221, 13628584.000000, 1822.125000, 8271.500000, 8209.500000, 8231.500000
2222, 13628744.000000, 1738.000000, 8283.000000, 8211.000000, 8237.000000
2223, 13628904.000000, 1662.500000, 8277.500000, 8211.000000, 8239.000000
2224, 13629064.000000, 1602.625000, 8248.000000, 8213.000000, 8234.000000
2225, 13629224.000000, 1564.750000, 8210.500000, 8209.000000, 8218.500000
2226, 13629384.000000, 1549.000000, 8188.500000, 8200.500000, 8201.000000
2227, 13629544.000000, 1551.625000, 8179.500000, 8197.000000, 8193.000000
2228, 13629704.000000, 1550.625000, 8178.000000, 8197.000000, 8191.000000
2229, 13629864.000000, 1538.625000, 8181.500000, 8197.000000, 8193.500000
2230, 13630024.000000, 1506.875000, 8185.500000, 8199.000000, 8197.000000
2231, 13630184.000000, 1460.500000, 8186.500000, 8198.000000, 8195.500000
2232, 13630344.000000, 1408.500000, 8185.000000, 8196.000000, 8193.000000
2233, 13630504.000000, 1356.875000, 8184.000000, 8195.500000, 8191.500000
2234, 13630664.000000, 1318.375000, 8183.000000, 8196.000000, 8191.000000
2235, 13630824.000000, 1339.250000, 8184.000000, 8194.500000, 8190.500000
2236, 13630984.000000, 1480.375000, 8183.000000, 8196.000000, 8191.000000
2237, 13631144.000000, 1803.250000, 8184.000000, 8195.500000, 8191.500000
2238, 13631304.000000, 2237.875000, 8192.000000, 8200.000000, 8205.000000
2239, 13631464.000000, 2671.125000, 8194.000000, 8205.000000, 8215.000000
2240, 13631624.000000, 2976.250000, 8207.500000, 8210.000000, 8233.000000
2241, 13631784.000000, 3117.250000, 8209.000000, 8206.500000, 8215.500000
2242, 13631944.000000, 3118.375000, 8189.000000, 8189.500000, 8182.500000
2243, 13632104.000000, 3026.000000, 8183.500000, 8185.000000, 8172.500000
2244, 13632264.000000, 2851.375000, 8185.000000, 8185.500000, 8174.000000
2245, 13632424.000000, 2658.500000, 8178.000000, 8191.000000, 8174.000000
2246, 13632584.000000, 2487.750000, 8360.500000, 8235.000000, 8302.000000
2247, 13632744.000000, 2355.000000, 8284.500000, 8125.000000, 8216.500000
2248, 13632904.000000, 2305.000000, 8154.000000, 8107.500000, 8108.000000
2249, 13633064.000000, 2310.625000, 8178.000000, 8188.000000, 8171.000000
2250, 13633224.000000, 2301.625000, 8180.500000, 8195.500000, 8179.000000
2251, 13633384.000000, 2258.375000, 8187.000000, 8198.500000, 8185.500000
2252, 13633544.000000, 2179.125000, 8194.500000, 8200.000000, 8192.000000
2253, 13633704.000000, 2075.500000, 8204.000000, 8201.500000, 8197.000000
2254, 13633864.000000, 1966.750000, 8211.000000, 8205.000000, 8203.000000
2255, 13634024.000000, 1866.250000, 8225.500000, 8207.500000, 8212.000000
2256, 13634184.000000, 1777.000000, 8245.500000, 8210.000000, 8221.500000
2257, 13634344.000000, 1699.875000, 8266.000000, 8212.000000, 8230.500000
2258, 13634504.000000, 1635.125000, 8279.000000, 8213.000000, 8238.000000
2259, 13634664.000000, 1585.375000, 8277.500000, 8214.000000, 8242.000000
2260, 13634824.000000, 1555.125000, 8252.000000, 8213.500000, 8236.500000
2261, 13634984.000000, 1544.375000, 8211.500000, 8208.500000, 8218.500000
2262, 13635144.000000, 1544.000000, 8186.500000, 8199.000000, 8198.500000
2263, 13635304.000000, 1540.500000, 8176.500000, 8191.500000, 8186.500000
2264, 13635464.000000, 1519.500000, 8174.000000, 8191.000000, 8184.500000
2265, 13635624.000000, 1481.125000, 8177.000000, 8191.500000, 8187.000000
2266, 13635784.000000, 1430.375000, 8179.500000, 8191.000000, 8187.000000
2267, 13635944.000000, 1378.500000, 8178.500000, 8189.500000, 8184.000000
2268, 13636104.000000, 1332.250000, 8180.000000, 8187.500000, 8183.000000
2269, 13636264.000000, 1312.000000, 8179.000000, 8186.000000, 8181.000000
2270, 13636424.000000, 1372.875000, 8176.000000, 8185.500000, 8178.500000
2271, 13636584.000000, 1586.125000, 8178.500000, 8185.500000, 8180.000000
2272, 13636744.000000, 1968.625000, 8175.000000, 8183.500000, 8175.500000
2273, 13636904.000000, 2429.375000, 8177.000000, 8184.000000, 8177.000000
2274, 13637064.000000, 2841.125000, 8180.500000, 8185.500000, 8181.000000
2275, 13637224.000000, 3093.125000, 8186.000000, 8194.500000, 8201.500000
2276, 13637384.000000, 3185.875000, 8187.000000, 8197.500000, 8207.000000
2277, 13637544.000000, 3156.000000, 8207.500000, 8200.500000, 8219.000000
2278, 13637704.000000, 3071.750000, 8189.500000, 8186.500000, 8182.500000
2279, 13637864.000000, 2960.375000, 8175.000000, 8177.000000, 8163.000000
2280, 13638024.000000, 2821.375000, 8176.000000, 8175.500000, 8160.500000
2281, 13638184.000000, 2660.125000, 8178.000000, 8176.500000, 8163.500000
2282, 13638344.000000, 2505.375000, 8185.500000, 8201.000000, 8188.000000
2283, 13638504.000000, 2395.375000, 8513.000000, 8164.000000, 8319.000000
2284, 13638664.000000, 2341.875000, 8179.500000, 8043.500000, 8084.000000
2285, 13638824.000000, 2327.750000, 8161.500000, 8158.000000, 8149.000000
2286, 13638984.000000, 2314.500000, 8169.000000, 8184.000000, 8165.000000
2287, 13639144.000000, 2274.875000, 8175.000000, 8189.500000, 8173.500000
2288, 13639304.000000, 2199.125000, 8180.000000, 8192.500000, 8180.000000
2289, 13639464.000000, 2094.250000, 8189.000000, 8195.500000, 8188.500000
2290, 13639624.000000, 1977.250000, 8198.500000, 8197.000000, 8193.500000
2291, 13639784.000000, 1864.500000, 8209.000000, 8199.500000, 8200.000000
2292, 13639944.000000, 1765.625000, 8223.000000, 8202.000000, 8207.500000
2293, 13640104.000000, 1684.250000, 8244.000000, 8206.000000, 8219.500000
2294, 13640264.000000, 1612.875000, 8263.000000, 8209.000000, 8231.000000
2295, 13640424.000000, 1556.500000, 8271.000000, 8213.000000, 8239.000000
2296, 13640584.000000, 1513.375000, 8261.000000, 8213.500000, 8239.500000
2297, 13640744.000000, 1487.000000, 8224.500000, 8211.500000, 8226.000000
2298, 13640904.000000, 1473.500000, 8188.500000, 8201.500000, 8203.500000
2299, 13641064.000000, 1463.500000, 8168.500000, 8195.000000, 8187.500000
2300, 13641224.000000, 1445.625000, 8161.000000, 8193.500000, 8182.500000
2301, 13641384.000000, 1410.375000, 8162.000000, 8193.500000, 8183.000000
2302, 13641544.000000, 1360.375000, 8163.000000, 8195.000000, 8185.000000
2303, 13641704.000000, 1309.125000, 8163.500000, 8194.000000, 8184.500000
2304, 13641864.000000, 1265.250000, 8164.000000, 8194.500000, 8185.500000
2305, 13642024.000000, 1237.250000, 8166.000000, 8194.000000, 8186.000000
2306, 13642184.000000, 1246.000000, 8162.500000, 8194.000000, 8183.500000
2307, 13642344.000000, 1363.250000, 8161.000000, 8193.500000, 8182.000000
2308, 13642504.000000, 1634.500000, 8160.000000, 8192.000000, 8180.000000
2309, 13642664.000000, 2061.625000, 8157.000000, 8195.000000, 8181.000000
2310, 13642824.000000, 2518.625000, 8157.000000, 8196.000000, 8182.000000
2311, 13642984.000000, 2884.375000, 8158.000000, 8197.000000, 8184.000000
2312, 13643144.000000, 3081.750000, 8164.000000, 8205.500000, 8202.500000
2313, 13643304.000000, 3125.250000, 8162.500000, 8205.500000, 8204.000000
2314, 13643464.000000, 3071.750000, 8183.500000, 8214.000000, 8224.000000
2315, 13643624.000000, 2978.375000, 8169.000000, 8201.500000, 8190.500000
2316, 13643784.000000, 2864.375000, 8153.000000, 8190.000000, 8169.000000
2317, 13643944.000000, 2718.625000, 8148.000000, 8187.500000, 8161.500000
2318, 13644104.000000, 2556.000000, 8148.000000, 8187.000000, 8161.000000
2319, 13644264.000000, 2406.500000, 8138.500000, 8202.000000, 8169.500000
2320, 13644424.000000, 2306.500000, 8447.500000, 8211.000000, 8330.500000
2321, 13644584.000000, 2255.500000, 8181.500000, 8069.500000, 8119.500000
2322, 13644744.000000, 2231.875000, 8129.000000, 8156.000000, 8139.500000
2323, 13644904.000000, 2201.000000, 8133.000000, 8195.500000, 8159.500000
2324, 13645064.000000, 2144.875000, 8135.500000, 8200.000000, 8165.500000
2325, 13645224.000000, 2050.750000, 8143.500000, 8204.500000, 8175.500000
2326, 13645384.000000, 1935.125000, 8151.000000, 8206.000000, 8179.000000
2327, 13645544.000000, 1820.500000, 8159.500000, 8210.000000, 8186.500000
2328, 13645704.000000, 1721.625000, 8170.500000, 8212.500000, 8192.500000
2329, 13645864.000000, 1640.875000, 8185.500000, 8217.000000, 8203.000000
2330, 13646024.000000, 1576.250000, 8202.000000, 8219.500000, 8210.500000
2331, 13646184.000000, 1523.500000, 8222.500000, 8222.000000, 8221.500000
2332, 13646344.000000, 1483.500000, 8231.000000, 8223.000000, 8228.000000
2333, 13646504.000000, 1458.625000, 8223.000000, 8224.000000, 8229.500000
2334, 13646664.000000, 1449.000000, 8190.000000, 8222.500000, 8218.500000
2335, 13646824.000000, 1449.625000, 8152.000000, 8214.000000, 8196.500000
2336, 13646984.000000, 1447.625000, 8129.000000, 8206.500000, 8180.000000
2337, 13647144.000000, 1433.750000, 8119.000000, 8201.000000, 8170.000000
2338, 13647304.000000, 1399.750000, 8121.000000, 8201.000000, 8171.000000
2339, 13647464.000000, 1352.500000, 8123.000000, 8199.000000, 8170.000000
2340, 13647624.000000, 1304.875000, 8126.500000, 8197.000000, 8169.500000
2341, 13647784.000000, 1263.625000, 8128.000000, 8194.500000, 8167.000000
2342, 13647944.000000, 1230.875000, 8128.000000, 8191.000000, 8162.000000
2343, 13648104.000000, 1222.500000, 8128.000000, 8186.500000, 8157.500000
2344, 13648264.000000, 1288.000000, 8128.000000, 8187.000000, 8158.000000
2345, 13648424.000000, 1493.500000, 8131.000000, 8186.000000, 8158.500000
2346, 13648584.000000, 1859.625000, 8132.000000, 8184.500000, 8157.500000
2347, 13648744.000000, 2302.250000, 8133.000000, 8184.000000, 8156.000000
2348, 13648904.000000, 2696.750000, 8134.500000, 8181.000000, 8154.000000
2349, 13649064.000000, 2936.750000, 8142.000000, 8190.000000, 8175.000000
2350, 13649224.000000, 3018.750000, 8144.500000, 8190.000000, 8177.500000
2351, 13649384.000000, 2984.500000, 8164.500000, 8196.500000, 8193.500000
2352, 13649544.000000, 2892.625000, 8148.500000, 8183.000000, 8161.000000
2353, 13649704.000000, 2777.125000, 8134.000000, 8173.000000, 8139.500000
2354, 13649864.000000, 2636.375000, 8134.000000, 8172.000000, 8137.000000
2355, 13650024.000000, 2480.625000, 8137.000000, 8173.500000, 8140.000000
2356, 13650184.000000, 2337.500000, 8135.500000, 8192.500000, 8157.000000
2357, 13650344.000000, 2245.500000, 8465.500000, 8174.500000, 8302.000000
2358, 13650504.000000, 2206.500000, 8159.000000, 8047.500000, 8085.500000
2359, 13650664.000000, 2204.250000, 8125.000000, 8144.500000, 8123.000000
2360, 13650824.000000, 2201.125000, 8130.500000, 8177.500000, 8140.000000
2361, 13650984.000000, 2171.125000, 8135.000000, 8182.000000, 8147.500000
2362, 13651144.000000, 2103.625000, 8142.500000, 8183.500000, 8154.000000
2363, 13651304.000000, 2006.125000, 8150.500000, 8186.000000, 8159.500000
2364, 13651464.000000, 1895.375000, 8160.000000, 8187.500000, 8165.500000
2365, 13651624.000000, 1784.125000, 8173.000000, 8191.500000, 8176.000000
2366, 13651784.000000, 1684.375000, 8188.500000, 8193.500000, 8183.500000
2367, 13651944.000000, 1594.750000, 8208.000000, 8197.000000, 8194.000000
2368, 13652104.000000, 1516.500000, 8230.500000, 8200.500000, 8207.000000
2369, 13652264.000000, 1453.875000, 8237.000000, 8204.000000, 8215.000000
2370, 13652424.000000, 1411.625000, 8232.500000, 8208.500000, 8222.500000
2371, 13652584.000000, 1393.125000, 8199.500000, 8207.500000, 8212.500000
2372, 13652744.000000, 1391.875000, 8163.000000, 8199.000000, 8192.000000
2373, 13652904.000000, 1390.375000, 8143.000000, 8190.500000, 8173.500000
2374, 13653064.000000, 1372.250000, 8136.000000, 8188.000000, 8170.000000
2375, 13653224.000000, 1328.875000, 8136.500000, 8188.500000, 8172.000000
2376, 13653384.000000, 1270.000000, 8142.000000, 8189.000000, 8173.000000
2377, 13653544.000000, 1212.250000, 8147.500000, 8187.000000, 8174.500000
2378, 13653704.000000, 1166.375000, 8148.500000, 8185.500000, 8175.000000
2379, 13653864.000000, 1138.375000, 8149.000000, 8185.000000, 8172.000000
2380, 13654024.000000, 1133.250000, 8147.500000, 8183.000000, 8171.500000
2381, 13654184.000000, 1184.875000, 8149.000000, 8184.500000, 8173.500000
2382, 13654344.000000, 1353.750000, 8147.500000, 8183.000000, 8171.500000
2383, 13654504.000000, 1671.125000, 8150.000000, 8182.500000, 8171.500000
2384, 13654664.000000, 2081.750000, 8152.000000, 8185.000000, 8174.500000
2385, 13654824.000000, 2465.750000, 8156.500000, 8187.500000, 8183.000000
2386, 13654984.000000, 2728.875000, 8166.000000, 8196.000000, 8200.000000
2387, 13655144.000000, 2826.125000, 8170.000000, 8198.500000, 8206.500000
2388, 13655304.000000, 2805.375000, 8190.000000, 8204.500000, 8223.000000
2389, 13655464.000000, 2716.750000, 8172.500000, 8189.000000, 8188.000000
2390, 13655624.000000, 2591.875000, 8161.000000, 8184.500000, 8175.000000
2391, 13655784.000000, 2439.750000, 8162.500000, 8182.500000, 8173.000000
2392, 13655944.000000, 2267.500000, 8169.000000, 8190.000000, 8182.000000
2393, 13656104.000000, 2111.250000, 8183.500000, 8221.500000, 8219.000000
2394, 13656264.000000, 2005.625000, 8480.500000, 8180.000000, 8329.000000
2395, 13656424.000000, 1957.125000, 8146.000000, 8103.000000, 8141.000000
2396, 13656584.000000, 1943.375000, 8156.500000, 8185.500000, 8180.500000
2397, 13656744.000000, 1928.000000, 8165.000000, 8208.000000, 8195.000000
2398, 13656904.000000, 1886.750000, 8176.000000, 8214.000000, 8203.000000
2399, 13657064.000000, 1812.125000, 8179.500000, 8218.500000, 8212.500000
2400, 13657224.000000, 1714.500000, 8183.000000, 8222.500000, 8220.000000
2401, 13657384.000000, 1602.875000, 8200.000000, 8223.000000, 8227.500000
2402, 13657544.000000, 1490.750000, 8211.000000, 8219.000000, 8226.500000
2403, 13657704.000000, 1385.750000, 8229.500000, 8219.500000, 8234.500000
2404, 13657864.000000, 1290.625000, 8248.500000, 8226.000000, 8247.000000
2405, 13658024.000000, 1208.250000, 8268.500000, 8228.500000, 8259.500000
2406, 13658184.000000, 1142.500000, 8275.500000, 8232.500000, 8268.000000
2407, 13658344.000000, 1099.250000, 8268.500000, 8233.000000, 8273.000000
2408, 13658504.000000, 1075.250000, 8230.500000, 8240.000000, 8267.000000
2409, 13658664.000000, 1065.750000, 8196.000000, 8235.500000, 8254.000000
2410, 13658824.000000, 1059.375000, 8171.500000, 8232.000000, 8240.500000
2411, 13658984.000000, 1043.375000, 8170.500000, 8224.000000, 8233.500000
2412, 13659144.000000, 1013.875000, 8171.000000, 8224.500000, 8233.500000
2413, 13659304.000000, 970.125000, 8175.500000, 8225.000000, 8234.000000
2414, 13659464.000000, 919.250000, 8174.000000, 8225.000000, 8235.000000
2415, 13659624.000000, 866.500000, 8180.500000, 8223.500000, 8236.000000
2416, 13659784.000000, 821.250000, 8178.500000, 8224.000000, 8234.000000
2417, 13659944.000000, 796.125000, 8178.500000, 8223.000000, 8232.000000
2418, 13660104.000000, 822.625000, 8178.500000, 8222.500000, 8231.500000
2419, 13660264.000000, 977.250000, 8176.500000, 8222.500000, 8230.000000
2420, 13660424.000000, 1283.250000, 8175.000000, 8222.500000, 8230.000000
2421, 13660584.000000, 1709.625000, 8186.500000, 8224.500000, 8236.000000
2422, 13660744.000000, 2119.000000, 8188.000000, 8229.000000, 8251.000000
2423, 13660904.000000, 2408.000000, 8187.000000, 8233.000000, 8256.000000
2424, 13661064.000000, 2537.250000, 8206.000000, 8236.000000, 8263.500000
2425, 13661224.000000, 2543.000000, 8183.500000, 8218.500000, 8229.000000
2426, 13661384.000000, 2473.875000, 8176.000000, 8209.500000, 8211.500000
2427, 13661544.000000, 2349.125000, 8174.500000, 8206.500000, 8208.000000
2428, 13661704.000000, 2179.375000, 8178.000000, 8211.500000, 8216.000000
2429, 13661864.000000, 1984.500000, 8218.500000, 8252.000000, 8270.000000
2430, 13662024.000000, 1823.125000, 8410.500000, 8186.000000, 8315.500000
2431, 13662184.000000, 1732.250000, 8128.000000, 8114.500000, 8139.500000
2432, 13662344.000000, 1714.875000, 8150.000000, 8199.500000, 8192.000000
2433, 13662504.000000, 1742.125000, 8159.000000, 8220.000000, 8211.000000
2434, 13662664.000000, 1765.250000, 8164.500000, 8228.000000, 8221.000000
2435, 13662824.000000, 1752.875000, 8169.500000, 8235.000000, 8229.000000
2436, 13662984.000000, 1698.125000, 8177.500000, 8239.500000, 8236.000000
2437, 13663144.000000, 1611.625000, 8185.000000, 8242.000000, 8240.500000
2438, 13663304.000000, 1510.750000, 8195.500000, 8249.500000, 8248.000000
2439, 13663464.000000, 1408.000000, 8208.500000, 8252.000000, 8259.000000
2440, 13663624.000000, 1310.625000, 8230.500000, 8259.500000, 8271.000000
2441, 13663784.000000, 1226.625000, 8248.500000, 8257.000000, 8275.000000
2442, 13663944.000000, 1158.250000, 8253.500000, 8258.500000, 8277.500000
2443, 13664104.000000, 1112.250000, 8236.500000, 8263.000000, 8276.500000
2444, 13664264.000000, 1092.875000, 8186.000000, 8267.000000, 8268.000000
2445, 13664424.000000, 1096.125000, 8155.000000, 8267.500000, 8255.000000
2446, 13664584.000000, 1112.625000, 8140.500000, 8266.500000, 8243.500000
2447, 13664744.000000, 1123.250000, 8130.000000, 8264.500000, 8237.500000
2448, 13664904.000000, 1116.125000, 8128.000000, 8262.000000, 8231.000000
2449, 13665064.000000, 1088.625000, 8132.500000, 8262.500000, 8235.000000
2450, 13665224.000000, 1043.500000, 8138.500000, 8267.000000, 8242.500000
2451, 13665384.000000, 994.125000, 8141.500000, 8269.000000, 8245.500000
2452, 13665544.000000, 950.125000, 8138.500000, 8267.500000, 8244.000000
2453, 13665704.000000, 921.625000, 8142.500000, 8271.000000, 8242.500000
2454, 13665864.000000, 941.375000, 8139.500000, 8268.500000, 8241.000000
2455, 13666024.000000, 1077.250000, 8136.000000, 8267.000000, 8238.000000
2456, 13666184.000000, 1384.875000, 8144.000000, 8269.500000, 8245.500000
2457, 13666344.000000, 1809.250000, 8147.000000, 8279.500000, 8261.000000
2458, 13666504.000000, 2235.250000, 8153.000000, 8279.500000, 8266.000000
2459, 13666664.000000, 2539.125000, 8168.000000, 8277.500000, 8272.000000
2460, 13666824.000000, 2691.875000, 8155.000000, 8264.000000, 8239.000000
2461, 13666984.000000, 2713.875000, 8147.000000, 8260.500000, 8236.000000
2462, 13667144.000000, 2658.125000, 8154.500000, 8256.500000, 8234.500000
2463, 13667304.000000, 2539.125000, 8157.000000, 8254.500000, 8233.500000
2464, 13667464.000000, 2362.000000, 8179.500000, 8286.500000, 8274.500000
2465, 13667624.000000, 2164.125000, 8452.500000, 8229.000000, 8353.500000
2466, 13667784.000000, 2000.500000, 8116.000000, 8151.000000, 8158.000000
2467, 13667944.000000, 1926.875000, 8142.000000, 8226.500000, 8201.500000
2468, 13668104.000000, 1928.750000, 8154.000000, 8247.000000, 8217.000000
2469, 13668264.000000, 1966.375000, 8167.000000, 8249.500000, 8224.000000
2470, 13668424.000000, 1990.125000, 8174.500000, 8252.000000, 8232.500000
2471, 13668584.000000, 1980.750000, 8185.000000, 8253.000000, 8235.500000
2472, 13668744.000000, 1934.875000, 8195.500000, 8251.000000, 8239.000000
2473, 13668904.000000, 1866.250000, 8213.500000, 8249.000000, 8241.500000
2474, 13669064.000000, 1788.125000, 8231.000000, 8250.500000, 8248.000000
2475, 13669224.000000, 1709.375000, 8257.000000, 8252.000000, 8257.500000
2476, 13669384.000000, 1628.875000, 8280.000000, 8253.500000, 8269.000000
2477, 13669544.000000, 1548.250000, 8283.000000, 8247.500000, 8265.000000
2478, 13669704.000000, 1479.375000, 8270.500000, 8243.500000, 8262.000000
2479, 13669864.000000, 1438.750000, 8236.000000, 8242.000000, 8251.000000
2480, 13670024.000000, 1432.375000, 8200.000000, 8235.500000, 8234.000000
2481, 13670184.000000, 1445.750000, 8179.000000, 8225.500000, 8214.000000
2482, 13670344.000000, 1460.500000, 8174.000000, 8222.000000, 8207.500000
2483, 13670504.000000, 1459.875000, 8174.000000, 8221.000000, 8208.500000
2484, 13670664.000000, 1435.875000, 8174.500000, 8219.500000, 8210.000000
2485, 13670824.000000, 1387.875000, 8177.500000, 8219.000000, 8213.500000
2486, 13670984.000000, 1332.375000, 8177.500000, 8217.500000, 8213.000000
2487, 13671144.000000, 1285.000000, 8177.500000, 8212.500000, 8207.000000
2488, 13671304.000000, 1259.750000, 8183.000000, 8210.500000, 8208.000000
2489, 13671464.000000, 1285.750000, 8180.500000, 8211.000000, 8209.500000
2490, 13671624.000000, 1428.500000, 8184.500000, 8210.000000, 8212.000000
2491, 13671784.000000, 1745.500000, 8187.000000, 8204.500000, 8206.500000
2492, 13671944.000000, 2181.875000, 8195.500000, 8206.000000, 8217.500000
2493, 13672104.000000, 2618.250000, 8196.000000, 8211.500000, 8225.500000
2494, 13672264.000000, 2935.125000, 8200.500000, 8212.000000, 8233.000000
2495, 13672424.000000, 3081.375000, 8212.500000, 8210.500000, 8228.000000
2496, 13672584.000000, 3095.000000, 8193.500000, 8197.500000, 8194.000000
2497, 13672744.000000, 3033.125000, 8187.000000, 8191.500000, 8182.500000
2498, 13672904.000000, 2922.875000, 8185.000000, 8193.500000, 8184.500000
2499, 13673064.000000, 2761.375000, 8184.500000, 8202.000000, 8192.500000
2500, 13673224.000000, 2564.125000, 8280.500000, 8250.000000, 8280.000000
2501, 13673384.000000, 2381.375000, 8364.500000, 8168.000000, 8278.000000
2502, 13673544.000000, 2263.750000, 8140.000000, 8091.000000, 8092.500000
2503, 13673704.000000, 2225.125000, 8175.000000, 8188.500000, 8174.500000
2504, 13673864.000000, 2234.875000, 8181.500000, 8199.500000, 8185.000000
2505, 13674024.000000, 2244.750000, 8188.500000, 8201.500000, 8190.500000
2506, 13674184.000000, 2218.250000, 8196.000000, 8200.000000, 8194.000000
2507, 13674344.000000, 2148.750000, 8200.000000, 8200.500000, 8195.000000
2508, 13674504.000000, 2052.500000, 8210.000000, 8199.500000, 8196.500000
2509, 13674664.000000, 1944.750000, 8223.000000, 8201.500000, 8203.500000
2510, 13674824.000000, 1841.125000, 8240.000000, 8204.000000, 8211.000000
2511, 13674984.000000, 1748.500000, 8262.000000, 8205.500000, 8221.000000
2512, 13675144.000000, 1659.625000, 8274.500000, 8204.000000, 8226.000000
2513, 13675304.000000, 1576.000000, 8277.000000, 8201.000000, 8227.000000
2514, 13675464.000000, 1505.375000, 8256.500000, 8199.500000, 8222.500000
2515, 13675624.000000, 1464.500000, 8215.500000, 8196.000000, 8208.500000
2516, 13675784.000000, 1452.000000, 8187.000000, 8187.000000, 8189.500000
2517, 13675944.000000, 1455.875000, 8170.000000, 8179.500000, 8176.000000
2518, 13676104.000000, 1458.500000, 8169.000000, 8176.000000, 8172.000000
2519, 13676264.000000, 1443.375000, 8172.000000, 8175.500000, 8172.500000
2520, 13676424.000000, 1408.625000, 8179.000000, 8173.000000, 8173.500000
2521, 13676584.000000, 1355.625000, 8185.500000, 8173.500000, 8176.000000
2522, 13676744.000000, 1301.375000, 8189.000000, 8171.000000, 8176.000000
2523, 13676904.000000, 1255.000000, 8187.500000, 8169.000000, 8174.000000
2524, 13677064.000000, 1235.625000, 8190.000000, 8169.000000, 8174.500000
2525, 13677224.000000, 1309.875000, 8192.500000, 8168.000000, 8176.500000
2526, 13677384.000000, 1553.875000, 8191.000000, 8165.500000, 8173.500000
2527, 13677544.000000, 1979.250000, 8191.000000, 8166.000000, 8172.500000
2528, 13677704.000000, 2483.375000, 8204.000000, 8173.000000, 8192.000000
2529, 13677864.000000, 2916.375000, 8206.500000, 8178.500000, 8203.000000
2530, 13678024.000000, 3184.375000, 8224.500000, 8185.000000, 8223.500000
2531, 13678184.000000, 3270.625000, 8226.000000, 8176.000000, 8200.500000
2532, 13678344.000000, 3243.250000, 8208.500000, 8161.500000, 8170.500000
2533, 13678504.000000, 3158.250000, 8206.000000, 8158.000000, 8162.500000
2534, 13678664.000000, 3041.000000, 8207.000000, 8158.500000, 8164.500000
2535, 13678824.000000, 2888.500000, 8201.000000, 8165.000000, 8167.000000
2536, 13678984.000000, 2704.750000, 8408.500000, 8204.500000, 8304.000000
2537, 13679144.000000, 2535.750000, 8278.500000, 8084.500000, 8180.000000
2538, 13679304.000000, 2424.750000, 8177.500000, 8084.000000, 8102.500000
2539, 13679464.000000, 2382.000000, 8206.000000, 8159.000000, 8165.000000
2540, 13679624.000000, 2373.500000, 8212.000000, 8166.500000, 8176.500000
2541, 13679784.000000, 2357.750000, 8221.500000, 8169.000000, 8182.500000
2542, 13679944.000000, 2306.000000, 8230.000000, 8168.000000, 8184.500000
2543, 13680104.000000, 2216.375000, 8236.000000, 8170.000000, 8190.000000
2544, 13680264.000000, 2105.250000, 8245.500000, 8174.500000, 8199.000000
2545, 13680424.000000, 1990.875000, 8256.000000, 8175.500000, 8205.000000
2546, 13680584.000000, 1884.875000, 8276.000000, 8181.000000, 8219.000000
2547, 13680744.000000, 1789.125000, 8299.000000, 8186.000000, 8232.500000
2548, 13680904.000000, 1704.125000, 8313.500000, 8189.500000, 8242.500000
2549, 13681064.000000, 1633.375000, 8310.500000, 8192.000000, 8248.000000
2550, 13681224.000000, 1580.125000, 8287.000000, 8193.000000, 8244.500000
2551, 13681384.000000, 1550.375000, 8248.500000, 8188.000000, 8228.500000
2552, 13681544.000000, 1538.875000, 8220.500000, 8178.500000, 8207.500000
2553, 13681704.000000, 1534.125000, 8211.000000, 8174.000000, 8200.000000
2554, 13681864.000000, 1522.875000, 8213.000000, 8174.000000, 8203.000000
2555, 13682024.000000, 1495.250000, 8214.000000, 8176.000000, 8206.000000
2556, 13682184.000000, 1456.625000, 8217.000000, 8175.500000, 8207.500000
2557, 13682344.000000, 1407.500000, 8221.000000, 8175.000000, 8211.000000
2558, 13682504.000000, 1358.625000, 8221.000000, 8174.500000, 8210.500000
2559, 13682664.000000, 1313.625000, 8222.000000, 8175.000000, 8210.000000
2560, 13682824.000000, 1302.875000, 8222.500000, 8175.000000, 8212.500000
2561, 13682984.000000, 1394.500000, 8225.000000, 8175.500000, 8214.500000
2562, 13683144.000000, 1661.625000, 8224.500000, 8172.500000, 8211.000000
2563, 13683304.000000, 2108.000000, 8225.000000, 8172.500000, 8211.500000
2564, 13683464.000000, 2608.500000, 8227.500000, 8177.000000, 8219.000000
2565, 13683624.000000, 3010.000000, 8235.500000, 8183.500000, 8236.500000
2566, 13683784.000000, 3236.000000, 8237.500000, 8185.000000, 8241.500000
2567, 13683944.000000, 3288.750000, 8251.500000, 8187.000000, 8247.000000
2568, 13684104.000000, 3239.250000, 8235.500000, 8173.000000, 8213.000000
2569, 13684264.000000, 3153.000000, 8227.000000, 8166.000000, 8198.000000
2570, 13684424.000000, 3041.250000, 8226.000000, 8166.000000, 8195.500000
2571, 13684584.000000, 2887.875000, 8229.500000, 8165.000000, 8194.000000
2572, 13684744.000000, 2705.875000, 8252.500000, 8197.500000, 8233.000000
2573, 13684904.000000, 2534.250000, 8544.500000, 8131.000000, 8322.000000
2574, 13685064.000000, 2415.250000, 8214.000000, 8029.000000, 8092.500000
2575, 13685224.000000, 2359.250000, 8219.000000, 8153.500000, 8181.500000
2576, 13685384.000000, 2335.000000, 8227.500000, 8175.000000, 8199.500000
2577, 13685544.000000, 2307.375000, 8233.000000, 8179.000000, 8207.000000
2578, 13685704.000000, 2245.750000, 8238.000000, 8180.500000, 8208.500000
2579, 13685864.000000, 2148.500000, 8244.000000, 8182.000000, 8212.000000
2580, 13686024.000000, 2031.750000, 8252.000000, 8184.000000, 8217.000000
2581, 13686184.000000, 1909.625000, 8262.500000, 8186.500000, 8223.500000
2582, 13686344.000000, 1798.000000, 8276.500000, 8187.000000, 8230.000000
2583, 13686504.000000, 1704.125000, 8295.500000, 8189.500000, 8239.500000
2584, 13686664.000000, 1623.500000, 8313.500000, 8193.000000, 8251.000000
2585, 13686824.000000, 1555.750000, 8323.000000, 8195.000000, 8259.000000
2586, 13686984.000000, 1498.875000, 8310.500000, 8193.500000, 8257.500000
2587, 13687144.000000, 1461.500000, 8272.000000, 8190.500000, 8243.000000
2588, 13687304.000000, 1440.500000, 8237.500000, 8180.500000, 8219.000000
2589, 13687464.000000, 1429.875000, 8219.000000, 8175.000000, 8206.000000
2590, 13687624.000000, 1414.625000, 8215.500000, 8175.000000, 8205.500000
2591, 13687784.000000, 1383.625000, 8216.500000, 8174.000000, 8204.500000
2592, 13687944.000000, 1336.500000, 8219.000000, 8173.000000, 8204.000000
2593, 13688104.000000, 1284.250000, 8218.000000, 8173.000000, 8203.500000
2594, 13688264.000000, 1234.875000, 8222.000000, 8173.000000, 8206.000000
2595, 13688424.000000, 1196.875000, 8222.000000, 8171.000000, 8204.000000
2596, 13688584.000000, 1173.375000, 8219.500000, 8171.000000, 8200.500000
2597, 13688744.000000, 1207.125000, 8220.000000, 8170.000000, 8200.000000
2598, 13688904.000000, 1373.750000, 8219.500000, 8169.000000, 8200.500000
2599, 13689064.000000, 1725.250000, 8220.000000, 8172.500000, 8204.500000
2600, 13689224.000000, 2208.250000, 8219.500000, 8172.000000, 8203.500000
2601, 13689384.000000, 2682.625000, 8220.000000, 8173.000000, 8205.000000
2602, 13689544.000000, 3024.000000, 8227.500000, 8182.500000, 8227.000000
2603, 13689704.000000, 3173.500000, 8227.000000, 8184.000000, 8230.000000
2604, 13689864.000000, 3180.375000, 8246.000000, 8189.500000, 8242.500000
2605, 13690024.000000, 3108.500000, 8226.500000, 8177.000000, 8207.000000
2606, 13690184.000000, 3008.375000, 8212.000000, 8168.000000, 8186.500000
2607, 13690344.000000, 2885.000000, 8206.500000, 8167.000000, 8181.500000
2608, 13690504.000000, 2727.375000, 8206.000000, 8170.500000, 8185.000000
2609, 13690664.000000, 2555.750000, 8205.500000, 8195.000000, 8206.000000
2610, 13690824.000000, 2408.125000, 8530.000000, 8169.000000, 8345.000000
2611, 13690984.000000, 2314.125000, 8206.500000, 8040.500000, 8106.000000
2612, 13691144.000000, 2269.875000, 8183.000000, 8157.500000, 8171.500000
2613, 13691304.000000, 2249.000000, 8184.000000, 8191.500000, 8191.000000
2614, 13691464.000000, 2211.000000, 8188.000000, 8200.500000, 8202.500000
2615, 13691624.000000, 2139.125000, 8190.000000, 8205.000000, 8207.000000
2616, 13691784.000000, 2031.000000, 8196.000000, 8208.000000, 8212.000000
2617, 13691944.000000, 1908.750000, 8200.000000, 8211.500000, 8215.500000
2618, 13692104.000000, 1790.375000, 8205.000000, 8216.000000, 8221.500000
2619, 13692264.000000, 1684.625000, 8218.000000, 8222.500000, 8231.000000
2620, 13692424.000000, 1595.000000, 8235.000000, 8231.000000, 8246.500000
2621, 13692584.000000, 1519.500000, 8252.500000, 8236.500000, 8257.000000
2622, 13692744.000000, 1458.375000, 8258.500000, 8239.500000, 8263.000000
2623, 13692904.000000, 1409.375000, 8248.500000, 8243.500000, 8265.500000
2624, 13693064.000000, 1378.000000, 8211.000000, 8244.500000, 8255.000000
2625, 13693224.000000, 1361.875000, 8174.500000, 8237.500000, 8233.500000
2626, 13693384.000000, 1349.250000, 8152.000000, 8230.500000, 8216.000000
2627, 13693544.000000, 1333.625000, 8141.000000, 8228.500000, 8207.500000
2628, 13693704.000000, 1309.125000, 8141.000000, 8227.000000, 8204.000000
2629, 13693864.000000, 1267.125000, 8137.000000, 8228.000000, 8201.000000
2630, 13694024.000000, 1213.500000, 8135.500000, 8229.000000, 8199.500000
2631, 13694184.000000, 1167.375000, 8134.000000, 8227.500000, 8194.500000
2632, 13694344.000000, 1130.375000, 8130.000000, 8227.000000, 8190.000000
2633, 13694504.000000, 1103.625000, 8124.500000, 8227.500000, 8186.000000
2634, 13694664.000000, 1108.625000, 8121.000000, 8230.000000, 8187.000000
2635, 13694824.000000, 1218.375000, 8117.500000, 8231.500000, 8185.000000
2636, 13694984.000000, 1488.750000, 8115.500000, 8230.500000, 8181.000000
2637, 13695144.000000, 1924.750000, 8114.000000, 8229.000000, 8178.000000
2638, 13695304.000000, 2396.625000, 8111.000000, 8229.000000, 8176.000000
2639, 13695464.000000, 2779.125000, 8116.000000, 8237.500000, 8192.500000
2640, 13695624.000000, 2986.000000, 8118.000000, 8238.000000, 8196.000000
2641, 13695784.000000, 3031.250000, 8130.000000, 8242.000000, 8208.000000
2642, 13695944.000000, 2976.625000, 8131.500000, 8234.000000, 8189.000000
2643, 13696104.000000, 2879.125000, 8110.500000, 8219.500000, 8158.500000
2644, 13696264.000000, 2758.750000, 8106.000000, 8217.000000, 8151.000000
2645, 13696424.000000, 2603.750000, 8109.000000, 8216.000000, 8149.000000
2646, 13696584.000000, 2433.875000, 8102.500000, 8219.000000, 8145.500000
2647, 13696744.000000, 2284.500000, 8291.500000, 8263.500000, 8277.000000
2648, 13696904.000000, 2188.000000, 8231.000000, 8125.500000, 8171.500000
2649, 13697064.000000, 2144.750000, 8090.500000, 8142.000000, 8090.500000
2650, 13697224.000000, 2126.125000, 8108.500000, 8217.000000, 8144.500000
2651, 13697384.000000, 2100.250000, 8116.500000, 8228.000000, 8161.000000
2652, 13697544.000000, 2048.000000, 8125.500000, 8231.500000, 8169.500000
2653, 13697704.000000, 1959.625000, 8134.500000, 8233.500000, 8177.500000
2654, 13697864.000000, 1855.625000, 8143.000000, 8236.000000, 8183.000000
2655, 13698024.000000, 1749.375000, 8154.000000, 8239.000000, 8190.000000
2656, 13698184.000000, 1650.625000, 8166.000000, 8241.000000, 8196.000000
2657, 13698344.000000, 1566.000000, 8180.000000, 8246.500000, 8206.000000
2658, 13698504.000000, 1492.875000, 8199.000000, 8250.500000, 8217.500000
2659, 13698664.000000, 1433.625000, 8213.500000, 8256.000000, 8229.500000
2660, 13698824.000000, 1386.250000, 8213.000000, 8256.000000, 8233.000000
2661, 13698984.000000, 1357.375000, 8190.000000, 8254.500000, 8226.500000
2662, 13699144.000000, 1343.750000, 8155.000000, 8247.500000, 8210.000000
2663, 13699304.000000, 1339.375000, 8129.500000, 8238.500000, 8193.000000
2664, 13699464.000000, 1334.625000, 8123.000000, 8232.000000, 8185.000000
2665, 13699624.000000, 1320.375000, 8125.500000, 8226.500000, 8179.500000
2666, 13699784.000000, 1286.625000, 8129.000000, 8221.500000, 8176.500000
2667, 13699944.000000, 1233.625000, 8132.500000, 8218.500000, 8176.000000
2668, 13700104.000000, 1178.375000, 8136.000000, 8210.000000, 8170.000000
2669, 13700264.000000, 1129.375000, 8133.500000, 8202.000000, 8164.500000
2670, 13700424.000000, 1095.875000, 8134.000000, 8196.000000, 8159.000000
2671, 13700584.000000, 1081.375000, 8138.000000, 8191.500000, 8156.500000
2672, 13700744.000000, 1124.250000, 8138.500000, 8191.500000, 8157.000000
2673, 13700904.000000, 1289.250000, 8140.500000, 8190.000000, 8158.000000
2674, 13701064.000000, 1620.250000, 8143.000000, 8191.500000, 8160.000000
2675, 13701224.000000, 2067.875000, 8145.500000, 8193.000000, 8161.500000
2676, 13701384.000000, 2506.125000, 8149.500000, 8194.500000, 8164.500000
2677, 13701544.000000, 2816.250000, 8160.000000, 8202.000000, 8185.000000
2678, 13701704.000000, 2964.125000, 8163.000000, 8205.000000, 8189.000000
2679, 13701864.000000, 2972.250000, 8178.500000, 8210.000000, 8206.500000
2680, 13702024.000000, 2899.000000, 8181.000000, 8199.500000, 8184.500000
2681, 13702184.000000, 2784.250000, 8162.500000, 8186.000000, 8157.500000
2682, 13702344.000000, 2630.250000, 8164.000000, 8183.000000, 8154.000000
2683, 13702504.000000, 2449.750000, 8167.000000, 8183.500000, 8156.500000
2684, 13702664.000000, 2280.250000, 8158.500000, 8193.000000, 8161.000000
2685, 13702824.000000, 2164.875000, 8409.500000, 8227.000000, 8313.000000
2686, 13702984.000000, 2106.750000, 8241.500000, 8100.500000, 8173.500000
2687, 13703144.000000, 2091.750000, 8157.500000, 8132.000000, 8129.500000
2688, 13703304.000000, 2084.125000, 8172.000000, 8188.000000, 8166.000000
2689, 13703464.000000, 2054.750000, 8184.000000, 8196.500000, 8181.500000
2690, 13703624.000000, 1995.125000, 8193.000000, 8198.500000, 8192.500000
2691, 13703784.000000, 1906.625000, 8206.000000, 8200.000000, 8202.000000
2692, 13703944.000000, 1804.625000, 8214.500000, 8201.000000, 8211.000000
2693, 13704104.000000, 1699.750000, 8228.000000, 8204.500000, 8220.500000
2694, 13704264.000000, 1598.500000, 8244.000000, 8204.000000, 8225.500000
2695, 13704424.000000, 1509.750000, 8258.000000, 8204.500000, 8232.500000
2696, 13704584.000000, 1436.875000, 8278.500000, 8205.000000, 8237.500000
2697, 13704744.000000, 1381.125000, 8288.000000, 8206.500000, 8243.500000
2698, 13704904.000000, 1342.500000, 8287.000000, 8205.500000, 8247.500000
2699, 13705064.000000, 1318.625000, 8264.500000, 8206.000000, 8242.000000
2700, 13705224.000000, 1305.625000, 8228.500000, 8200.500000, 8223.500000
2701, 13705384.000000, 1300.750000, 8201.000000, 8189.500000, 8199.500000
2702, 13705544.000000, 1293.500000, 8195.500000, 8182.000000, 8188.500000
2703, 13705704.000000, 1280.625000, 8196.000000, 8181.000000, 8186.500000
2704, 13705864.000000, 1255.500000, 8202.000000, 8183.500000, 8187.000000
2705, 13706024.000000, 1219.375000, 8208.000000, 8182.000000, 8188.500000
2706, 13706184.000000, 1173.750000, 8203.500000, 8180.500000, 8188.000000
2707, 13706344.000000, 1131.625000, 8205.000000, 8176.000000, 8184.000000
2708, 13706504.000000, 1097.750000, 8202.000000, 8175.500000, 8185.500000
2709, 13706664.000000, 1078.500000, 8199.000000, 8180.500000, 8190.500000
2710, 13706824.000000, 1104.250000, 8197.500000, 8180.000000, 8194.500000
2711, 13706984.000000, 1236.000000, 8194.000000, 8179.500000, 8193.500000
2712, 13707144.000000, 1534.375000, 8194.500000, 8178.500000, 8193.000000
2713, 13707304.000000, 1952.250000, 8200.000000, 8182.000000, 8198.500000
2714, 13707464.000000, 2380.375000, 8204.000000, 8189.500000, 8215.500000
2715, 13707624.000000, 2690.625000, 8206.500000, 8193.000000, 8223.500000
2716, 13707784.000000, 2846.250000, 8222.000000, 8199.000000, 8242.000000
2717, 13707944.000000, 2850.000000, 8224.000000, 8196.500000, 8228.000000
2718, 13708104.000000, 2767.125000, 8206.000000, 8172.000000, 8192.000000
2719, 13708264.000000, 2635.500000, 8203.500000, 8174.000000, 8188.000000
2720, 13708424.000000, 2465.875000, 8207.000000, 8174.500000, 8191.500000
2721, 13708584.000000, 2280.375000, 8196.500000, 8180.500000, 8190.500000
2722, 13708744.000000, 2116.375000, 8385.000000, 8219.000000, 8311.500000
2723, 13708904.000000, 2008.000000, 8269.000000, 8151.000000, 8255.500000
2724, 13709064.000000, 1960.500000, 8164.500000, 8099.500000, 8126.000000
2725, 13709224.000000, 1961.500000, 8200.500000, 8181.000000, 8194.500000
2726, 13709384.000000, 1964.500000, 8207.000000, 8191.000000, 8209.000000
2727, 13709544.000000, 1942.000000, 8215.500000, 8198.000000, 8217.500000
2728, 13709704.000000, 1879.625000, 8224.500000, 8204.000000, 8228.500000
2729, 13709864.000000, 1781.500000, 8223.500000, 8208.000000, 8233.000000
2730, 13710024.000000, 1664.875000, 8237.500000, 8210.000000, 8239.500000
2731, 13710184.000000, 1543.625000, 8255.500000, 8213.500000, 8247.500000
2732, 13710344.000000, 1434.000000, 8272.500000, 8218.500000, 8253.500000
2733, 13710504.000000, 1340.750000, 8287.500000, 8218.000000, 8262.500000
2734, 13710664.000000, 1265.875000, 8306.000000, 8220.000000, 8272.000000
2735, 13710824.000000, 1208.500000, 8301.500000, 8221.500000, 8276.500000
2736, 13710984.000000, 1167.500000, 8281.000000, 8224.500000, 8275.000000
2737, 13711144.000000, 1143.625000, 8246.500000, 8233.500000, 8278.000000
2738, 13711304.000000, 1135.750000, 8212.500000, 8234.500000, 8272.000000
2739, 13711464.000000, 1133.000000, 8203.000000, 8231.500000, 8263.500000
2740, 13711624.000000, 1128.500000, 8202.000000, 8228.500000, 8258.500000
2741, 13711784.000000, 1114.000000, 8204.000000, 8222.500000, 8251.500000
2742, 13711944.000000, 1084.000000, 8209.500000, 8212.500000, 8245.000000
2743, 13712104.000000, 1039.500000, 8205.000000, 8212.000000, 8240.000000
2744, 13712264.000000, 985.250000, 8206.500000, 8209.000000, 8238.000000
2745, 13712424.000000, 933.125000, 8205.500000, 8208.000000, 8234.000000
2746, 13712584.000000, 889.250000, 8203.000000, 8205.000000, 8231.500000
2747, 13712744.000000, 869.000000, 8202.000000, 8201.000000, 8226.500000
2748, 13712904.000000, 913.625000, 8207.500000, 8203.500000, 8234.000000
2749, 13713064.000000, 1099.500000, 8209.000000, 8203.500000, 8229.500000
2750, 13713224.000000, 1437.750000, 8210.000000, 8202.000000, 8235.000000
2751, 13713384.000000, 1859.000000, 8209.000000, 8201.000000, 8237.500000
2752, 13713544.000000, 2228.750000, 8227.000000, 8209.000000, 8255.500000
2753, 13713704.000000, 2485.875000, 8219.500000, 8203.000000, 8234.000000
2754, 13713864.000000, 2549.375000, 8198.000000, 8191.000000, 8206.000000
2755, 13714024.000000, 2490.125000, 8198.500000, 8186.500000, 8199.000000
2756, 13714184.000000, 2333.250000, 8198.000000, 8188.500000, 8200.500000
2757, 13714344.000000, 2101.500000, 8195.500000, 8194.500000, 8202.000000
2758, 13714504.000000, 1897.125000, 8391.500000, 8229.500000, 8329.500000
2759, 13714664.000000, 1750.500000, 8218.500000, 8158.000000, 8233.500000
2760, 13714824.000000, 1683.125000, 8156.000000, 8108.000000, 8120.000000
2761, 13714984.000000, 1708.250000, 8195.500000, 8179.500000, 8181.500000
2762, 13715144.000000, 1741.750000, 8195.500000, 8186.500000, 8187.500000
2763, 13715304.000000, 1735.750000, 8198.500000, 8191.500000, 8195.000000
2764, 13715464.000000, 1694.750000, 8211.500000, 8189.500000, 8198.500000
2765, 13715624.000000, 1622.000000, 8220.500000, 8190.500000, 8203.500000
2766, 13715784.000000, 1533.250000, 8228.500000, 8193.000000, 8212.000000
2767, 13715944.000000, 1438.250000, 8246.500000, 8196.500000, 8220.000000
2768, 13716104.000000, 1346.500000, 8263.000000, 8194.000000, 8224.500000
2769, 13716264.000000, 1259.375000, 8277.000000, 8197.500000, 8233.000000
2770, 13716424.000000, 1187.125000, 8292.000000, 8199.500000, 8239.500000
2771, 13716584.000000, 1141.875000, 8289.500000, 8197.000000, 8240.000000
2772, 13716744.000000, 1123.000000, 8264.000000, 8200.500000, 8237.500000
2773, 13716904.000000, 1128.500000, 8228.000000, 8196.500000, 8225.500000
2774, 13717064.000000, 1143.750000, 8197.000000, 8191.500000, 8208.000000
2775, 13717224.000000, 1155.875000, 8184.500000, 8186.000000, 8198.000000
2776, 13717384.000000, 1155.500000, 8185.000000, 8179.000000, 8191.000000
2777, 13717544.000000, 1138.750000, 8186.000000, 8176.500000, 8189.500000
2778, 13717704.000000, 1108.125000, 8194.500000, 8177.000000, 8194.500000
2779, 13717864.000000, 1069.375000, 8189.500000, 8175.500000, 8193.000000
2780, 13718024.000000, 1031.375000, 8195.000000, 8176.000000, 8196.000000
2781, 13718184.000000, 1000.750000, 8195.500000, 8175.000000, 8193.500000
2782, 13718344.000000, 1008.125000, 8196.000000, 8175.000000, 8190.500000
2783, 13718504.000000, 1115.750000, 8200.500000, 8178.500000, 8192.000000
2784, 13718664.000000, 1394.750000, 8203.000000, 8177.000000, 8192.000000
2785, 13718824.000000, 1806.250000, 8207.000000, 8184.000000, 8207.000000
2786, 13718984.000000, 2240.000000, 8209.000000, 8188.500000, 8218.500000
2787, 13719144.000000, 2560.500000, 8216.000000, 8187.500000, 8225.500000
2788, 13719304.000000, 2734.500000, 8226.500000, 8187.500000, 8222.500000
2789, 13719464.000000, 2767.125000, 8204.500000, 8174.500000, 8190.000000
2790, 13719624.000000, 2712.000000, 8202.000000, 8168.500000, 8180.500000
2791, 13719784.000000, 2592.750000, 8199.000000, 8168.500000, 8182.000000
2792, 13719944.000000, 2418.125000, 8199.500000, 8164.500000, 8172.500000
2793, 13720104.000000, 2223.750000, 8276.500000, 8207.000000, 8246.500000
2794, 13720264.000000, 2063.625000, 8377.500000, 8139.500000, 8262.000000
2795, 13720424.000000, 1988.625000, 8149.000000, 8060.000000, 8075.500000
2796, 13720584.000000, 1987.500000, 8187.000000, 8157.000000, 8157.500000
2797, 13720744.000000, 2024.625000, 8194.500000, 8169.000000, 8169.500000
2798, 13720904.000000, 2054.250000, 8202.500000, 8174.500000, 8179.500000
2799, 13721064.000000, 2047.375000, 8208.500000, 8176.500000, 8184.500000
2800, 13721224.000000, 1999.875000, 8218.000000, 8179.000000, 8189.500000
2801, 13721384.000000, 1929.625000, 8227.500000, 8175.000000, 8189.500000
2802, 13721544.000000, 1851.125000, 8241.500000, 8179.000000, 8198.000000
2803, 13721704.000000, 1772.000000, 8257.500000, 8181.500000, 8208.000000
2804, 13721864.000000, 1693.875000, 8277.500000, 8185.000000, 8219.000000
2805, 13722024.000000, 1614.625000, 8296.500000, 8186.000000, 8227.500000
2806, 13722184.000000, 1544.125000, 8297.000000, 8186.000000, 8230.000000
2807, 13722344.000000, 1495.625000, 8279.000000, 8188.500000, 8230.500000
2808, 13722504.000000, 1475.875000, 8241.500000, 8187.000000, 8220.000000
2809, 13722664.000000, 1480.500000, 8210.500000, 8184.500000, 8207.500000
2810, 13722824.000000, 1494.750000, 8197.000000, 8179.000000, 8195.000000
2811, 13722984.000000, 1503.625000, 8194.000000, 8177.000000, 8193.000000
2812, 13723144.000000, 1496.000000, 8193.500000, 8178.000000, 8191.000000
2813, 13723304.000000, 1469.875000, 8200.500000, 8180.000000, 8196.500000
2814, 13723464.000000, 1434.000000, 8200.000000, 8181.500000, 8199.500000
2815, 13723624.000000, 1394.625000, 8201.000000, 8182.000000, 8199.000000
2816, 13723784.000000, 1363.125000, 8199.500000, 8180.500000, 8197.500000
2817, 13723944.000000, 1371.875000, 8200.500000, 8183.000000, 8203.500000
2818, 13724104.000000, 1480.375000, 8216.000000, 8190.500000, 8225.500000
2819, 13724264.000000, 1759.375000, 8217.500000, 8191.500000, 8231.500000
2820, 13724424.000000, 2174.625000, 8220.000000, 8191.000000, 8226.500000
2821, 13724584.000000, 2620.875000, 8220.000000, 8195.500000, 8237.500000
2822, 13724744.000000, 2969.875000, 8222.500000, 8198.000000, 8243.500000
2823, 13724904.000000, 3150.875000, 8242.500000, 8203.000000, 8258.500000
2824, 13725064.000000, 3179.250000, 8227.500000, 8188.500000, 8221.000000
2825, 13725224.000000, 3117.875000, 8215.500000, 8178.500000, 8199.000000
2826, 13725384.000000, 3004.000000, 8209.500000, 8173.000000, 8193.500000
2827, 13725544.000000, 2841.125000, 8214.000000, 8174.000000, 8194.000000
2828, 13725704.000000, 2645.000000, 8217.500000, 8194.000000, 8215.000000
2829, 13725864.000000, 2453.625000, 8529.000000, 8185.000000, 8364.500000
2830, 13726024.000000, 2319.125000, 8204.500000, 8068.000000, 8146.500000
2831, 13726184.000000, 2264.750000, 8197.000000, 8142.500000, 8180.000000
2832, 13726344.000000, 2266.000000, 8210.500000, 8181.000000, 8204.500000
2833, 13726504.000000, 2283.500000, 8215.000000, 8184.500000, 8209.000000
2834, 13726664.000000, 2276.250000, 8216.500000, 8187.000000, 8212.500000
2835, 13726824.000000, 2225.125000, 8226.000000, 8187.500000, 8217.500000
2836, 13726984.000000, 2145.125000, 8235.000000, 8187.000000, 8219.000000
2837, 13727144.000000, 2045.375000, 8242.500000, 8188.500000, 8224.000000
2838, 13727304.000000, 1942.000000, 8258.000000, 8189.500000, 8231.500000
2839, 13727464.000000, 1840.375000, 8279.000000, 8194.000000, 8242.000000
2840, 13727624.000000, 1741.000000, 8294.500000, 8194.500000, 8248.000000
2841, 13727784.000000, 1643.500000, 8306.000000, 8193.500000, 8252.500000
2842, 13727944.000000, 1563.750000, 8296.500000, 8195.000000, 8254.500000
2843, 13728104.000000, 1510.000000, 8263.000000, 8193.500000, 8243.000000
2844, 13728264.000000, 1485.375000, 8226.000000, 8188.000000, 8224.500000
2845, 13728424.000000, 1478.375000, 8205.000000, 8176.500000, 8204.000000
2846, 13728584.000000, 1474.500000, 8196.000000, 8176.000000, 8199.500000
2847, 13728744.000000, 1458.750000, 8197.000000, 8176.500000, 8200.500000
2848, 13728904.000000, 1421.625000, 8201.000000, 8179.500000, 8204.500000
2849, 13729064.000000, 1373.500000, 8200.500000, 8180.500000, 8207.000000
2850, 13729224.000000, 1326.750000, 8202.000000, 8177.500000, 8203.500000
2851, 13729384.000000, 1286.250000, 8201.000000, 8175.000000, 8200.000000
2852, 13729544.000000, 1271.875000, 8196.500000, 8174.000000, 8197.000000
2853, 13729704.000000, 1351.750000, 8196.500000, 8172.000000, 8194.000000
2854, 13729864.000000, 1596.500000, 8197.500000, 8172.000000, 8194.500000
2855, 13730024.000000, 2013.750000, 8197.500000, 8174.000000, 8194.500000
2856, 13730184.000000, 2500.375000, 8197.000000, 8173.500000, 8193.500000
2857, 13730344.000000, 2917.250000, 8204.000000, 8184.500000, 8214.500000
2858, 13730504.000000, 3169.750000, 8205.500000, 8190.000000, 8223.000000
2859, 13730664.000000, 3246.125000, 8226.500000, 8194.000000, 8236.000000
2860, 13730824.000000, 3215.250000, 8211.500000, 8183.000000, 8201.000000
2861, 13730984.000000, 3125.750000, 8194.500000, 8172.500000, 8179.000000
2862, 13731144.000000, 3002.500000, 8191.500000, 8172.500000, 8177.000000
2863, 13731304.000000, 2839.000000, 8189.500000, 8172.500000, 8176.000000
2864, 13731464.000000, 2652.875000, 8191.000000, 8194.500000, 8197.000000
2865, 13731624.000000, 2489.000000, 8510.000000, 8177.500000, 8339.500000
2866, 13731784.000000, 2380.625000, 8191.000000, 8043.500000, 8102.500000
2867, 13731944.000000, 2333.750000, 8171.000000, 8146.000000, 8156.000000
2868, 13732104.000000, 2319.250000, 8179.500000, 8182.500000, 8178.500000
2869, 13732264.000000, 2295.875000, 8187.500000, 8188.000000, 8189.000000
2870, 13732424.000000, 2239.750000, 8192.000000, 8192.000000, 8194.000000
2871, 13732584.000000, 2145.750000, 8200.500000, 8192.000000, 8198.500000
2872, 13732744.000000, 2030.000000, 8208.000000, 8193.500000, 8201.500000
2873, 13732904.000000, 1910.625000, 8217.000000, 8196.000000, 8208.000000
2874, 13733064.000000, 1802.000000, 8232.000000, 8198.000000, 8216.000000
2875, 13733224.000000, 1703.625000, 8250.000000, 8201.000000, 8224.500000
2876, 13733384.000000, 1613.000000, 8270.000000, 8202.000000, 8235.000000
2877, 13733544.000000, 1535.875000, 8278.000000, 8204.000000, 8242.000000
2878, 13733704.000000, 1479.000000, 8268.500000, 8202.000000, 8240.000000
2879, 13733864.000000, 1448.000000, 8238.000000, 8199.500000, 8230.000000
2880, 13734024.000000, 1440.250000, 8201.000000, 8190.000000, 8205.000000
2881, 13734184.000000, 1446.875000, 8180.000000, 8181.500000, 8187.500000
2882, 13734344.000000, 1449.625000, 8173.500000, 8176.000000, 8179.000000
2883, 13734504.000000, 1433.125000, 8175.500000, 8176.500000, 8181.500000
2884, 13734664.000000, 1399.750000, 8176.500000, 8177.000000, 8181.500000
2885, 13734824.000000, 1355.375000, 8178.000000, 8175.500000, 8179.500000
2886, 13734984.000000, 1315.125000, 8179.000000, 8174.500000, 8178.500000
2887, 13735144.000000, 1280.500000, 8179.500000, 8172.000000, 8175.500000
2888, 13735304.000000, 1271.500000, 8177.000000, 8171.000000, 8172.000000
2889, 13735464.000000, 1348.875000, 8178.000000, 8172.000000, 8172.000000
2890, 13735624.000000, 1590.000000, 8179.500000, 8170.500000, 8172.000000
2891, 13735784.000000, 2006.125000, 8179.000000, 8168.500000, 8168.500000
2892, 13735944.000000, 2495.875000, 8178.500000, 8168.000000, 8168.000000
2893, 13736104.000000, 2909.375000, 8187.000000, 8175.500000, 8186.000000
2894, 13736264.000000, 3157.875000, 8191.000000, 8182.000000, 8198.000000
2895, 13736424.000000, 3226.875000, 8195.500000, 8183.000000, 8206.000000
2896, 13736584.000000, 3182.625000, 8204.500000, 8178.000000, 8193.500000
2897, 13736744.000000, 3082.875000, 8181.500000, 8163.000000, 8157.500000
2898, 13736904.000000, 2958.875000, 8177.000000, 8158.500000, 8151.500000
2899, 13737064.000000, 2805.125000, 8175.000000, 8159.500000, 8149.500000
2900, 13737224.000000, 2631.625000, 8172.000000, 8162.000000, 8149.000000
2901, 13737384.000000, 2473.750000, 8306.000000, 8214.000000, 8260.000000
2902, 13737544.000000, 2363.625000, 8346.000000, 8087.000000, 8206.500000
2903, 13737704.000000, 2312.500000, 8148.500000, 8072.000000, 8077.000000
2904, 13737864.000000, 2296.625000, 8166.500000, 8164.000000, 8147.500000
2905, 13738024.000000, 2280.500000, 8171.000000, 8173.000000, 8158.000000
2906, 13738184.000000, 2235.750000, 8174.500000, 8176.000000, 8163.500000
2907, 13738344.000000, 2158.500000, 8181.500000, 8175.000000, 8165.500000
2908, 13738504.000000, 2058.500000, 8189.500000, 8178.500000, 8173.000000
2909, 13738664.000000, 1948.125000, 8196.000000, 8183.000000, 8180.000000
2910, 13738824.000000, 1841.875000, 8210.000000, 8184.000000, 8186.000000
2911, 13738984.000000, 1741.250000, 8225.000000, 8187.000000, 8195.000000
2912, 13739144.000000, 1653.875000, 8244.500000, 8194.500000, 8208.500000
2913, 13739304.000000, 1578.750000, 8258.500000, 8202.500000, 8224.000000
2914, 13739464.000000, 1527.125000, 8260.500000, 8207.500000, 8233.000000
2915, 13739624.000000, 1496.000000, 8240.000000, 8207.000000, 8228.000000
2916, 13739784.000000, 1486.875000, 8200.500000, 8199.000000, 8206.000000
2917, 13739944.000000, 1485.000000, 8175.000000, 8190.500000, 8187.500000
2918, 13740104.000000, 1479.250000, 8165.000000, 8183.000000, 8176.000000
2919, 13740264.000000, 1459.125000, 8162.000000, 8182.500000, 8174.000000
2920, 13740424.000000, 1420.500000, 8164.000000, 8178.500000, 8169.500000
2921, 13740584.000000, 1367.625000, 8165.500000, 8180.000000, 8171.500000
2922, 13740744.000000, 1312.250000, 8168.000000, 8178.000000, 8171.000000
2923, 13740904.000000, 1259.500000, 8168.000000, 8177.000000, 8168.500000
2924, 13741064.000000, 1218.125000, 8168.000000, 8172.000000, 8164.000000
2925, 13741224.000000, 1221.750000, 8165.000000, 8172.000000, 8161.000000
2926, 13741384.000000, 1341.000000, 8165.000000, 8172.500000, 8161.500000
2927, 13741544.000000, 1639.375000, 8166.500000, 8172.500000, 8161.000000
2928, 13741704.000000, 2085.375000, 8167.000000, 8175.000000, 8162.000000
2929, 13741864.000000, 2553.500000, 8168.000000, 8176.000000, 8163.500000
2930, 13742024.000000, 2915.625000, 8176.000000, 8185.500000, 8185.500000
2931, 13742184.000000, 3098.250000, 8177.500000, 8186.500000, 8188.000000
2932, 13742344.000000, 3131.625000, 8187.500000, 8191.000000, 8200.000000
2933, 13742504.000000, 3063.500000, 8190.500000, 8183.000000, 8183.000000
2934, 13742664.000000, 2954.875000, 8170.000000, 8171.000000, 8154.000000
2935, 13742824.000000, 2821.125000, 8165.500000, 8168.500000, 8148.000000
2936, 13742984.000000, 2660.750000, 8163.000000, 8170.000000, 8148.000000
2937, 13743144.000000, 2499.250000, 8156.000000, 8176.500000, 8149.500000
2938, 13743304.000000, 2366.000000, 8346.000000, 8226.500000, 8286.500000
2939, 13743464.000000, 2286.250000, 8285.000000, 8096.000000, 8190.000000
2940, 13743624.000000, 2254.250000, 8143.000000, 8115.000000, 8111.500000
2941, 13743784.000000, 2239.625000, 8155.000000, 8190.500000, 8163.500000
2942, 13743944.000000, 2202.875000, 8160.000000, 8201.500000, 8177.500000
2943, 13744104.000000, 2125.625000, 8166.000000, 8206.500000, 8186.500000
2944, 13744264.000000, 2009.500000, 8173.500000, 8214.500000, 8198.500000
2945, 13744424.000000, 1878.500000, 8181.000000, 8219.000000, 8207.000000
2946, 13744584.000000, 1750.000000, 8190.000000, 8223.000000, 8213.000000
2947, 13744744.000000, 1636.125000, 8201.500000, 8228.000000, 8222.500000
2948, 13744904.000000, 1538.750000, 8218.000000, 8234.000000, 8234.500000
2949, 13745064.000000, 1462.125000, 8238.000000, 8242.000000, 8249.500000
2950, 13745224.000000, 1402.500000, 8251.500000, 8247.000000, 8259.500000
2951, 13745384.000000, 1359.250000, 8250.500000, 8250.000000, 8264.000000
2952, 13745544.000000, 1337.625000, 8224.500000, 8254.000000, 8260.000000
2953, 13745704.000000, 1334.000000, 8188.500000, 8251.000000, 8247.000000
2954, 13745864.000000, 1339.375000, 8161.000000, 8245.500000, 8230.000000
2955, 13746024.000000, 1340.750000, 8148.500000, 8244.000000, 8224.000000
2956, 13746184.000000, 1328.875000, 8147.000000, 8246.500000, 8225.500000
2957, 13746344.000000, 1299.625000, 8148.000000, 8247.000000, 8227.000000
2958, 13746504.000000, 1259.000000, 8149.500000, 8251.500000, 8231.500000
2959, 13746664.000000, 1221.875000, 8153.500000, 8253.500000, 8233.500000
2960, 13746824.000000, 1197.000000, 8150.000000, 8255.500000, 8233.000000
2961, 13746984.000000, 1185.000000, 8146.500000, 8255.500000, 8231.500000
2962, 13747144.000000, 1205.250000, 8145.000000, 8257.500000, 8232.500000
2963, 13747304.000000, 1323.000000, 8143.000000, 8261.500000, 8234.500000
2964, 13747464.000000, 1585.875000, 8142.000000, 8261.500000, 8235.500000
2965, 13747624.000000, 1998.875000, 8140.500000, 8265.000000, 8237.000000
2966, 13747784.000000, 2438.875000, 8138.500000, 8267.000000, 8238.500000
2967, 13747944.000000, 2788.625000, 8145.500000, 8275.500000, 8254.000000
2968, 13748104.000000, 2969.000000, 8145.000000, 8281.500000, 8263.500000
2969, 13748264.000000, 2994.625000, 8149.500000, 8285.000000, 8270.000000
2970, 13748424.000000, 2919.375000, 8163.500000, 8285.500000, 8270.000000
2971, 13748584.000000, 2789.125000, 8137.000000, 8272.000000, 8236.500000
2972, 13748744.000000, 2625.750000, 8131.500000, 8267.000000, 8228.000000
2973, 13748904.000000, 2433.625000, 8131.500000, 8266.000000, 8226.000000
2974, 13749064.000000, 2245.875000, 8137.500000, 8267.000000, 8228.000000
2975, 13749224.000000, 2104.875000, 8221.500000, 8308.000000, 8301.000000
2976, 13749384.000000, 2031.250000, 8331.500000, 8232.000000, 8320.000000
2977, 13749544.000000, 2012.375000, 8098.000000, 8161.000000, 8136.500000
2978, 13749704.000000, 2015.000000, 8122.000000, 8253.000000, 8205.000000
