2106, 22853832.000000, 2944.625000, 8153.000000, 8188.000000, 8167.000000
2107, 22853992.000000, 2810.000000, 8162.000000, 8194.000000, 8177.000000
2108, 22854152.000000, 2703.625000, 8168.000000, 8194.500000, 8177.500000
2109, 22854312.000000, 2620.375000, 8175.000000, 8196.500000, 8185.500000
2110, 22854472.000000, 2537.625000, 8185.000000, 8198.000000, 8190.500000
2111, 22854632.000000, 2446.000000, 8194.000000, 8201.000000, 8197.500000
2112, 22854792.000000, 2334.000000, 8210.000000, 8203.000000, 8205.000000
2113, 22854952.000000, 2208.250000, 8236.000000, 8203.000000, 8214.500000
2114, 22855112.000000, 2074.250000, 8266.500000, 8204.000000, 8227.000000
2115, 22855272.000000, 1941.500000, 8282.500000, 8204.500000, 8234.000000
2116, 22855432.000000, 1812.875000, 8276.500000, 8207.000000, 8237.500000
2117, 22855592.000000, 1694.500000, 8238.000000, 8206.500000, 8223.500000
2118, 22855752.000000, 1589.000000, 8193.500000, 8204.500000, 8207.500000
2119, 22855912.000000, 1494.500000, 8165.000000, 8201.000000, 8192.500000
2120, 22856072.000000, 1403.750000, 8152.500000, 8195.500000, 8182.500000
2121, 22856232.000000, 1322.000000, 8152.000000, 8195.500000, 8182.000000
2122, 22856392.000000, 1242.500000, 8156.000000, 8196.500000, 8186.000000
2123, 22856552.000000, 1156.250000, 8156.500000, 8195.000000, 8182.500000
2124, 22856712.000000, 1067.375000, 8160.000000, 8194.500000, 8182.500000
2125, 22856872.000000, 991.625000, 8163.500000, 8190.500000, 8179.000000
2126, 22857032.000000, 915.000000, 8161.000000, 8191.000000, 8178.000000
2127, 22857192.000000, 892.750000, 8160.500000, 8190.000000, 8175.500000
2128, 22857352.000000, 1037.250000, 8162.500000, 8189.500000, 8177.000000
2129, 22857512.000000, 1358.625000, 8159.000000, 8186.000000, 8169.000000
2130, 22857672.000000, 1788.750000, 8164.000000, 8188.500000, 8178.000000
2131, 22857832.000000, 2227.500000, 8166.500000, 8196.500000, 8193.000000
2132, 22857992.000000, 2572.500000, 8174.000000, 8198.500000, 8200.500000
2133, 22858152.000000, 2798.125000, 8191.500000, 8199.000000, 8206.500000
2134, 22858312.000000, 2919.750000, 8174.500000, 8185.500000, 8173.000000
2135, 22858472.000000, 2972.500000, 8162.500000, 8181.000000, 8159.500000
2136, 22858632.000000, 2977.625000, 8163.000000, 8179.500000, 8157.500000
2137, 22858792.000000, 2930.125000, 8164.000000, 8180.500000, 8159.500000
2138, 22858952.000000, 2836.125000, 8173.500000, 8207.000000, 8188.000000
2139, 22859112.000000, 2712.500000, 8522.500000, 8132.500000, 8275.000000
2140, 22859272.000000, 2582.000000, 8135.500000, 8082.500000, 8100.000000
2141, 22859432.000000, 2468.750000, 8145.000000, 8163.000000, 8146.000000
2142, 22859592.000000, 2378.375000, 8152.500000, 8188.000000, 8161.000000
2143, 22859752.000000, 2316.500000, 8159.000000, 8190.000000, 8167.000000
2144, 22859912.000000, 2260.500000, 8163.000000, 8194.000000, 8171.000000
2145, 22860072.000000, 2196.375000, 8173.500000, 8194.500000, 8176.500000
2146, 22860232.000000, 2123.000000, 8182.500000, 8198.500000, 8186.500000
2147, 22860392.000000, 2035.625000, 8193.500000, 8201.000000, 8192.500000
2148, 22860552.000000, 1928.125000, 8207.000000, 8202.000000, 8198.000000
2149, 22860712.000000, 1812.250000, 8235.000000, 8204.000000, 8211.500000
2150, 22860872.000000, 1691.875000, 8258.500000, 8209.000000, 8226.000000
2151, 22861032.000000, 1573.250000, 8280.000000, 8208.000000, 8232.500000
2152, 22861192.000000, 1462.750000, 8273.000000, 8207.500000, 8232.500000
2153, 22861352.000000, 1360.000000, 8240.500000, 8207.000000, 8221.500000
2154, 22861512.000000, 1263.500000, 8191.000000, 8204.500000, 8200.000000
2155, 22861672.000000, 1178.000000, 8161.000000, 8199.000000, 8185.500000
2156, 22861832.000000, 1101.375000, 8153.000000, 8197.500000, 8180.500000
2157, 22861992.000000, 1028.875000, 8154.000000, 8198.500000, 8180.500000
2158, 22862152.000000, 951.750000, 8157.500000, 8196.500000, 8182.000000
2159, 22862312.000000, 865.500000, 8164.000000, 8196.000000, 8184.500000
2160, 22862472.000000, 774.625000, 8163.000000, 8195.500000, 8182.500000
2161, 22862632.000000, 698.250000, 8162.500000, 8196.000000, 8182.500000
2162, 22862792.000000, 683.250000, 8163.500000, 8195.000000, 8181.500000
2163, 22862952.000000, 818.375000, 8165.000000, 8192.500000, 8179.500000
2164, 22863112.000000, 1126.750000, 8161.000000, 8191.000000, 8172.000000
2165, 22863272.000000, 1571.125000, 8163.000000, 8192.000000, 8174.000000
2166, 22863432.000000, 2033.125000, 8166.000000, 8192.500000, 8177.500000
2167, 22863592.000000, 2424.875000, 8175.500000, 8198.500000, 8194.000000
2168, 22863752.000000, 2712.375000, 8170.500000, 8202.500000, 8197.500000
2169, 22863912.000000, 2902.875000, 8195.500000, 8203.500000, 8215.000000
2170, 22864072.000000, 3021.250000, 8193.000000, 8202.000000, 8202.000000
2171, 22864232.000000, 3088.875000, 8169.500000, 8191.000000, 8173.000000
2172, 22864392.000000, 3115.750000, 8169.500000, 8185.000000, 8164.500000
2173, 22864552.000000, 3093.375000, 8172.500000, 8186.000000, 8166.500000
2174, 22864712.000000, 3023.000000, 8164.500000, 8190.500000, 8167.500000
2175, 22864872.000000, 2914.000000, 8337.000000, 8214.000000, 8260.500000
2176, 22865032.000000, 2791.250000, 8312.500000, 8142.000000, 8228.500000
2177, 22865192.000000, 2685.875000, 8129.500000, 8111.500000, 8099.500000
2178, 22865352.000000, 2608.125000, 8155.500000, 8189.000000, 8162.000000
2179, 22865512.000000, 2557.375000, 8165.000000, 8194.500000, 8171.500000
2180, 22865672.000000, 2523.500000, 8170.500000, 8200.500000, 8180.500000
2181, 22865832.000000, 2491.250000, 8177.000000, 8201.000000, 8185.000000
2182, 22865992.000000, 2451.625000, 8185.000000, 8204.000000, 8190.500000
2183, 22866152.000000, 2401.250000, 8195.500000, 8203.000000, 8193.000000
2184, 22866312.000000, 2340.500000, 8203.500000, 8207.000000, 8201.000000
2185, 22866472.000000, 2268.250000, 8227.500000, 8209.000000, 8212.000000
2186, 22866632.000000, 2194.000000, 8254.000000, 8210.500000, 8223.000000
2187, 22866792.000000, 2113.000000, 8278.500000, 8213.000000, 8236.500000
2188, 22866952.000000, 2033.875000, 8279.500000, 8211.500000, 8235.000000
2189, 22867112.000000, 1955.250000, 8271.000000, 8209.500000, 8234.000000
2190, 22867272.000000, 1882.375000, 8226.000000, 8215.000000, 8226.000000
2191, 22867432.000000, 1812.500000, 8182.000000, 8211.000000, 8205.500000
2192, 22867592.000000, 1743.875000, 8165.000000, 8205.000000, 8192.500000
2193, 22867752.000000, 1680.750000, 8157.000000, 8201.000000, 8185.000000
2194, 22867912.000000, 1610.000000, 8165.500000, 8201.500000, 8191.000000
2195, 22868072.000000, 1526.750000, 8164.500000, 8201.500000, 8189.500000
2196, 22868232.000000, 1442.375000, 8167.000000, 8203.000000, 8192.000000
2197, 22868392.000000, 1353.375000, 8169.000000, 8201.500000, 8191.500000
2198, 22868552.000000, 1285.625000, 8171.000000, 8199.000000, 8190.000000
2199, 22868712.000000, 1292.375000, 8168.500000, 8196.500000, 8185.000000
2200, 22868872.000000, 1447.000000, 8168.000000, 8196.000000, 8185.000000
2201, 22869032.000000, 1765.250000, 8167.500000, 8195.000000, 8181.000000
2202, 22869192.000000, 2185.625000, 8171.500000, 8194.000000, 8183.500000
2203, 22869352.000000, 2596.375000, 8174.500000, 8196.500000, 8189.000000
2204, 22869512.000000, 2920.125000, 8176.500000, 8203.000000, 8201.000000
2205, 22869672.000000, 3125.625000, 8188.000000, 8205.500000, 8214.000000
2206, 22869832.000000, 3238.125000, 8195.500000, 8205.000000, 8209.500000
2207, 22869992.000000, 3284.875000, 8178.000000, 8193.500000, 8182.500000
2208, 22870152.000000, 3286.875000, 8171.500000, 8187.000000, 8170.500000
2209, 22870312.000000, 3247.375000, 8171.500000, 8185.500000, 8168.000000
2210, 22870472.000000, 3162.375000, 8170.500000, 8187.000000, 8169.000000
2211, 22870632.000000, 3039.250000, 8234.000000, 8220.000000, 8225.000000
2212, 22870792.000000, 2892.375000, 8445.000000, 8140.000000, 8258.500000
2213, 22870952.000000, 2741.500000, 8132.000000, 8095.000000, 8099.000000
2214, 22871112.000000, 2604.125000, 8154.000000, 8179.500000, 8158.500000
2215, 22871272.000000, 2495.000000, 8159.000000, 8191.500000, 8168.500000
2216, 22871432.000000, 2407.125000, 8163.000000, 8198.500000, 8177.500000
2217, 22871592.000000, 2329.000000, 8170.000000, 8198.500000, 8177.000000
2218, 22871752.000000, 2245.375000, 8176.500000, 8199.500000, 8183.500000
2219, 22871912.000000, 2146.750000, 8187.500000, 8199.500000, 8188.000000
2220, 22872072.000000, 2040.125000, 8197.000000, 8202.500000, 8195.000000
2221, 22872232.000000, 1924.875000, 8216.000000, 8208.000000, 8210.000000
2222, 22872392.000000, 1805.875000, 8240.500000, 8207.500000, 8217.500000
2223, 22872552.000000, 1688.875000, 8268.500000, 8210.000000, 8230.000000
2224, 22872712.000000, 1577.750000, 8282.000000, 8211.500000, 8239.500000
2225, 22872872.000000, 1478.250000, 8276.000000, 8209.000000, 8237.000000
2226, 22873032.000000, 1388.875000, 8229.500000, 8212.000000, 8226.000000
2227, 22873192.000000, 1313.125000, 8185.000000, 8207.500000, 8205.000000
2228, 22873352.000000, 1249.125000, 8160.000000, 8200.500000, 8186.500000
2229, 22873512.000000, 1194.250000, 8156.000000, 8198.000000, 8183.000000
2230, 22873672.000000, 1139.250000, 8154.000000, 8199.000000, 8183.000000
2231, 22873832.000000, 1083.625000, 8156.500000, 8198.500000, 8184.000000
2232, 22873992.000000, 1028.125000, 8162.500000, 8197.000000, 8183.500000
2233, 22874152.000000, 969.000000, 8165.500000, 8194.500000, 8183.000000
2234, 22874312.000000, 918.250000, 8166.500000, 8190.500000, 8176.000000
2235, 22874472.000000, 912.125000, 8165.500000, 8191.000000, 8178.500000
2236, 22874632.000000, 1012.625000, 8162.000000, 8192.000000, 8179.000000
2237, 22874792.000000, 1280.500000, 8165.000000, 8190.000000, 8177.000000
2238, 22874952.000000, 1670.625000, 8164.000000, 8189.500000, 8174.500000
2239, 22875112.000000, 2094.875000, 8170.000000, 8187.500000, 8177.000000
2240, 22875272.000000, 2451.625000, 8173.500000, 8195.500000, 8191.500000
2241, 22875432.000000, 2700.375000, 8181.500000, 8200.500000, 8202.500000
2242, 22875592.000000, 2845.625000, 8196.000000, 8207.000000, 8223.500000
2243, 22875752.000000, 2913.625000, 8190.000000, 8194.500000, 8193.000000
2244, 22875912.000000, 2930.250000, 8169.500000, 8185.500000, 8168.000000
2245, 22876072.000000, 2900.125000, 8166.000000, 8182.500000, 8165.500000
2246, 22876232.000000, 2827.875000, 8170.000000, 8184.500000, 8167.500000
2247, 22876392.000000, 2711.875000, 8164.000000, 8196.500000, 8176.000000
2248, 22876552.000000, 2564.250000, 8476.000000, 8178.500000, 8290.000000
2249, 22876712.000000, 2411.125000, 8170.000000, 8128.000000, 8165.500000
2250, 22876872.000000, 2272.875000, 8136.000000, 8128.000000, 8118.000000
2251, 22877032.000000, 2161.000000, 8167.000000, 8186.000000, 8167.000000
2252, 22877192.000000, 2074.375000, 8168.000000, 8193.500000, 8175.000000
2253, 22877352.000000, 2008.000000, 8178.000000, 8197.500000, 8183.500000
2254, 22877512.000000, 1949.125000, 8183.500000, 8194.500000, 8183.000000
2255, 22877672.000000, 1894.250000, 8193.500000, 8198.000000, 8192.500000
2256, 22877832.000000, 1832.750000, 8204.500000, 8201.500000, 8196.000000
2257, 22877992.000000, 1764.875000, 8220.500000, 8201.000000, 8199.500000
2258, 22878152.000000, 1691.500000, 8241.000000, 8201.500000, 8209.000000
2259, 22878312.000000, 1617.625000, 8267.000000, 8201.500000, 8218.500000
2260, 22878472.000000, 1538.250000, 8290.000000, 8202.500000, 8228.000000
2261, 22878632.000000, 1463.250000, 8298.000000, 8200.500000, 8232.000000
2262, 22878792.000000, 1393.625000, 8263.500000, 8201.000000, 8222.500000
2263, 22878952.000000, 1328.375000, 8220.500000, 8203.000000, 8210.000000
2264, 22879112.000000, 1266.125000, 8180.500000, 8201.000000, 8194.000000
2265, 22879272.000000, 1213.125000, 8163.000000, 8192.000000, 8181.000000
2266, 22879432.000000, 1165.750000, 8162.500000, 8188.500000, 8178.000000
2267, 22879592.000000, 1118.125000, 8164.500000, 8189.500000, 8183.500000
2268, 22879752.000000, 1072.500000, 8163.000000, 8184.500000, 8177.500000
2269, 22879912.000000, 1022.500000, 8168.000000, 8183.500000, 8180.500000
2270, 22880072.000000, 970.500000, 8167.500000, 8183.500000, 8178.500000
2271, 22880232.000000, 928.750000, 8168.000000, 8184.500000, 8182.000000
2272, 22880392.000000, 954.875000, 8167.000000, 8182.000000, 8175.000000
2273, 22880552.000000, 1120.125000, 8166.000000, 8181.000000, 8173.000000
2274, 22880712.000000, 1454.125000, 8167.000000, 8180.000000, 8173.000000
2275, 22880872.000000, 1899.250000, 8162.000000, 8185.000000, 8177.500000
2276, 22881032.000000, 2347.750000, 8175.500000, 8191.000000, 8194.000000
2277, 22881192.000000, 2706.125000, 8178.500000, 8194.000000, 8201.000000
2278, 22881352.000000, 2947.375000, 8197.000000, 8199.000000, 8220.000000
2279, 22881512.000000, 3085.625000, 8184.000000, 8189.000000, 8189.000000
2280, 22881672.000000, 3155.000000, 8168.500000, 8178.000000, 8165.500000
2281, 22881832.000000, 3179.625000, 8164.500000, 8177.500000, 8163.500000
2282, 22881992.000000, 3163.750000, 8164.500000, 8182.000000, 8171.000000
2283, 22882152.000000, 3104.875000, 8166.500000, 8196.500000, 8183.500000
2284, 22882312.000000, 3014.375000, 8517.000000, 8157.500000, 8297.000000
2285, 22882472.000000, 2901.250000, 8147.500000, 8099.500000, 8135.000000
2286, 22882632.000000, 2786.625000, 8135.000000, 8141.000000, 8133.000000
2287, 22882792.000000, 2689.750000, 8155.000000, 8184.500000, 8165.500000
2288, 22882952.000000, 2615.000000, 8163.000000, 8186.500000, 8169.500000
2289, 22883112.000000, 2561.750000, 8170.000000, 8189.000000, 8176.000000
2290, 22883272.000000, 2515.500000, 8177.000000, 8191.500000, 8183.000000
2291, 22883432.000000, 2458.125000, 8180.000000, 8197.000000, 8190.500000
2292, 22883592.000000, 2379.500000, 8194.500000, 8197.000000, 8194.000000
2293, 22883752.000000, 2285.625000, 8214.000000, 8197.000000, 8202.500000
2294, 22883912.000000, 2179.375000, 8231.000000, 8199.500000, 8209.500000
2295, 22884072.000000, 2065.250000, 8263.500000, 8200.000000, 8223.000000
2296, 22884232.000000, 1949.250000, 8277.500000, 8204.000000, 8232.000000
2297, 22884392.000000, 1835.875000, 8287.000000, 8200.000000, 8236.500000
2298, 22884552.000000, 1728.750000, 8254.500000, 8199.000000, 8225.500000
2299, 22884712.000000, 1624.375000, 8203.000000, 8198.500000, 8206.000000
2300, 22884872.000000, 1525.375000, 8170.500000, 8195.000000, 8193.000000
2301, 22885032.000000, 1435.500000, 8160.000000, 8192.000000, 8184.000000
2302, 22885192.000000, 1350.875000, 8152.500000, 8192.000000, 8181.000000
2303, 22885352.000000, 1270.000000, 8159.000000, 8190.500000, 8181.500000
2304, 22885512.000000, 1190.000000, 8161.000000, 8192.000000, 8185.000000
2305, 22885672.000000, 1109.375000, 8164.000000, 8192.500000, 8187.000000
2306, 22885832.000000, 1031.250000, 8167.500000, 8189.500000, 8185.500000
2307, 22885992.000000, 968.750000, 8166.500000, 8189.500000, 8182.000000
2308, 22886152.000000, 967.375000, 8165.000000, 8188.000000, 8179.500000
2309, 22886312.000000, 1102.125000, 8168.500000, 8184.000000, 8174.500000
2310, 22886472.000000, 1386.875000, 8169.500000, 8187.000000, 8177.500000
2311, 22886632.000000, 1788.875000, 8167.000000, 8190.000000, 8179.000000
2312, 22886792.000000, 2206.375000, 8178.000000, 8193.500000, 8188.500000
2313, 22886952.000000, 2557.625000, 8183.000000, 8198.500000, 8199.500000
2314, 22887112.000000, 2806.125000, 8184.500000, 8196.000000, 8200.000000
2315, 22887272.000000, 2953.500000, 8197.500000, 8200.500000, 8207.500000
2316, 22887432.000000, 3033.250000, 8182.000000, 8186.500000, 8175.000000
2317, 22887592.000000, 3063.125000, 8173.500000, 8183.500000, 8168.500000
2318, 22887752.000000, 3050.750000, 8172.000000, 8182.500000, 8163.500000
2319, 22887912.000000, 2990.375000, 8173.000000, 8180.000000, 8163.500000
2320, 22888072.000000, 2882.625000, 8239.000000, 8219.000000, 8231.000000
2321, 22888232.000000, 2745.750000, 8435.000000, 8127.500000, 8250.500000
2322, 22888392.000000, 2601.000000, 8127.000000, 8080.500000, 8085.500000
2323, 22888552.000000, 2469.375000, 8150.500000, 8173.000000, 8158.500000
2324, 22888712.000000, 2358.125000, 8159.000000, 8185.500000, 8169.000000
2325, 22888872.000000, 2265.125000, 8165.500000, 8191.500000, 8178.000000
2326, 22889032.000000, 2181.000000, 8170.000000, 8192.500000, 8181.500000
2327, 22889192.000000, 2100.375000, 8178.500000, 8194.000000, 8187.500000
2328, 22889352.000000, 2007.000000, 8189.500000, 8197.000000, 8196.500000
2329, 22889512.000000, 1905.750000, 8202.500000, 8199.500000, 8204.500000
2330, 22889672.000000, 1795.375000, 8218.500000, 8201.000000, 8210.500000
2331, 22889832.000000, 1684.125000, 8246.000000, 8203.000000, 8223.000000
2332, 22889992.000000, 1580.125000, 8271.500000, 8207.000000, 8238.000000
2333, 22890152.000000, 1487.125000, 8287.000000, 8204.000000, 8242.500000
2334, 22890312.000000, 1400.000000, 8276.500000, 8202.500000, 8238.500000
2335, 22890472.000000, 1320.625000, 8235.000000, 8206.500000, 8229.500000
2336, 22890632.000000, 1248.750000, 8189.500000, 8200.000000, 8207.000000
2337, 22890792.000000, 1186.000000, 8168.500000, 8195.500000, 8194.000000
2338, 22890952.000000, 1127.250000, 8158.500000, 8193.500000, 8186.500000
2339, 22891112.000000, 1072.250000, 8156.000000, 8194.000000, 8187.500000
2340, 22891272.000000, 1021.250000, 8163.500000, 8195.000000, 8190.500000
2341, 22891432.000000, 966.250000, 8164.500000, 8196.500000, 8193.500000
2342, 22891592.000000, 908.000000, 8166.500000, 8195.500000, 8193.500000
2343, 22891752.000000, 853.125000, 8169.000000, 8191.500000, 8189.500000
2344, 22891912.000000, 838.750000, 8162.500000, 8189.000000, 8182.500000
2345, 22892072.000000, 924.750000, 8164.000000, 8190.500000, 8183.000000
2346, 22892232.000000, 1159.750000, 8160.500000, 8190.500000, 8182.500000
2347, 22892392.000000, 1535.375000, 8164.500000, 8187.500000, 8179.500000
2348, 22892552.000000, 1965.000000, 8166.500000, 8188.500000, 8183.000000
2349, 22892712.000000, 2364.125000, 8172.500000, 8194.000000, 8197.000000
2350, 22892872.000000, 2680.500000, 8177.000000, 8197.500000, 8204.500000
2351, 22893032.000000, 2905.500000, 8200.000000, 8202.500000, 8221.500000
2352, 22893192.000000, 3054.750000, 8181.500000, 8188.500000, 8184.500000
2353, 22893352.000000, 3148.875000, 8163.000000, 8179.000000, 8165.000000
2354, 22893512.000000, 3192.500000, 8165.500000, 8175.500000, 8161.000000
2355, 22893672.000000, 3183.500000, 8167.000000, 8179.500000, 8166.000000
2356, 22893832.000000, 3125.375000, 8166.000000, 8202.000000, 8186.000000
2357, 22893992.000000, 3022.250000, 8526.500000, 8145.000000, 8289.000000
2358, 22894152.000000, 2896.625000, 8152.000000, 8104.500000, 8139.000000
2359, 22894312.000000, 2774.875000, 8147.000000, 8154.000000, 8146.500000
2360, 22894472.000000, 2678.000000, 8154.000000, 8184.500000, 8164.500000
2361, 22894632.000000, 2605.375000, 8166.000000, 8188.500000, 8172.500000
2362, 22894792.000000, 2552.875000, 8168.000000, 8191.500000, 8177.000000
2363, 22894952.000000, 2510.375000, 8176.000000, 8192.000000, 8180.000000
2364, 22895112.000000, 2462.250000, 8189.000000, 8191.500000, 8187.000000
2365, 22895272.000000, 2403.750000, 8196.000000, 8196.500000, 8196.000000
2366, 22895432.000000, 2328.625000, 8213.000000, 8198.000000, 8203.000000
2367, 22895592.000000, 2236.625000, 8233.500000, 8199.500000, 8211.500000
2368, 22895752.000000, 2131.625000, 8263.000000, 8201.500000, 8225.000000
2369, 22895912.000000, 2022.500000, 8283.500000, 8202.500000, 8235.500000
2370, 22896072.000000, 1912.625000, 8283.000000, 8205.000000, 8241.500000
2371, 22896232.000000, 1810.625000, 8250.000000, 8208.000000, 8232.500000
2372, 22896392.000000, 1717.625000, 8200.000000, 8204.500000, 8210.000000
2373, 22896552.000000, 1636.875000, 8170.500000, 8198.000000, 8193.000000
2374, 22896712.000000, 1573.250000, 8155.500000, 8195.500000, 8183.500000
2375, 22896872.000000, 1522.750000, 8157.000000, 8195.000000, 8186.000000
2376, 22897032.000000, 1482.250000, 8157.000000, 8196.500000, 8186.500000
2377, 22897192.000000, 1445.625000, 8160.500000, 8196.500000, 8188.000000
2378, 22897352.000000, 1406.000000, 8163.000000, 8193.500000, 8184.500000
2379, 22897512.000000, 1366.000000, 8163.000000, 8191.500000, 8182.500000
2380, 22897672.000000, 1335.125000, 8164.000000, 8190.000000, 8179.000000
2381, 22897832.000000, 1364.875000, 8164.000000, 8190.000000, 8181.000000
2382, 22897992.000000, 1523.500000, 8160.000000, 8190.500000, 8178.500000
2383, 22898152.000000, 1842.625000, 8162.500000, 8188.500000, 8177.000000
2384, 22898312.000000, 2272.750000, 8165.000000, 8190.500000, 8183.000000
2385, 22898472.000000, 2711.500000, 8168.000000, 8195.000000, 8194.000000
2386, 22898632.000000, 3069.125000, 8179.500000, 8199.500000, 8206.500000
2387, 22898792.000000, 3303.625000, 8192.500000, 8198.500000, 8205.000000
2388, 22898952.000000, 3441.875000, 8174.500000, 8185.000000, 8174.500000
2389, 22899112.000000, 3498.125000, 8165.000000, 8182.000000, 8165.000000
2390, 22899272.000000, 3504.750000, 8163.500000, 8181.500000, 8164.000000
2391, 22899432.000000, 3464.375000, 8169.000000, 8183.000000, 8168.000000
2392, 22899592.000000, 3372.875000, 8192.000000, 8211.500000, 8202.000000
2393, 22899752.000000, 3234.250000, 8490.000000, 8131.000000, 8261.500000
2394, 22899912.000000, 3065.250000, 8133.000000, 8093.500000, 8107.000000
2395, 22900072.000000, 2893.125000, 8148.500000, 8168.500000, 8150.500000
2396, 22900232.000000, 2736.000000, 8156.500000, 8189.500000, 8167.000000
2397, 22900392.000000, 2605.625000, 8166.500000, 8192.000000, 8171.500000
2398, 22900552.000000, 2503.500000, 8171.000000, 8194.000000, 8175.000000
2399, 22900712.000000, 2419.625000, 8178.500000, 8198.000000, 8181.500000
2400, 22900872.000000, 2337.875000, 8188.000000, 8198.500000, 8187.000000
2401, 22901032.000000, 2249.625000, 8199.000000, 8201.500000, 8194.500000
2402, 22901192.000000, 2152.875000, 8212.500000, 8203.000000, 8199.000000
2403, 22901352.000000, 2049.125000, 8241.000000, 8204.000000, 8212.500000
2404, 22901512.000000, 1944.875000, 8268.500000, 8207.000000, 8225.000000
2405, 22901672.000000, 1844.000000, 8287.000000, 8207.000000, 8233.500000
2406, 22901832.000000, 1750.500000, 8282.500000, 8211.000000, 8237.000000
2407, 22901992.000000, 1662.125000, 8240.500000, 8210.500000, 8221.000000
2408, 22902152.000000, 1577.875000, 8197.000000, 8207.000000, 8201.500000
2409, 22902312.000000, 1498.625000, 8167.000000, 8201.000000, 8182.500000
2410, 22902472.000000, 1425.625000, 8160.000000, 8198.500000, 8176.500000
2411, 22902632.000000, 1355.500000, 8161.500000, 8203.500000, 8183.500000
2412, 22902792.000000, 1283.125000, 8161.500000, 8199.500000, 8180.500000
2413, 22902952.000000, 1204.000000, 8167.000000, 8198.500000, 8180.500000
2414, 22903112.000000, 1120.750000, 8165.000000, 8193.500000, 8176.500000
2415, 22903272.000000, 1037.375000, 8163.500000, 8193.500000, 8178.500000
2416, 22903432.000000, 971.875000, 8164.500000, 8190.000000, 8173.000000
2417, 22903592.000000, 967.500000, 8166.500000, 8190.500000, 8177.000000
2418, 22903752.000000, 1089.375000, 8165.500000, 8186.500000, 8170.000000
2419, 22903912.000000, 1379.375000, 8166.500000, 8185.500000, 8172.000000
2420, 22904072.000000, 1781.125000, 8166.500000, 8190.500000, 8179.000000
2421, 22904232.000000, 2193.125000, 8174.500000, 8196.500000, 8195.000000
2422, 22904392.000000, 2526.750000, 8178.000000, 8196.500000, 8200.000000
2423, 22904552.000000, 2748.375000, 8189.000000, 8195.500000, 8198.500000
2424, 22904712.000000, 2871.875000, 8172.500000, 8182.000000, 8166.500000
2425, 22904872.000000, 2925.250000, 8164.000000, 8175.500000, 8156.000000
2426, 22905032.000000, 2932.125000, 8162.000000, 8175.500000, 8155.500000
2427, 22905192.000000, 2895.250000, 8162.000000, 8179.000000, 8162.000000
2428, 22905352.000000, 2818.500000, 8205.500000, 8214.000000, 8209.500000
2429, 22905512.000000, 2695.625000, 8461.500000, 8124.000000, 8241.000000
2430, 22905672.000000, 2545.125000, 8112.500000, 8088.000000, 8086.500000
2431, 22905832.000000, 2392.750000, 8139.500000, 8169.000000, 8147.000000
2432, 22905992.000000, 2259.375000, 8156.000000, 8187.000000, 8164.000000
2433, 22906152.000000, 2162.625000, 8162.000000, 8191.500000, 8171.000000
2434, 22906312.000000, 2101.625000, 8169.000000, 8193.000000, 8176.000000
2435, 22906472.000000, 2061.250000, 8175.000000, 8195.500000, 8181.500000
2436, 22906632.000000, 2025.000000, 8179.000000, 8194.500000, 8183.000000
2437, 22906792.000000, 1982.750000, 8193.000000, 8194.500000, 8187.500000
2438, 22906952.000000, 1931.125000, 8210.500000, 8194.000000, 8196.000000
2439, 22907112.000000, 1873.000000, 8238.000000, 8193.500000, 8206.000000
2440, 22907272.000000, 1807.625000, 8265.000000, 8192.500000, 8214.500000
2441, 22907432.000000, 1736.250000, 8276.000000, 8195.000000, 8222.000000
2442, 22907592.000000, 1656.875000, 8274.500000, 8189.000000, 8219.000000
2443, 22907752.000000, 1571.125000, 8228.000000, 8194.000000, 8209.000000
2444, 22907912.000000, 1484.625000, 8183.500000, 8196.000000, 8196.000000
2445, 22908072.000000, 1400.000000, 8159.500000, 8190.500000, 8181.000000
2446, 22908232.000000, 1321.250000, 8150.000000, 8191.500000, 8179.000000
2447, 22908392.000000, 1246.875000, 8152.000000, 8189.000000, 8176.500000
2448, 22908552.000000, 1175.750000, 8153.000000, 8187.000000, 8174.500000
2449, 22908712.000000, 1111.750000, 8161.000000, 8183.500000, 8172.500000
2450, 22908872.000000, 1052.125000, 8163.500000, 8185.500000, 8180.000000
2451, 22909032.000000, 992.000000, 8164.000000, 8186.000000, 8178.500000
2452, 22909192.000000, 944.375000, 8166.000000, 8186.500000, 8178.500000
2453, 22909352.000000, 961.375000, 8160.000000, 8183.000000, 8172.000000
2454, 22909512.000000, 1110.250000, 8163.000000, 8181.500000, 8170.500000
2455, 22909672.000000, 1424.375000, 8168.000000, 8189.000000, 8186.500000
2456, 22909832.000000, 1849.375000, 8165.500000, 8195.000000, 8194.500000
2457, 22909992.000000, 2279.000000, 8189.000000, 8198.500000, 8214.500000
2458, 22910152.000000, 2628.000000, 8180.000000, 8189.500000, 8188.500000
2459, 22910312.000000, 2867.750000, 8160.000000, 8176.000000, 8159.000000
2460, 22910472.000000, 3019.250000, 8162.000000, 8177.000000, 8160.500000
2461, 22910632.000000, 3109.750000, 8161.000000, 8178.000000, 8161.000000
2462, 22910792.000000, 3166.875000, 8152.000000, 8191.000000, 8167.500000
2463, 22910952.000000, 3193.125000, 8445.500000, 8184.000000, 8290.000000
2464, 22911112.000000, 3182.125000, 8183.500000, 8107.000000, 8150.500000
2465, 22911272.000000, 3127.250000, 8125.000000, 8118.000000, 8106.000000
2466, 22911432.000000, 3041.375000, 8149.000000, 8181.500000, 8158.500000
2467, 22911592.000000, 2946.625000, 8156.500000, 8186.500000, 8166.000000
2468, 22911752.000000, 2855.125000, 8165.000000, 8186.500000, 8168.000000
2469, 22911912.000000, 2786.625000, 8171.500000, 8192.500000, 8178.000000
2470, 22912072.000000, 2735.500000, 8182.000000, 8194.000000, 8184.500000
2471, 22912232.000000, 2685.500000, 8189.500000, 8197.000000, 8190.500000
2472, 22912392.000000, 2625.625000, 8198.500000, 8197.000000, 8191.500000
2473, 22912552.000000, 2549.750000, 8223.000000, 8200.500000, 8206.000000
2474, 22912712.000000, 2456.750000, 8254.500000, 8202.500000, 8219.500000
2475, 22912872.000000, 2346.250000, 8278.000000, 8205.500000, 8231.000000
2476, 22913032.000000, 2227.375000, 8281.000000, 8204.500000, 8234.000000
2477, 22913192.000000, 2094.875000, 8257.000000, 8202.500000, 8226.000000
2478, 22913352.000000, 1964.500000, 8203.000000, 8202.500000, 8208.000000
2479, 22913512.000000, 1838.375000, 8171.500000, 8198.500000, 8193.000000
2480, 22913672.000000, 1718.125000, 8156.500000, 8193.000000, 8180.500000
2481, 22913832.000000, 1606.125000, 8153.000000, 8197.000000, 8186.000000
2482, 22913992.000000, 1506.125000, 8154.500000, 8196.000000, 8184.500000
2483, 22914152.000000, 1411.500000, 8164.500000, 8194.500000, 8187.500000
2484, 22914312.000000, 1322.875000, 8163.000000, 8196.000000, 8190.000000
2485, 22914472.000000, 1241.625000, 8171.000000, 8195.500000, 8193.000000
2486, 22914632.000000, 1167.625000, 8166.000000, 8195.500000, 8188.500000
2487, 22914792.000000, 1112.875000, 8164.500000, 8192.000000, 8183.000000
2488, 22914952.000000, 1139.125000, 8165.000000, 8191.000000, 8180.500000
2489, 22915112.000000, 1304.875000, 8167.000000, 8190.500000, 8181.500000
2490, 22915272.000000, 1627.000000, 8171.000000, 8190.500000, 8183.500000
2491, 22915432.000000, 2041.250000, 8174.000000, 8199.000000, 8198.000000
2492, 22915592.000000, 2441.875000, 8178.000000, 8201.500000, 8205.500000
2493, 22915752.000000, 2742.375000, 8195.000000, 8207.000000, 8225.000000
2494, 22915912.000000, 2936.125000, 8189.500000, 8197.500000, 8198.500000
2495, 22916072.000000, 3033.875000, 8171.500000, 8187.000000, 8173.000000
2496, 22916232.000000, 3072.625000, 8170.000000, 8185.000000, 8170.000000
2497, 22916392.000000, 3070.375000, 8171.000000, 8185.000000, 8168.000000
2498, 22916552.000000, 3031.625000, 8160.000000, 8197.500000, 8175.500000
2499, 22916712.000000, 2946.375000, 8475.500000, 8188.500000, 8303.500000
2500, 22916872.000000, 2827.000000, 8187.000000, 8105.500000, 8150.000000
2501, 22917032.000000, 2685.375000, 8141.500000, 8136.000000, 8128.500000
2502, 22917192.000000, 2547.750000, 8161.000000, 8186.500000, 8163.500000
2503, 22917352.000000, 2431.750000, 8164.500000, 8193.500000, 8170.500000
2504, 22917512.000000, 2344.500000, 8173.500000, 8194.500000, 8175.500000
2505, 22917672.000000, 2282.250000, 8177.500000, 8198.000000, 8183.500000
2506, 22917832.000000, 2231.375000, 8189.500000, 8203.000000, 8195.500000
2507, 22917992.000000, 2173.750000, 8195.000000, 8201.500000, 8195.000000
2508, 22918152.000000, 2100.750000, 8211.000000, 8203.500000, 8204.000000
2509, 22918312.000000, 2009.000000, 8231.500000, 8205.500000, 8214.500000
2510, 22918472.000000, 1902.500000, 8259.000000, 8210.500000, 8230.000000
2511, 22918632.000000, 1790.625000, 8282.500000, 8212.000000, 8244.000000
2512, 22918792.000000, 1673.125000, 8286.000000, 8209.000000, 8242.500000
2513, 22918952.000000, 1556.875000, 8262.000000, 8208.000000, 8233.000000
2514, 22919112.000000, 1448.000000, 8212.000000, 8209.500000, 8218.500000
2515, 22919272.000000, 1354.125000, 8178.000000, 8203.500000, 8201.500000
2516, 22919432.000000, 1277.750000, 8159.000000, 8201.500000, 8190.500000
2517, 22919592.000000, 1215.625000, 8160.500000, 8198.500000, 8188.000000
2518, 22919752.000000, 1165.750000, 8154.500000, 8196.500000, 8183.000000
2519, 22919912.000000, 1121.750000, 8165.000000, 8198.500000, 8189.500000
2520, 22920072.000000, 1074.625000, 8163.000000, 8197.000000, 8186.000000
2521, 22920232.000000, 1025.500000, 8166.000000, 8197.000000, 8187.000000
2522, 22920392.000000, 981.500000, 8166.000000, 8195.500000, 8184.500000
2523, 22920552.000000, 976.250000, 8169.000000, 8191.000000, 8180.000000
2524, 22920712.000000, 1065.000000, 8168.000000, 8189.000000, 8178.000000
2525, 22920872.000000, 1316.500000, 8165.000000, 8191.000000, 8178.500000
2526, 22921032.000000, 1696.375000, 8164.500000, 8196.000000, 8186.000000
2527, 22921192.000000, 2118.500000, 8172.500000, 8195.000000, 8191.500000
2528, 22921352.000000, 2486.625000, 8181.000000, 8199.000000, 8202.500000
2529, 22921512.000000, 2759.875000, 8198.000000, 8205.500000, 8218.500000
2530, 22921672.000000, 2941.750000, 8188.000000, 8197.000000, 8194.500000
2531, 22921832.000000, 3053.250000, 8167.000000, 8188.000000, 8170.500000
2532, 22921992.000000, 3116.875000, 8167.500000, 8183.000000, 8163.000000
2533, 22922152.000000, 3143.125000, 8171.500000, 8185.000000, 8167.500000
2534, 22922312.000000, 3129.875000, 8161.500000, 8199.500000, 8176.500000
2535, 22922472.000000, 3073.000000, 8481.500000, 8184.000000, 8301.000000
2536, 22922632.000000, 2973.375000, 8194.000000, 8124.500000, 8179.500000
2537, 22922792.000000, 2857.625000, 8139.500000, 8142.000000, 8134.500000
2538, 22922952.000000, 2745.000000, 8158.500000, 8188.500000, 8166.500000
2539, 22923112.000000, 2656.625000, 8160.500000, 8194.000000, 8172.500000
2540, 22923272.000000, 2591.375000, 8173.000000, 8197.000000, 8182.000000
2541, 22923432.000000, 2545.000000, 8172.500000, 8200.000000, 8184.500000
2542, 22923592.000000, 2507.875000, 8180.000000, 8200.500000, 8187.500000
2543, 22923752.000000, 2464.125000, 8190.000000, 8198.500000, 8188.500000
2544, 22923912.000000, 2412.125000, 8208.000000, 8203.500000, 8196.500000
2545, 22924072.000000, 2350.750000, 8231.500000, 8204.500000, 8207.500000
2546, 22924232.000000, 2285.375000, 8253.000000, 8206.000000, 8215.500000
2547, 22924392.000000, 2210.875000, 8282.500000, 8205.000000, 8227.500000
2548, 22924552.000000, 2135.125000, 8287.000000, 8200.500000, 8229.000000
2549, 22924712.000000, 2056.000000, 8256.500000, 8202.000000, 8220.000000
2550, 22924872.000000, 1978.000000, 8209.000000, 8203.500000, 8210.500000
2551, 22925032.000000, 1901.250000, 8172.000000, 8199.000000, 8193.000000
2552, 22925192.000000, 1826.125000, 8152.000000, 8193.500000, 8178.000000
2553, 22925352.000000, 1750.875000, 8151.500000, 8192.000000, 8176.500000
2554, 22925512.000000, 1676.250000, 8156.000000, 8192.000000, 8178.500000
2555, 22925672.000000, 1599.625000, 8154.500000, 8194.500000, 8181.000000
2556, 22925832.000000, 1516.625000, 8158.500000, 8193.000000, 8181.000000
2557, 22925992.000000, 1427.500000, 8161.000000, 8191.500000, 8180.500000
2558, 22926152.000000, 1341.250000, 8162.500000, 8189.000000, 8177.500000
2559, 22926312.000000, 1276.125000, 8163.500000, 8190.000000, 8179.500000
2560, 22926472.000000, 1285.000000, 8164.000000, 8189.000000, 8177.500000
2561, 22926632.000000, 1424.125000, 8162.000000, 8190.500000, 8178.000000
2562, 22926792.000000, 1702.375000, 8161.000000, 8187.500000, 8172.500000
2563, 22926952.000000, 2061.875000, 8170.500000, 8191.000000, 8185.000000
2564, 22927112.000000, 2407.750000, 8173.000000, 8196.000000, 8193.000000
2565, 22927272.000000, 2673.500000, 8185.500000, 8204.500000, 8215.500000
2566, 22927432.000000, 2855.625000, 8189.000000, 8197.500000, 8198.500000
2567, 22927592.000000, 2969.500000, 8166.000000, 8181.500000, 8164.500000
2568, 22927752.000000, 3030.750000, 8162.500000, 8177.500000, 8156.000000
2569, 22927912.000000, 3048.375000, 8160.000000, 8179.000000, 8155.000000
2570, 22928072.000000, 3025.125000, 8152.000000, 8187.000000, 8160.000000
2571, 22928232.000000, 2950.250000, 8367.000000, 8201.000000, 8264.000000
2572, 22928392.000000, 2834.125000, 8267.000000, 8126.500000, 8201.500000
2573, 22928552.000000, 2688.875000, 8122.500000, 8105.500000, 8089.500000
2574, 22928712.000000, 2537.000000, 8153.500000, 8181.000000, 8155.000000
2575, 22928872.000000, 2406.000000, 8158.000000, 8190.000000, 8166.500000
2576, 22929032.000000, 2302.875000, 8165.000000, 8192.500000, 8171.500000
2577, 22929192.000000, 2228.750000, 8173.500000, 8195.500000, 8177.500000
2578, 22929352.000000, 2163.875000, 8182.000000, 8194.500000, 8179.000000
2579, 22929512.000000, 2098.125000, 8190.000000, 8196.000000, 8187.000000
2580, 22929672.000000, 2026.000000, 8203.000000, 8198.500000, 8193.500000
2581, 22929832.000000, 1941.500000, 8223.000000, 8202.000000, 8204.500000
2582, 22929992.000000, 1849.125000, 8253.000000, 8203.500000, 8220.000000
2583, 22930152.000000, 1752.625000, 8279.500000, 8201.500000, 8226.500000
2584, 22930312.000000, 1652.125000, 8288.000000, 8203.500000, 8236.500000
2585, 22930472.000000, 1554.625000, 8270.000000, 8204.500000, 8232.500000
2586, 22930632.000000, 1455.125000, 8218.000000, 8208.000000, 8221.500000
2587, 22930792.000000, 1357.000000, 8174.500000, 8202.500000, 8198.000000
2588, 22930952.000000, 1259.125000, 8159.000000, 8197.500000, 8188.500000
2589, 22931112.000000, 1167.750000, 8156.000000, 8197.000000, 8184.500000
2590, 22931272.000000, 1085.000000, 8154.000000, 8198.500000, 8186.500000
2591, 22931432.000000, 1006.625000, 8156.500000, 8201.000000, 8190.500000
2592, 22931592.000000, 925.875000, 8161.500000, 8199.000000, 8190.000000
2593, 22931752.000000, 845.000000, 8160.500000, 8194.500000, 8182.000000
2594, 22931912.000000, 768.500000, 8157.500000, 8195.000000, 8181.500000
2595, 22932072.000000, 714.875000, 8164.000000, 8196.500000, 8185.500000
2596, 22932232.000000, 723.750000, 8159.500000, 8198.000000, 8188.500000
2597, 22932392.000000, 867.625000, 8160.000000, 8198.000000, 8186.000000
2598, 22932552.000000, 1152.375000, 8161.500000, 8200.000000, 8193.000000
2599, 22932712.000000, 1539.250000, 8165.500000, 8205.000000, 8203.500000
2600, 22932872.000000, 1932.500000, 8173.000000, 8208.000000, 8215.500000
2601, 22933032.000000, 2272.000000, 8188.500000, 8209.000000, 8218.500000
2602, 22933192.000000, 2526.750000, 8170.500000, 8193.500000, 8186.500000
2603, 22933352.000000, 2690.500000, 8156.000000, 8184.000000, 8169.000000
2604, 22933512.000000, 2794.375000, 8159.500000, 8181.500000, 8167.000000
2605, 22933672.000000, 2846.125000, 8165.500000, 8182.000000, 8171.500000
2606, 22933832.000000, 2857.375000, 8186.000000, 8213.500000, 8210.500000
2607, 22933992.000000, 2829.500000, 8502.000000, 8128.000000, 8264.000000
2608, 22934152.000000, 2758.500000, 8116.500000, 8094.500000, 8105.000000
2609, 22934312.000000, 2657.875000, 8148.500000, 8160.000000, 8146.000000
2610, 22934472.000000, 2543.375000, 8163.000000, 8188.000000, 8172.000000
2611, 22934632.000000, 2436.625000, 8165.000000, 8193.000000, 8176.500000
2612, 22934792.000000, 2351.750000, 8171.500000, 8191.500000, 8177.500000
2613, 22934952.000000, 2290.625000, 8178.000000, 8192.500000, 8183.500000
2614, 22935112.000000, 2239.625000, 8187.500000, 8194.000000, 8191.500000
2615, 22935272.000000, 2190.875000, 8198.000000, 8197.500000, 8199.500000
2616, 22935432.000000, 2130.750000, 8213.500000, 8197.500000, 8205.000000
2617, 22935592.000000, 2065.125000, 8238.000000, 8196.000000, 8212.000000
2618, 22935752.000000, 1994.250000, 8267.000000, 8198.500000, 8226.500000
2619, 22935912.000000, 1919.875000, 8282.500000, 8198.500000, 8234.000000
2620, 22936072.000000, 1851.750000, 8279.500000, 8199.500000, 8235.000000
2621, 22936232.000000, 1789.625000, 8237.000000, 8205.000000, 8229.000000
2622, 22936392.000000, 1733.250000, 8193.000000, 8203.500000, 8210.500000
2623, 22936552.000000, 1681.500000, 8162.500000, 8200.500000, 8197.000000
2624, 22936712.000000, 1632.875000, 8152.000000, 8199.000000, 8192.000000
2625, 22936872.000000, 1586.500000, 8149.500000, 8200.000000, 8192.000000
2626, 22937032.000000, 1537.375000, 8155.500000, 8200.500000, 8194.500000
2627, 22937192.000000, 1484.250000, 8158.500000, 8195.500000, 8188.500000
2628, 22937352.000000, 1428.125000, 8158.000000, 8196.000000, 8186.500000
2629, 22937512.000000, 1368.375000, 8161.500000, 8196.500000, 8188.500000
2630, 22937672.000000, 1304.750000, 8157.000000, 8196.500000, 8188.500000
2631, 22937832.000000, 1249.625000, 8156.500000, 8193.500000, 8181.500000
2632, 22937992.000000, 1256.375000, 8160.500000, 8191.500000, 8184.000000
2633, 22938152.000000, 1421.750000, 8160.000000, 8190.500000, 8180.500000
2634, 22938312.000000, 1826.125000, 8161.500000, 8197.500000, 8193.500000
2635, 22938472.000000, 2202.000000, 8170.500000, 8203.000000, 8207.500000
2636, 22938632.000000, 2491.750000, 8179.500000, 8204.000000, 8217.000000
2637, 22938792.000000, 2672.375000, 8186.000000, 8200.500000, 8207.500000
2638, 22938952.000000, 2779.375000, 8171.500000, 8188.000000, 8178.500000
2639, 22939112.000000, 2827.375000, 8163.500000, 8185.000000, 8170.500000
2640, 22939272.000000, 2808.625000, 8163.000000, 8184.500000, 8170.500000
2641, 22939432.000000, 2730.500000, 8165.500000, 8187.000000, 8171.000000
2642, 22939592.000000, 2622.625000, 8244.500000, 8225.000000, 8240.000000
2643, 22939752.000000, 2489.000000, 8414.500000, 8128.500000, 8243.000000
2644, 22939912.000000, 2353.625000, 8117.500000, 8088.000000, 8085.500000
2645, 22940072.000000, 2236.750000, 8154.500000, 8181.000000, 8166.500000
2646, 22940232.000000, 2146.500000, 8158.500000, 8195.000000, 8178.000000
2647, 22940392.000000, 2087.125000, 8165.000000, 8194.500000, 8179.500000
2648, 22940552.000000, 2044.125000, 8172.500000, 8197.500000, 8186.000000
2649, 22940712.000000, 2003.125000, 8182.000000, 8198.500000, 8191.500000
2650, 22940872.000000, 1949.875000, 8187.500000, 8201.000000, 8195.500000
2651, 22941032.000000, 1881.250000, 8200.500000, 8202.000000, 8202.500000
2652, 22941192.000000, 1802.750000, 8218.000000, 8203.000000, 8207.500000
2653, 22941352.000000, 1715.500000, 8245.000000, 8201.500000, 8216.000000
2654, 22941512.000000, 1625.625000, 8270.500000, 8205.000000, 8232.000000
2655, 22941672.000000, 1539.750000, 8283.000000, 8204.500000, 8238.000000
2656, 22941832.000000, 1458.125000, 8277.000000, 8204.000000, 8239.500000
2657, 22941992.000000, 1382.875000, 8232.000000, 8203.500000, 8224.000000
2658, 22942152.000000, 1315.000000, 8188.000000, 8198.000000, 8202.500000
2659, 22942312.000000, 1258.875000, 8163.500000, 8193.000000, 8187.000000
2660, 22942472.000000, 1211.625000, 8155.000000, 8193.500000, 8186.500000
2661, 22942632.000000, 1164.125000, 8157.500000, 8195.500000, 8187.000000
2662, 22942792.000000, 1112.250000, 8158.500000, 8195.500000, 8188.500000
2663, 22942952.000000, 1053.750000, 8164.000000, 8191.500000, 8184.500000
2664, 22943112.000000, 989.000000, 8166.000000, 8194.500000, 8192.500000
2665, 22943272.000000, 943.375000, 8158.000000, 8193.000000, 8184.000000
2666, 22943432.000000, 957.500000, 8161.000000, 8192.000000, 8185.000000
2667, 22943592.000000, 1104.500000, 8156.000000, 8190.500000, 8181.500000
2668, 22943752.000000, 1377.000000, 8162.000000, 8189.500000, 8182.500000
2669, 22943912.000000, 1728.375000, 8163.000000, 8191.000000, 8185.000000
2670, 22944072.000000, 2057.250000, 8161.500000, 8195.500000, 8191.500000
2671, 22944232.000000, 2311.125000, 8168.500000, 8199.500000, 8202.000000
2672, 22944392.000000, 2479.250000, 8172.500000, 8202.500000, 8210.500000
2673, 22944552.000000, 2580.125000, 8193.000000, 8203.500000, 8220.000000
2674, 22944712.000000, 2631.625000, 8177.500000, 8195.000000, 8192.500000
2675, 22944872.000000, 2654.500000, 8160.500000, 8188.000000, 8172.500000
2676, 22945032.000000, 2654.125000, 8167.000000, 8185.500000, 8174.000000
2677, 22945192.000000, 2626.000000, 8169.500000, 8183.000000, 8171.000000
2678, 22945352.000000, 2568.500000, 8170.500000, 8208.500000, 8193.500000
2679, 22945512.000000, 2495.250000, 8521.000000, 8147.000000, 8291.500000
2680, 22945672.000000, 2424.750000, 8141.500000, 8095.000000, 8125.000000
2681, 22945832.000000, 2367.125000, 8145.000000, 8163.500000, 8154.500000
2682, 22945992.000000, 2328.250000, 8154.000000, 8192.500000, 8174.500000
2683, 22946152.000000, 2295.500000, 8158.500000, 8193.500000, 8175.500000
2684, 22946312.000000, 2262.875000, 8167.000000, 8198.000000, 8185.000000
2685, 22946472.000000, 2218.750000, 8175.500000, 8200.000000, 8190.500000
2686, 22946632.000000, 2166.000000, 8181.500000, 8202.000000, 8194.500000
2687, 22946792.000000, 2103.125000, 8194.500000, 8203.000000, 8202.500000
2688, 22946952.000000, 2028.000000, 8214.500000, 8202.500000, 8208.500000
2689, 22947112.000000, 1948.625000, 8234.000000, 8207.000000, 8221.000000
2690, 22947272.000000, 1870.125000, 8260.000000, 8210.500000, 8234.000000
2691, 22947432.000000, 1794.875000, 8276.000000, 8212.500000, 8243.500000
2692, 22947592.000000, 1725.750000, 8282.000000, 8208.500000, 8243.500000
2693, 22947752.000000, 1663.000000, 8250.000000, 8209.500000, 8234.500000
2694, 22947912.000000, 1607.500000, 8200.500000, 8207.500000, 8215.000000
2695, 22948072.000000, 1561.625000, 8165.500000, 8202.500000, 8197.000000
2696, 22948232.000000, 1532.750000, 8157.000000, 8197.500000, 8187.500000
2697, 22948392.000000, 1511.250000, 8151.500000, 8196.000000, 8182.500000
2698, 22948552.000000, 1495.125000, 8150.500000, 8195.500000, 8180.000000
2699, 22948712.000000, 1478.625000, 8154.000000, 8196.500000, 8183.500000
2700, 22948872.000000, 1459.000000, 8161.000000, 8193.500000, 8184.000000
2701, 22949032.000000, 1440.250000, 8157.000000, 8192.000000, 8178.000000
2702, 22949192.000000, 1452.875000, 8160.000000, 8192.500000, 8178.500000
2703, 22949352.000000, 1548.500000, 8158.500000, 8188.500000, 8172.500000
2704, 22949512.000000, 1781.500000, 8159.000000, 8188.000000, 8171.500000
2705, 22949672.000000, 2122.125000, 8158.000000, 8189.000000, 8174.000000
2706, 22949832.000000, 2491.000000, 8162.000000, 8187.000000, 8174.000000
2707, 22949992.000000, 2798.500000, 8161.000000, 8188.500000, 8177.000000
2708, 22950152.000000, 3018.875000, 8169.000000, 8193.500000, 8190.500000
2709, 22950312.000000, 3147.375000, 8178.000000, 8196.500000, 8203.000000
2710, 22950472.000000, 3212.500000, 8184.500000, 8197.000000, 8199.000000
2711, 22950632.000000, 3228.375000, 8170.000000, 8185.500000, 8174.000000
2712, 22950792.000000, 3201.250000, 8162.500000, 8180.000000, 8162.500000
2713, 22950952.000000, 3129.875000, 8160.000000, 8178.500000, 8158.500000
2714, 22951112.000000, 3020.625000, 8163.500000, 8181.500000, 8165.000000
2715, 22951272.000000, 2885.375000, 8226.000000, 8215.500000, 8221.000000
2716, 22951432.000000, 2741.000000, 8443.000000, 8133.500000, 8252.000000
2717, 22951592.000000, 2609.375000, 8122.500000, 8093.000000, 8095.000000
2718, 22951752.000000, 2504.750000, 8146.500000, 8173.000000, 8151.000000
2719, 22951912.000000, 2426.500000, 8153.500000, 8188.500000, 8166.000000
2720, 22952072.000000, 2362.000000, 8161.000000, 8194.000000, 8175.000000
2721, 22952232.000000, 2301.375000, 8167.500000, 8196.500000, 8179.500000
2722, 22952392.000000, 2234.375000, 8172.000000, 8197.000000, 8181.000000
2723, 22952552.000000, 2159.000000, 8184.500000, 8196.500000, 8186.000000
2724, 22952712.000000, 2075.500000, 8196.500000, 8199.000000, 8193.000000
2725, 22952872.000000, 1982.250000, 8210.000000, 8202.500000, 8200.000000
2726, 22953032.000000, 1888.125000, 8236.000000, 8204.500000, 8212.000000
2727, 22953192.000000, 1790.625000, 8263.500000, 8204.000000, 8223.000000
2728, 22953352.000000, 1695.375000, 8279.500000, 8206.000000, 8235.000000
2729, 22953512.000000, 1605.125000, 8275.000000, 8205.000000, 8233.500000
2730, 22953672.000000, 1521.000000, 8235.000000, 8206.500000, 8221.000000
2731, 22953832.000000, 1443.250000, 8189.000000, 8203.000000, 8199.500000
2732, 22953992.000000, 1374.750000, 8156.500000, 8197.500000, 8183.500000
2733, 22954152.000000, 1313.250000, 8153.000000, 8194.000000, 8177.500000
2734, 22954312.000000, 1260.500000, 8155.000000, 8194.500000, 8179.500000
2735, 22954472.000000, 1210.500000, 8153.500000, 8197.500000, 8183.000000
2736, 22954632.000000, 1159.375000, 8158.500000, 8195.500000, 8181.500000
2737, 22954792.000000, 1111.750000, 8160.500000, 8191.000000, 8175.500000
2738, 22954952.000000, 1073.000000, 8162.500000, 8190.000000, 8177.500000
2739, 22955112.000000, 1082.875000, 8163.500000, 8190.500000, 8177.000000
2740, 22955272.000000, 1197.125000, 8164.500000, 8189.000000, 8177.000000
2741, 22955432.000000, 1467.000000, 8162.000000, 8190.000000, 8178.500000
2742, 22955592.000000, 1830.250000, 8161.000000, 8186.500000, 8173.500000
2743, 22955752.000000, 2201.250000, 8161.500000, 8186.000000, 8173.000000
2744, 22955912.000000, 2488.375000, 8168.500000, 8193.000000, 8190.500000
2745, 22956072.000000, 2678.250000, 8171.000000, 8199.000000, 8199.000000
2746, 22956232.000000, 2791.875000, 8190.000000, 8203.000000, 8218.500000
2747, 22956392.000000, 2852.000000, 8182.500000, 8198.000000, 8201.500000
2748, 22956552.000000, 2873.625000, 8172.000000, 8183.000000, 8172.000000
2749, 22956712.000000, 2855.500000, 8166.000000, 8182.500000, 8166.500000
2750, 22956872.000000, 2801.125000, 8165.500000, 8183.000000, 8168.500000
2751, 22957032.000000, 2714.625000, 8156.000000, 8191.000000, 8170.500000
2752, 22957192.000000, 2605.500000, 8349.000000, 8206.500000, 8264.000000
2753, 22957352.000000, 2496.750000, 8267.500000, 8144.500000, 8216.000000
2754, 22957512.000000, 2399.875000, 8112.000000, 8105.000000, 8088.000000
2755, 22957672.000000, 2325.750000, 8152.500000, 8184.000000, 8159.000000
2756, 22957832.000000, 2272.875000, 8153.500000, 8194.000000, 8167.500000
2757, 22957992.000000, 2232.625000, 8160.000000, 8196.500000, 8173.500000
2758, 22958152.000000, 2189.375000, 8170.500000, 8198.000000, 8181.000000
2759, 22958312.000000, 2133.375000, 8177.000000, 8201.500000, 8188.500000
2760, 22958472.000000, 2059.875000, 8186.000000, 8206.000000, 8195.000000
2761, 22958632.000000, 1972.250000, 8198.000000, 8205.000000, 8198.000000
2762, 22958792.000000, 1875.000000, 8220.000000, 8211.000000, 8211.500000
2763, 22958952.000000, 1776.250000, 8247.500000, 8209.000000, 8222.000000
2764, 22959112.000000, 1685.500000, 8271.500000, 8209.000000, 8229.000000
2765, 22959272.000000, 1598.375000, 8281.000000, 8209.000000, 8236.500000
2766, 22959432.000000, 1518.375000, 8269.000000, 8205.000000, 8228.500000
2767, 22959592.000000, 1451.375000, 8219.000000, 8206.000000, 8215.000000
2768, 22959752.000000, 1391.375000, 8183.000000, 8201.000000, 8197.500000
2769, 22959912.000000, 1341.500000, 8158.000000, 8198.000000, 8186.000000
2770, 22960072.000000, 1296.750000, 8150.500000, 8197.500000, 8182.500000
2771, 22960232.000000, 1252.375000, 8157.500000, 8196.000000, 8182.500000
2772, 22960392.000000, 1206.750000, 8157.000000, 8196.500000, 8182.500000
2773, 22960552.000000, 1163.375000, 8159.500000, 8194.500000, 8180.500000
2774, 22960712.000000, 1125.375000, 8163.000000, 8194.500000, 8183.500000
2775, 22960872.000000, 1102.125000, 8165.000000, 8194.500000, 8182.000000
2776, 22961032.000000, 1137.750000, 8164.500000, 8191.500000, 8179.500000
2777, 22961192.000000, 1289.250000, 8160.000000, 8189.500000, 8173.500000
2778, 22961352.000000, 1584.750000, 8159.500000, 8190.500000, 8174.500000
2779, 22961512.000000, 1981.750000, 8162.500000, 8188.000000, 8173.500000
2780, 22961672.000000, 2380.625000, 8162.500000, 8196.000000, 8190.000000
2781, 22961832.000000, 2700.000000, 8169.500000, 8200.500000, 8199.500000
2782, 22961992.000000, 2922.875000, 8185.500000, 8204.500000, 8218.000000
2783, 22962152.000000, 3054.000000, 8181.000000, 8197.500000, 8196.500000
2784, 22962312.000000, 3118.750000, 8166.000000, 8185.500000, 8169.500000
2785, 22962472.000000, 3135.750000, 8161.500000, 8185.000000, 8165.000000
2786, 22962632.000000, 3111.250000, 8163.000000, 8185.500000, 8167.500000
2787, 22962792.000000, 3039.500000, 8152.000000, 8194.500000, 8170.000000
2788, 22962952.000000, 2929.250000, 8387.500000, 8209.000000, 8284.500000
2789, 22963112.000000, 2784.875000, 8216.000000, 8135.000000, 8187.000000
2790, 22963272.000000, 2629.375000, 8113.500000, 8114.000000, 8097.000000
2791, 22963432.000000, 2481.000000, 8153.500000, 8187.000000, 8164.500000
2792, 22963592.000000, 2353.375000, 8156.000000, 8193.000000, 8168.500000
2793, 22963752.000000, 2246.000000, 8160.000000, 8198.000000, 8175.000000
2794, 22963912.000000, 2152.625000, 8167.500000, 8201.000000, 8184.000000
2795, 22964072.000000, 2061.250000, 8176.500000, 8200.500000, 8188.500000
2796, 22964232.000000, 1966.125000, 8190.000000, 8204.500000, 8198.500000
2797, 22964392.000000, 1869.250000, 8198.500000, 8204.500000, 8201.000000
2798, 22964552.000000, 1775.500000, 8218.000000, 8205.500000, 8209.000000
2799, 22964712.000000, 1688.375000, 8245.000000, 8209.000000, 8223.000000
2800, 22964872.000000, 1610.375000, 8272.000000, 8211.000000, 8237.500000
2801, 22965032.000000, 1537.250000, 8279.000000, 8208.000000, 8238.000000
2802, 22965192.000000, 1462.250000, 8265.000000, 8206.000000, 8232.500000
2803, 22965352.000000, 1390.125000, 8217.500000, 8205.000000, 8217.000000
2804, 22965512.000000, 1326.125000, 8174.000000, 8204.000000, 8199.500000
2805, 22965672.000000, 1270.250000, 8155.500000, 8199.000000, 8188.000000
2806, 22965832.000000, 1215.250000, 8146.000000, 8195.000000, 8180.500000
2807, 22965992.000000, 1158.000000, 8145.500000, 8193.000000, 8177.000000
2808, 22966152.000000, 1094.750000, 8155.500000, 8193.000000, 8181.000000
2809, 22966312.000000, 1030.375000, 8159.000000, 8196.000000, 8185.000000
2810, 22966472.000000, 968.250000, 8161.000000, 8193.500000, 8186.000000
2811, 22966632.000000, 920.000000, 8163.500000, 8193.000000, 8184.500000
2812, 22966792.000000, 915.375000, 8162.000000, 8187.000000, 8176.000000
2813, 22966952.000000, 1026.625000, 8159.000000, 8187.500000, 8175.500000
2814, 22967112.000000, 1276.875000, 8155.500000, 8186.500000, 8171.500000
2815, 22967272.000000, 1636.375000, 8163.000000, 8188.000000, 8177.000000
2816, 22967432.000000, 2004.750000, 8167.000000, 8191.000000, 8184.500000
2817, 22967592.000000, 2306.000000, 8176.000000, 8194.000000, 8196.000000
2818, 22967752.000000, 2522.250000, 8174.500000, 8196.500000, 8201.000000
2819, 22967912.000000, 2661.500000, 8189.500000, 8198.500000, 8206.000000
2820, 22968072.000000, 2743.500000, 8175.000000, 8187.500000, 8178.500000
2821, 22968232.000000, 2781.625000, 8163.000000, 8178.000000, 8163.000000
2822, 22968392.000000, 2779.500000, 8164.500000, 8177.500000, 8163.500000
2823, 22968552.000000, 2735.750000, 8164.500000, 8176.000000, 8160.000000
2824, 22968712.000000, 2645.500000, 8189.000000, 8215.500000, 8212.500000
2825, 22968872.000000, 2527.125000, 8509.500000, 8125.500000, 8269.500000
2826, 22969032.000000, 2398.875000, 8127.500000, 8077.500000, 8090.500000
2827, 22969192.000000, 2279.875000, 8145.500000, 8167.000000, 8151.500000
2828, 22969352.000000, 2183.125000, 8155.500000, 8189.000000, 8169.000000
2829, 22969512.000000, 2111.375000, 8161.500000, 8195.500000, 8181.500000
2830, 22969672.000000, 2054.375000, 8167.500000, 8198.500000, 8185.500000
2831, 22969832.000000, 2001.875000, 8174.500000, 8196.500000, 8187.000000
2832, 22969992.000000, 1940.625000, 8180.000000, 8198.500000, 8190.000000
2833, 22970152.000000, 1870.250000, 8189.500000, 8201.500000, 8197.000000
2834, 22970312.000000, 1791.000000, 8205.000000, 8208.000000, 8212.000000
2835, 22970472.000000, 1710.375000, 8230.500000, 8207.500000, 8220.500000
2836, 22970632.000000, 1631.250000, 8260.500000, 8212.000000, 8234.000000
2837, 22970792.000000, 1558.500000, 8277.000000, 8210.000000, 8240.000000
2838, 22970952.000000, 1487.625000, 8281.000000, 8206.000000, 8240.500000
2839, 22971112.000000, 1421.375000, 8245.500000, 8205.500000, 8230.000000
2840, 22971272.000000, 1362.375000, 8196.000000, 8206.500000, 8214.000000
2841, 22971432.000000, 1312.750000, 8163.500000, 8197.000000, 8189.500000
2842, 22971592.000000, 1271.000000, 8157.000000, 8193.500000, 8184.500000
2843, 22971752.000000, 1228.750000, 8153.500000, 8195.500000, 8185.000000
2844, 22971912.000000, 1182.500000, 8155.000000, 8195.000000, 8182.000000
2845, 22972072.000000, 1130.250000, 8154.000000, 8199.500000, 8189.500000
2846, 22972232.000000, 1073.000000, 8164.500000, 8197.000000, 8190.000000
2847, 22972392.000000, 1016.500000, 8161.000000, 8191.500000, 8180.000000
2848, 22972552.000000, 989.625000, 8163.000000, 8193.500000, 8183.500000
2849, 22972712.000000, 1046.625000, 8163.000000, 8191.000000, 8181.000000
2850, 22972872.000000, 1251.125000, 8161.000000, 8189.000000, 8177.500000
2851, 22973032.000000, 1595.875000, 8162.000000, 8190.000000, 8181.000000
2852, 22973192.000000, 1992.875000, 8162.000000, 8186.000000, 8175.000000
2853, 22973352.000000, 2345.625000, 8167.500000, 8193.000000, 8188.000000
2854, 22973512.000000, 2616.625000, 8172.500000, 8198.500000, 8201.500000
2855, 22973672.000000, 2807.000000, 8183.500000, 8199.000000, 8212.500000
2856, 22973832.000000, 2935.125000, 8188.500000, 8198.000000, 8201.500000
2857, 22973992.000000, 3022.875000, 8171.500000, 8184.500000, 8175.000000
2858, 22974152.000000, 3076.750000, 8164.500000, 8179.000000, 8161.000000
2859, 22974312.000000, 3096.625000, 8164.000000, 8182.500000, 8165.500000
2860, 22974472.000000, 3078.500000, 8166.500000, 8180.000000, 8164.500000
2861, 22974632.000000, 3017.875000, 8230.500000, 8214.000000, 8221.500000
2862, 22974792.000000, 2932.375000, 8441.000000, 8125.000000, 8244.000000
2863, 22974952.000000, 2841.125000, 8123.000000, 8084.500000, 8082.500000
2864, 22975112.000000, 2763.750000, 8151.000000, 8173.000000, 8152.000000
2865, 22975272.000000, 2703.250000, 8157.500000, 8187.500000, 8166.000000
2866, 22975432.000000, 2654.375000, 8168.500000, 8191.500000, 8175.000000
2867, 22975592.000000, 2594.750000, 8174.000000, 8195.000000, 8180.500000
2868, 22975752.000000, 2516.375000, 8181.500000, 8197.000000, 8184.500000
2869, 22975912.000000, 2415.500000, 8193.000000, 8200.500000, 8196.500000
2870, 22976072.000000, 2292.250000, 8202.000000, 8201.000000, 8200.500000
2871, 22976232.000000, 2152.125000, 8219.500000, 8202.500000, 8207.000000
2872, 22976392.000000, 2001.625000, 8244.500000, 8204.000000, 8217.000000
2873, 22976552.000000, 1853.125000, 8272.000000, 8204.000000, 8228.500000
2874, 22976712.000000, 1713.000000, 8288.500000, 8207.000000, 8240.500000
2875, 22976872.000000, 1573.625000, 8285.000000, 8206.000000, 8241.000000
2876, 22977032.000000, 1443.125000, 8240.500000, 8206.000000, 8224.500000
2877, 22977192.000000, 1333.000000, 8195.000000, 8200.000000, 8203.000000
2878, 22977352.000000, 1247.625000, 8166.500000, 8194.500000, 8187.500000
2879, 22977512.000000, 1185.875000, 8163.000000, 8192.500000, 8183.500000
2880, 22977672.000000, 1138.750000, 8160.000000, 8192.000000, 8182.000000
2881, 22977832.000000, 1097.625000, 8164.000000, 8191.500000, 8182.000000
2882, 22977992.000000, 1059.250000, 8165.000000, 8191.500000, 8180.500000
2883, 22978152.000000, 1018.125000, 8167.000000, 8189.500000, 8180.500000
2884, 22978312.000000, 973.125000, 8164.500000, 8190.000000, 8179.000000
2885, 22978472.000000, 947.125000, 8166.500000, 8188.500000, 8177.000000
2886, 22978632.000000, 1002.250000, 8166.000000, 8185.500000, 8173.500000
2887, 22978792.000000, 1194.375000, 8166.500000, 8185.500000, 8174.000000
2888, 22978952.000000, 1526.375000, 8166.000000, 8186.000000, 8174.000000
2889, 22979112.000000, 1917.250000, 8166.500000, 8184.500000, 8172.000000
2890, 22979272.000000, 2268.750000, 8170.500000, 8190.500000, 8182.500000
2891, 22979432.000000, 2522.875000, 8177.000000, 8193.500000, 8194.500000
2892, 22979592.000000, 2685.500000, 8179.000000, 8194.000000, 8197.500000
2893, 22979752.000000, 2773.250000, 8201.000000, 8197.500000, 8205.500000
2894, 22979912.000000, 2819.250000, 8179.000000, 8185.000000, 8174.500000
2895, 22980072.000000, 2834.625000, 8169.500000, 8179.500000, 8162.000000
2896, 22980232.000000, 2817.000000, 8172.000000, 8178.000000, 8162.000000
2897, 22980392.000000, 2759.000000, 8170.500000, 8178.500000, 8162.500000
2898, 22980552.000000, 2660.000000, 8198.500000, 8209.500000, 8202.000000
2899, 22980712.000000, 2534.500000, 8510.000000, 8124.000000, 8262.000000
2900, 22980872.000000, 2404.875000, 8135.000000, 8080.500000, 8094.500000
2901, 22981032.000000, 2290.750000, 8149.000000, 8168.000000, 8153.000000
2902, 22981192.000000, 2201.375000, 8161.500000, 8188.000000, 8172.000000
2903, 22981352.000000, 2132.375000, 8169.500000, 8192.000000, 8176.500000
2904, 22981512.000000, 2072.875000, 8176.000000, 8196.500000, 8186.000000
2905, 22981672.000000, 2006.875000, 8177.000000, 8199.000000, 8190.000000
2906, 22981832.000000, 1925.500000, 8183.500000, 8200.000000, 8192.500000
2907, 22981992.000000, 1833.875000, 8197.000000, 8200.500000, 8199.000000
2908, 22982152.000000, 1735.875000, 8212.500000, 8205.500000, 8208.500000
2909, 22982312.000000, 1631.750000, 8235.500000, 8209.000000, 8221.000000
2910, 22982472.000000, 1531.125000, 8264.000000, 8211.500000, 8233.500000
2911, 22982632.000000, 1440.375000, 8278.500000, 8210.500000, 8238.500000
2912, 22982792.000000, 1364.500000, 8278.500000, 8206.000000, 8238.500000
2913, 22982952.000000, 1297.750000, 8246.500000, 8211.500000, 8235.500000
2914, 22983112.000000, 1238.375000, 8197.000000, 8208.000000, 8215.500000
2915, 22983272.000000, 1186.500000, 8168.000000, 8201.500000, 8198.000000
2916, 22983432.000000, 1140.000000, 8156.500000, 8196.500000, 8186.500000
2917, 22983592.000000, 1103.875000, 8150.500000, 8198.500000, 8186.500000
2918, 22983752.000000, 1071.625000, 8159.500000, 8196.500000, 8188.000000
2919, 22983912.000000, 1042.500000, 8160.500000, 8200.500000, 8197.000000
2920, 22984072.000000, 1009.000000, 8161.500000, 8195.500000, 8188.500000
2921, 22984232.000000, 966.750000, 8164.500000, 8195.500000, 8190.500000
2922, 22984392.000000, 930.500000, 8163.000000, 8192.500000, 8184.500000
2923, 22984552.000000, 961.625000, 8165.000000, 8193.000000, 8184.500000
2924, 22984712.000000, 1122.750000, 8163.500000, 8196.000000, 8187.500000
2925, 22984872.000000, 1441.250000, 8162.500000, 8194.000000, 8183.500000
2926, 22985032.000000, 1832.375000, 8167.500000, 8197.000000, 8193.000000
2927, 22985192.000000, 2200.375000, 8174.000000, 8201.500000, 8200.500000
2928, 22985352.000000, 2479.875000, 8178.000000, 8207.000000, 8213.500000
2929, 22985512.000000, 2661.000000, 8197.000000, 8213.000000, 8226.500000
2930, 22985672.000000, 2769.000000, 8176.500000, 8202.000000, 8196.000000
2931, 22985832.000000, 2835.500000, 8168.000000, 8190.500000, 8173.500000
2932, 22985992.000000, 2874.000000, 8169.000000, 8188.000000, 8170.000000
2933, 22986152.000000, 2886.625000, 8173.500000, 8186.500000, 8168.500000
2934, 22986312.000000, 2863.250000, 8182.000000, 8213.000000, 8199.500000
2935, 22986472.000000, 2797.000000, 8527.500000, 8137.500000, 8271.500000
2936, 22986632.000000, 2699.375000, 8128.000000, 8100.000000, 8107.500000
2937, 22986792.000000, 2582.000000, 8149.500000, 8158.500000, 8138.500000
2938, 22986952.000000, 2466.750000, 8164.000000, 8193.000000, 8165.500000
2939, 22987112.000000, 2373.000000, 8169.000000, 8197.500000, 8172.500000
2940, 22987272.000000, 2308.500000, 8173.000000, 8201.500000, 8180.000000
2941, 22987432.000000, 2260.125000, 8187.000000, 8196.500000, 8181.500000
2942, 22987592.000000, 2211.500000, 8188.000000, 8198.000000, 8183.000000
2943, 22987752.000000, 2154.750000, 8200.000000, 8198.500000, 8189.500000
2944, 22987912.000000, 2085.125000, 8217.000000, 8201.000000, 8199.000000
2945, 22988072.000000, 2002.125000, 8236.500000, 8204.000000, 8211.000000
2946, 22988232.000000, 1909.875000, 8269.000000, 8205.500000, 8222.500000
2947, 22988392.000000, 1802.500000, 8287.500000, 8204.500000, 8231.000000
2948, 22988552.000000, 1690.375000, 8288.000000, 8205.500000, 8234.500000
2949, 22988712.000000, 1576.625000, 8256.000000, 8207.000000, 8228.000000
2950, 22988872.000000, 1462.375000, 8198.500000, 8213.000000, 8218.500000
2951, 22989032.000000, 1352.125000, 8169.500000, 8205.000000, 8199.000000
2952, 22989192.000000, 1249.250000, 8159.000000, 8201.000000, 8192.000000
2953, 22989352.000000, 1158.125000, 8151.000000, 8201.500000, 8191.500000
2954, 22989512.000000, 1076.375000, 8155.000000, 8203.500000, 8196.000000
2955, 22989672.000000, 1007.750000, 8161.500000, 8203.000000, 8199.000000
2956, 22989832.000000, 946.125000, 8161.000000, 8200.000000, 8195.000000
2957, 22989992.000000, 890.250000, 8159.500000, 8199.500000, 8193.000000
2958, 22990152.000000, 842.250000, 8163.000000, 8199.500000, 8195.500000
2959, 22990312.000000, 826.750000, 8161.500000, 8198.500000, 8194.500000
2960, 22990472.000000, 909.125000, 8163.000000, 8195.000000, 8190.000000
2961, 22990632.000000, 1123.375000, 8159.500000, 8193.000000, 8186.500000
2962, 22990792.000000, 1450.250000, 8167.500000, 8199.000000, 8201.500000
2963, 22990952.000000, 1812.750000, 8174.500000, 8205.000000, 8212.500000
2964, 22991112.000000, 2139.875000, 8185.500000, 8208.500000, 8228.500000
2965, 22991272.000000, 2390.375000, 8188.500000, 8203.500000, 8213.000000
2966, 22991432.000000, 2565.250000, 8172.000000, 8189.000000, 8180.000000
2967, 22991592.000000, 2670.000000, 8162.000000, 8183.000000, 8168.500000
2968, 22991752.000000, 2724.375000, 8164.000000, 8184.500000, 8171.500000
2969, 22991912.000000, 2731.625000, 8158.500000, 8188.000000, 8173.000000
2970, 22992072.000000, 2695.625000, 8309.000000, 8221.000000, 8269.000000
2971, 22992232.000000, 2612.000000, 8329.000000, 8127.000000, 8224.000000
2972, 22992392.000000, 2498.625000, 8117.500000, 8094.000000, 8083.500000
2973, 22992552.000000, 2372.375000, 8151.000000, 8182.500000, 8162.500000
2974, 22992712.000000, 2257.000000, 8153.500000, 8196.500000, 8179.000000
2975, 22992872.000000, 2165.000000, 8159.000000, 8196.000000, 8181.000000
2976, 22993032.000000, 2097.000000, 8167.500000, 8196.500000, 8188.500000
2977, 22993192.000000, 2041.500000, 8169.000000, 8197.000000, 8189.000000
2978, 22993352.000000, 1990.250000, 8176.000000, 8201.000000, 8194.000000
2979, 22993512.000000, 1930.750000, 8189.000000, 8206.500000, 8205.500000
2980, 22993672.000000, 1861.125000, 8204.000000, 8210.000000, 8212.000000
2981, 22993832.000000, 1779.375000, 8230.000000, 8212.500000, 8225.500000
2982, 22993992.000000, 1697.750000, 8255.500000, 8212.000000, 8233.500000
2983, 22994152.000000, 1614.000000, 8267.500000, 8212.500000, 8239.000000
2984, 22994312.000000, 1536.125000, 8257.000000, 8210.500000, 8236.000000
2985, 22994472.000000, 1459.625000, 8211.000000, 8212.000000, 8222.500000
2986, 22994632.000000, 1386.625000, 8165.500000, 8208.500000, 8201.000000
2987, 22994792.000000, 1322.375000, 8147.000000, 8200.500000, 8184.000000
2988, 22994952.000000, 1267.375000, 8137.500000, 8199.000000, 8178.000000
2989, 22995112.000000, 1220.375000, 8138.000000, 8203.000000, 8183.500000
2990, 22995272.000000, 1179.000000, 8142.000000, 8202.500000, 8184.500000
2991, 22995432.000000, 1137.375000, 8142.000000, 8199.000000, 8179.000000
2992, 22995592.000000, 1095.875000, 8143.000000, 8200.500000, 8181.000000
2993, 22995752.000000, 1055.625000, 8145.000000, 8199.500000, 8179.500000
2994, 22995912.000000, 1030.250000, 8149.500000, 8198.000000, 8180.000000
2995, 22996072.000000, 1076.375000, 8147.500000, 8197.000000, 8175.500000
2996, 22996232.000000, 1243.250000, 8147.000000, 8195.000000, 8172.500000
2997, 22996392.000000, 1549.500000, 8151.500000, 8196.000000, 8176.500000
2998, 22996552.000000, 1926.250000, 8148.000000, 8197.500000, 8176.500000
2999, 22996712.000000, 2297.875000, 8155.000000, 8204.000000, 8192.000000
3000, 22996872.000000, 2600.500000, 8163.000000, 8207.000000, 8203.000000
3001, 22997032.000000, 2821.250000, 8176.000000, 8209.500000, 8209.000000
3002, 22997192.000000, 2967.000000, 8160.000000, 8196.000000, 8176.000000
3003, 22997352.000000, 3048.625000, 8149.000000, 8191.500000, 8164.000000
3004, 22997512.000000, 3089.500000, 8145.000000, 8188.500000, 8157.500000
3005, 22997672.000000, 3086.625000, 8148.500000, 8189.000000, 8158.500000
3006, 22997832.000000, 3044.625000, 8153.500000, 8211.500000, 8182.000000
3007, 22997992.000000, 2968.500000, 8511.000000, 8148.500000, 8277.000000
3008, 22998152.000000, 2867.625000, 8130.000000, 8100.500000, 8115.000000
3009, 22998312.000000, 2761.375000, 8124.500000, 8165.000000, 8139.000000
3010, 22998472.000000, 2664.750000, 8140.000000, 8194.500000, 8159.500000
3011, 22998632.000000, 2584.875000, 8144.500000, 8197.500000, 8163.500000
3012, 22998792.000000, 2518.875000, 8148.000000, 8198.500000, 8162.500000
3013, 22998952.000000, 2458.000000, 8157.000000, 8201.000000, 8172.000000
3014, 22999112.000000, 2393.625000, 8164.500000, 8206.000000, 8181.000000
3015, 22999272.000000, 2322.250000, 8173.000000, 8206.000000, 8183.000000
3016, 22999432.000000, 2242.750000, 8189.000000, 8204.500000, 8188.000000
3017, 22999592.000000, 2155.500000, 8207.500000, 8208.500000, 8197.500000
3018, 22999752.000000, 2063.125000, 8233.000000, 8209.000000, 8209.500000
3019, 22999912.000000, 1968.250000, 8259.000000, 8212.500000, 8225.000000
3020, 23000072.000000, 1874.375000, 8259.000000, 8214.500000, 8228.500000
3021, 23000232.000000, 1780.875000, 8230.500000, 8211.000000, 8215.500000
3022, 23000392.000000, 1689.250000, 8182.000000, 8210.500000, 8200.000000
3023, 23000552.000000, 1596.500000, 8155.000000, 8204.500000, 8184.000000
3024, 23000712.000000, 1507.875000, 8141.500000, 8201.000000, 8174.500000
3025, 23000872.000000, 1430.875000, 8137.500000, 8201.000000, 8173.000000
3026, 23001032.000000, 1360.750000, 8138.000000, 8201.000000, 8172.500000
3027, 23001192.000000, 1298.000000, 8141.000000, 8202.000000, 8173.500000
3028, 23001352.000000, 1239.250000, 8146.000000, 8200.000000, 8172.500000
3029, 23001512.000000, 1184.250000, 8145.500000, 8199.000000, 8172.000000
3030, 23001672.000000, 1136.375000, 8148.000000, 8198.500000, 8171.500000
3031, 23001832.000000, 1124.000000, 8149.000000, 8196.500000, 8169.500000
3032, 23001992.000000, 1215.750000, 8149.000000, 8195.000000, 8168.000000
3033, 23002152.000000, 1450.250000, 8145.000000, 8195.000000, 8166.000000
3034, 23002312.000000, 1801.375000, 8153.500000, 8195.500000, 8171.500000
3035, 23002472.000000, 2183.500000, 8158.500000, 8201.500000, 8184.500000
3036, 23002632.000000, 2514.375000, 8163.500000, 8204.000000, 8191.500000
3037, 23002792.000000, 2750.000000, 8183.500000, 8208.500000, 8213.500000
3038, 23002952.000000, 2904.500000, 8178.000000, 8203.000000, 8191.000000
3039, 23003112.000000, 2995.875000, 8156.000000, 8191.000000, 8164.500000
3040, 23003272.000000, 3037.000000, 8155.500000, 8186.000000, 8157.000000
3041, 23003432.000000, 3042.250000, 8157.500000, 8185.000000, 8153.500000
3042, 23003592.000000, 3008.000000, 8151.000000, 8190.000000, 8156.000000
3043, 23003752.000000, 2929.625000, 8351.500000, 8203.500000, 8254.000000
3044, 23003912.000000, 2820.750000, 8273.500000, 8136.000000, 8206.500000
3045, 23004072.000000, 2694.125000, 8123.000000, 8111.000000, 8094.500000
3046, 23004232.000000, 2570.375000, 8148.000000, 8179.500000, 8147.500000
3047, 23004392.000000, 2467.875000, 8150.000000, 8184.500000, 8152.500000
3048, 23004552.000000, 2386.625000, 8157.000000, 8188.500000, 8161.500000
3049, 23004712.000000, 2322.375000, 8163.500000, 8191.500000, 8168.000000
3050, 23004872.000000, 2260.625000, 8167.000000, 8197.500000, 8178.000000
3051, 23005032.000000, 2188.625000, 8180.500000, 8194.500000, 8180.000000
3052, 23005192.000000, 2105.375000, 8192.500000, 8194.500000, 8182.000000
3053, 23005352.000000, 2012.250000, 8209.000000, 8196.000000, 8189.500000
3054, 23005512.000000, 1912.000000, 8229.500000, 8205.000000, 8209.000000
3055, 23005672.000000, 1812.000000, 8261.000000, 8204.000000, 8222.000000
3056, 23005832.000000, 1713.250000, 8266.500000, 8205.000000, 8225.500000
3057, 23005992.000000, 1622.750000, 8258.000000, 8203.000000, 8222.000000
3058, 23006152.000000, 1541.125000, 8214.500000, 8204.500000, 8208.500000
3059, 23006312.000000, 1466.500000, 8170.000000, 8202.500000, 8190.000000
3060, 23006472.000000, 1403.125000, 8157.500000, 8196.500000, 8180.500000
3061, 23006632.000000, 1348.500000, 8148.000000, 8195.000000, 8173.000000
3062, 23006792.000000, 1299.750000, 8148.500000, 8193.000000, 8171.500000
3063, 23006952.000000, 1258.000000, 8151.000000, 8195.000000, 8176.000000
3064, 23007112.000000, 1219.125000, 8153.500000, 8193.500000, 8175.000000
3065, 23007272.000000, 1179.000000, 8158.000000, 8194.000000, 8177.000000
3066, 23007432.000000, 1139.250000, 8156.000000, 8190.500000, 8172.000000
3067, 23007592.000000, 1118.375000, 8157.000000, 8186.000000, 8166.000000
3068, 23007752.000000, 1160.375000, 8157.500000, 8190.000000, 8172.500000
3069, 23007912.000000, 1339.375000, 8163.000000, 8191.000000, 8177.000000
3070, 23008072.000000, 1656.500000, 8157.500000, 8192.000000, 8173.500000
3071, 23008232.000000, 2057.500000, 8164.500000, 8192.500000, 8179.500000
3072, 23008392.000000, 2445.625000, 8167.500000, 8196.500000, 8189.500000
3073, 23008552.000000, 2766.375000, 8178.500000, 8201.500000, 8204.500000
3074, 23008712.000000, 3000.000000, 8185.500000, 8202.000000, 8201.500000
3075, 23008872.000000, 3148.125000, 8169.000000, 8189.000000, 8171.000000
3076, 23009032.000000, 3235.500000, 8160.000000, 8183.000000, 8160.000000
3077, 23009192.000000, 3267.750000, 8163.000000, 8183.000000, 8161.000000
3078, 23009352.000000, 3259.125000, 8165.500000, 8181.500000, 8158.000000
3079, 23009512.000000, 3207.500000, 8216.500000, 8217.500000, 8215.000000
3080, 23009672.000000, 3116.500000, 8453.500000, 8135.500000, 8254.000000
3081, 23009832.000000, 2997.750000, 8129.000000, 8089.500000, 8092.500000
3082, 23009992.000000, 2873.000000, 8148.000000, 8173.500000, 8148.500000
3083, 23010152.000000, 2757.500000, 8151.500000, 8189.500000, 8160.000000
3084, 23010312.000000, 2657.750000, 8164.000000, 8194.500000, 8171.500000
3085, 23010472.000000, 2580.125000, 8166.500000, 8195.500000, 8173.000000
3086, 23010632.000000, 2518.125000, 8176.000000, 8195.500000, 8178.500000
3087, 23010792.000000, 2460.625000, 8183.000000, 8197.000000, 8180.500000
3088, 23010952.000000, 2394.375000, 8194.500000, 8199.500000, 8189.500000
3089, 23011112.000000, 2315.500000, 8210.500000, 8203.500000, 8197.500000
3090, 23011272.000000, 2217.875000, 8234.500000, 8206.000000, 8211.000000
3091, 23011432.000000, 2109.250000, 8255.000000, 8206.500000, 8218.500000
3092, 23011592.000000, 1997.375000, 8276.000000, 8206.500000, 8229.500000
3093, 23011752.000000, 1886.125000, 8272.000000, 8207.000000, 8229.500000
3094, 23011912.000000, 1775.625000, 8234.500000, 8209.500000, 8223.000000
3095, 23012072.000000, 1670.375000, 8190.500000, 8206.000000, 8202.500000
3096, 23012232.000000, 1575.500000, 8165.000000, 8198.500000, 8186.000000
3097, 23012392.000000, 1492.250000, 8156.000000, 8194.500000, 8177.500000
3098, 23012552.000000, 1423.875000, 8153.500000, 8199.000000, 8181.500000
3099, 23012712.000000, 1362.625000, 8157.000000, 8198.000000, 8184.000000
3100, 23012872.000000, 1305.000000, 8160.000000, 8198.500000, 8187.500000
3101, 23013032.000000, 1247.875000, 8160.000000, 8193.000000, 8180.000000
3102, 23013192.000000, 1195.250000, 8162.500000, 8192.000000, 8178.500000
3103, 23013352.000000, 1144.375000, 8161.500000, 8193.500000, 8180.500000
3104, 23013512.000000, 1127.250000, 8164.500000, 8195.500000, 8184.500000
3105, 23013672.000000, 1196.500000, 8164.500000, 8196.000000, 8183.000000
3106, 23013832.000000, 1397.375000, 8162.000000, 8198.500000, 8185.500000
3107, 23013992.000000, 1719.375000, 8171.500000, 8200.000000, 8196.500000
3108, 23014152.000000, 2086.500000, 8174.500000, 8207.500000, 8207.000000
3109, 23014312.000000, 2412.125000, 8198.500000, 8212.000000, 8228.500000
3110, 23014472.000000, 2648.750000, 8188.500000, 8201.000000, 8198.000000
3111, 23014632.000000, 2799.000000, 8169.000000, 8187.000000, 8169.000000
3112, 23014792.000000, 2884.875000, 8176.500000, 8184.500000, 8168.500000
3113, 23014952.000000, 2927.625000, 8171.500000, 8185.500000, 8170.000000
3114, 23015112.000000, 2931.750000, 8170.500000, 8205.500000, 8188.500000
3115, 23015272.000000, 2887.750000, 8515.000000, 8168.500000, 8304.000000
3116, 23015432.000000, 2802.625000, 8153.000000, 8115.000000, 8144.000000
3117, 23015592.000000, 2689.000000, 8144.000000, 8140.000000, 8131.000000
3118, 23015752.000000, 2567.125000, 8163.500000, 8189.000000, 8169.500000
3119, 23015912.000000, 2451.875000, 8169.000000, 8195.500000, 8180.500000
3120, 23016072.000000, 2350.625000, 8175.000000, 8198.500000, 8188.500000
3121, 23016232.000000, 2269.875000, 8184.500000, 8198.000000, 8187.500000
3122, 23016392.000000, 2204.625000, 8188.000000, 8196.500000, 8191.500000
3123, 23016552.000000, 2135.500000, 8201.500000, 8198.500000, 8197.000000
3124, 23016712.000000, 2057.375000, 8213.500000, 8199.000000, 8202.500000
3125, 23016872.000000, 1963.625000, 8233.500000, 8199.500000, 8209.500000
3126, 23017032.000000, 1858.375000, 8262.500000, 8197.000000, 8216.000000
3127, 23017192.000000, 1747.500000, 8286.500000, 8190.500000, 8219.500000
3128, 23017352.000000, 1632.250000, 8290.500000, 8191.500000, 8225.000000
3129, 23017512.000000, 1521.750000, 8262.000000, 8193.500000, 8218.500000
3130, 23017672.000000, 1421.250000, 8216.000000, 8198.000000, 8209.000000
3131, 23017832.000000, 1331.375000, 8181.000000, 8197.500000, 8198.000000
3132, 23017992.000000, 1254.625000, 8168.500000, 8194.000000, 8187.500000
3133, 23018152.000000, 1191.625000, 8159.000000, 8196.500000, 8186.000000
3134, 23018312.000000, 1147.375000, 8169.000000, 8197.000000, 8190.000000
3135, 23018472.000000, 1121.000000, 8172.000000, 8199.500000, 8193.500000
3136, 23018632.000000, 1104.500000, 8172.000000, 8198.000000, 8191.000000
3137, 23018792.000000, 1094.875000, 8182.000000, 8195.000000, 8191.500000
3138, 23018952.000000, 1085.625000, 8180.000000, 8195.000000, 8190.500000
3139, 23019112.000000, 1088.125000, 8180.500000, 8196.000000, 8192.500000
3140, 23019272.000000, 1132.875000, 8186.500000, 8199.000000, 8201.500000
3141, 23019432.000000, 1292.500000, 8189.500000, 8203.000000, 8210.500000
3142, 23019592.000000, 1577.875000, 8190.000000, 8204.500000, 8216.500000
3143, 23019752.000000, 1953.125000, 8208.000000, 8205.000000, 8221.500000
3144, 23019912.000000, 2334.625000, 8190.000000, 8193.500000, 8190.500000
3145, 23020072.000000, 2656.000000, 8178.500000, 8183.500000, 8173.000000
3146, 23020232.000000, 2889.750000, 8177.000000, 8184.500000, 8172.000000
3147, 23020392.000000, 3032.875000, 8183.500000, 8183.000000, 8172.500000
3148, 23020552.000000, 3108.875000, 8216.500000, 8216.000000, 8215.500000
3149, 23020712.000000, 3129.625000, 8494.000000, 8130.000000, 8257.500000
3150, 23020872.000000, 3105.000000, 8127.000000, 8087.000000, 8092.500000
3151, 23021032.000000, 3017.125000, 8156.500000, 8162.000000, 8144.000000
3152, 23021192.000000, 2888.000000, 8169.500000, 8183.500000, 8162.000000
3153, 23021352.000000, 2729.875000, 8172.000000, 8188.000000, 8168.000000
3154, 23021512.000000, 2583.750000, 8181.500000, 8192.500000, 8177.000000
3155, 23021672.000000, 2471.500000, 8184.000000, 8197.000000, 8184.000000
3156, 23021832.000000, 2406.125000, 8196.500000, 8195.000000, 8186.500000
3157, 23021992.000000, 2362.250000, 8207.000000, 8195.500000, 8189.000000
3158, 23022152.000000, 2321.500000, 8223.000000, 8198.500000, 8200.000000
3159, 23022312.000000, 2267.000000, 8243.000000, 8203.000000, 8212.000000
3160, 23022472.000000, 2202.250000, 8276.000000, 8205.000000, 8226.000000
3161, 23022632.000000, 2126.000000, 8293.000000, 8203.000000, 8231.000000
3162, 23022792.000000, 2038.500000, 8290.000000, 8201.000000, 8231.500000
3163, 23022952.000000, 1946.250000, 8243.000000, 8206.500000, 8223.500000
3164, 23023112.000000, 1851.250000, 8200.000000, 8207.500000, 8211.000000
3165, 23023272.000000, 1754.625000, 8173.000000, 8204.000000, 8196.500000
3166, 23023432.000000, 1652.750000, 8164.500000, 8198.000000, 8187.000000
3167, 23023592.000000, 1547.750000, 8160.500000, 8198.500000, 8187.000000
3168, 23023752.000000, 1427.375000, 8167.000000, 8201.000000, 8192.000000
3169, 23023912.000000, 1320.125000, 8173.000000, 8200.500000, 8195.500000
3170, 23024072.000000, 1242.625000, 8171.000000, 8202.000000, 8197.000000
3171, 23024232.000000, 1184.125000, 8175.000000, 8199.000000, 8195.000000
3172, 23024392.000000, 1167.375000, 8174.500000, 8195.000000, 8189.500000
3173, 23024552.000000, 1253.750000, 8175.000000, 8195.500000, 8190.500000
3174, 23024712.000000, 1471.250000, 8172.500000, 8196.500000, 8189.000000
3175, 23024872.000000, 1800.375000, 8174.000000, 8197.000000, 8191.500000
3176, 23025032.000000, 2158.875000, 8173.500000, 8200.000000, 8199.500000
3177, 23025192.000000, 2470.750000, 8179.500000, 8200.000000, 8204.500000
3178, 23025352.000000, 2700.875000, 8200.000000, 8207.000000, 8224.000000
3179, 23025512.000000, 2850.375000, 8186.000000, 8196.000000, 8192.500000
3180, 23025672.000000, 2937.500000, 8171.000000, 8186.500000, 8173.000000
3181, 23025832.000000, 2972.375000, 8169.500000, 8182.000000, 8164.500000
3182, 23025992.000000, 2961.000000, 8173.500000, 8181.500000, 8167.500000
3183, 23026152.000000, 2907.250000, 8174.500000, 8207.000000, 8190.000000
3184, 23026312.000000, 2805.625000, 8536.000000, 8153.000000, 8298.500000
3185, 23026472.000000, 2672.000000, 8147.500000, 8088.000000, 8110.500000
3186, 23026632.000000, 2531.500000, 8150.500000, 8152.000000, 8142.000000
3187, 23026792.000000, 2410.500000, 8162.500000, 8188.500000, 8167.000000
3188, 23026952.000000, 2319.375000, 8172.000000, 8190.000000, 8172.000000
3189, 23027112.000000, 2252.000000, 8177.000000, 8194.500000, 8180.000000
3190, 23027272.000000, 2194.375000, 8178.000000, 8196.000000, 8183.000000
3191, 23027432.000000, 2137.375000, 8191.000000, 8195.000000, 8186.000000
3192, 23027592.000000, 2068.000000, 8199.000000, 8199.000000, 8195.000000
3193, 23027752.000000, 1981.250000, 8212.500000, 8201.000000, 8201.500000
3194, 23027912.000000, 1883.000000, 8230.000000, 8206.500000, 8215.000000
3195, 23028072.000000, 1779.125000, 8258.000000, 8211.000000, 8231.000000
3196, 23028232.000000, 1673.875000, 8278.000000, 8209.500000, 8236.000000
3197, 23028392.000000, 1573.625000, 8279.500000, 8208.000000, 8239.000000
3198, 23028552.000000, 1476.375000, 8256.000000, 8207.500000, 8232.500000
3199, 23028712.000000, 1386.750000, 8203.500000, 8208.000000, 8216.500000
3200, 23028872.000000, 1307.500000, 8168.500000, 8203.000000, 8198.000000
3201, 23029032.000000, 1242.000000, 8152.000000, 8198.000000, 8186.500000
3202, 23029192.000000, 1185.500000, 8154.000000, 8195.500000, 8183.500000
3203, 23029352.000000, 1137.750000, 8157.000000, 8197.500000, 8189.500000
3204, 23029512.000000, 1093.875000, 8157.500000, 8199.500000, 8191.000000
3205, 23029672.000000, 1051.375000, 8167.000000, 8195.500000, 8190.000000
3206, 23029832.000000, 1018.500000, 8165.000000, 8195.000000, 8189.000000
3207, 23029992.000000, 1032.500000, 8163.500000, 8195.000000, 8188.500000
3208, 23030152.000000, 1160.875000, 8162.000000, 8194.500000, 8185.500000
3209, 23030312.000000, 1434.375000, 8159.000000, 8193.500000, 8183.000000
3210, 23030472.000000, 1820.000000, 8163.000000, 8196.000000, 8192.000000
3211, 23030632.000000, 2233.000000, 8162.000000, 8199.500000, 8197.000000
3212, 23030792.000000, 2600.500000, 8180.000000, 8200.000000, 8211.000000
3213, 23030952.000000, 2879.625000, 8186.000000, 8202.000000, 8209.000000
3214, 23031112.000000, 3071.875000, 8177.000000, 8190.500000, 8185.500000
3215, 23031272.000000, 3184.625000, 8166.000000, 8185.500000, 8171.500000
3216, 23031432.000000, 3244.625000, 8164.500000, 8181.000000, 8165.000000
3217, 23031592.000000, 3256.875000, 8167.500000, 8182.000000, 8166.000000
3218, 23031752.000000, 3222.750000, 8196.500000, 8217.500000, 8214.000000
3219, 23031912.000000, 3140.375000, 8501.000000, 8132.500000, 8269.500000
3220, 23032072.000000, 3022.500000, 8135.500000, 8086.000000, 8100.500000
3221, 23032232.000000, 2891.500000, 8150.000000, 8168.000000, 8153.500000
3222, 23032392.000000, 2775.250000, 8158.000000, 8188.500000, 8167.500000
3223, 23032552.000000, 2692.125000, 8166.000000, 8191.500000, 8172.500000
3224, 23032712.000000, 2639.125000, 8170.000000, 8196.500000, 8182.000000
3225, 23032872.000000, 2602.250000, 8177.500000, 8196.500000, 8186.000000
3226, 23033032.000000, 2565.750000, 8185.500000, 8197.500000, 8189.500000
3227, 23033192.000000, 2513.000000, 8199.500000, 8199.000000, 8195.500000
3228, 23033352.000000, 2446.125000, 8214.500000, 8203.000000, 8206.000000
3229, 23033512.000000, 2364.750000, 8236.500000, 8209.000000, 8220.000000
3230, 23033672.000000, 2272.000000, 8269.500000, 8208.500000, 8233.000000
3231, 23033832.000000, 2171.375000, 8284.000000, 8206.000000, 8234.500000
3232, 23033992.000000, 2062.625000, 8284.500000, 8207.000000, 8240.500000
3233, 23034152.000000, 1955.125000, 8248.500000, 8206.000000, 8228.000000
3234, 23034312.000000, 1848.500000, 8197.000000, 8205.000000, 8209.500000
3235, 23034472.000000, 1736.875000, 8171.500000, 8198.000000, 8192.000000
3236, 23034632.000000, 1625.500000, 8160.000000, 8196.000000, 8186.000000
3237, 23034792.000000, 1516.125000, 8156.000000, 8194.000000, 8181.500000
3238, 23034952.000000, 1409.875000, 8158.000000, 8198.000000, 8188.500000
3239, 23035112.000000, 1309.625000, 8162.000000, 8199.500000, 8192.500000
3240, 23035272.000000, 1217.625000, 8167.000000, 8197.500000, 8190.500000
3241, 23035432.000000, 1141.000000, 8169.500000, 8195.000000, 8188.500000
3242, 23035592.000000, 1110.500000, 8168.000000, 8192.500000, 8182.000000
3243, 23035752.000000, 1193.250000, 8168.500000, 8192.000000, 8182.500000
3244, 23035912.000000, 1411.625000, 8169.500000, 8193.000000, 8183.500000
3245, 23036072.000000, 1755.125000, 8174.500000, 8196.000000, 8193.500000
3246, 23036232.000000, 2134.250000, 8175.500000, 8200.000000, 8201.000000
3247, 23036392.000000, 2481.000000, 8189.000000, 8201.000000, 8214.000000
3248, 23036552.000000, 2757.375000, 8195.500000, 8200.500000, 8205.500000
3249, 23036712.000000, 2956.625000, 8178.000000, 8187.500000, 8175.500000
3250, 23036872.000000, 3086.625000, 8173.500000, 8185.500000, 8170.500000
3251, 23037032.000000, 3157.250000, 8173.500000, 8181.000000, 8164.000000
3252, 23037192.000000, 3179.125000, 8179.500000, 8182.500000, 8168.500000
3253, 23037352.000000, 3142.000000, 8267.000000, 8216.500000, 8234.500000
3254, 23037512.000000, 3048.625000, 8426.500000, 8141.000000, 8259.500000
3255, 23037672.000000, 2909.875000, 8144.500000, 8095.500000, 8099.000000
3256, 23037832.000000, 2752.250000, 8167.000000, 8175.500000, 8157.500000
3257, 23037992.000000, 2604.625000, 8170.000000, 8185.500000, 8164.500000
3258, 23038152.000000, 2480.000000, 8175.500000, 8194.000000, 8176.500000
3259, 23038312.000000, 2388.375000, 8180.000000, 8196.000000, 8181.500000
3260, 23038472.000000, 2312.250000, 8190.000000, 8194.500000, 8183.500000
3261, 23038632.000000, 2239.500000, 8195.000000, 8195.000000, 8186.000000
3262, 23038792.000000, 2164.875000, 8207.000000, 8196.000000, 8193.500000
3263, 23038952.000000, 2079.125000, 8219.500000, 8196.000000, 8199.500000
3264, 23039112.000000, 1980.875000, 8245.000000, 8197.500000, 8210.000000
3265, 23039272.000000, 1876.125000, 8270.500000, 8200.500000, 8226.500000
3266, 23039432.000000, 1769.875000, 8284.000000, 8197.000000, 8227.500000
3267, 23039592.000000, 1665.750000, 8279.000000, 8196.000000, 8227.000000
3268, 23039752.000000, 1566.500000, 8234.500000, 8197.500000, 8212.000000
3269, 23039912.000000, 1477.750000, 8191.500000, 8196.000000, 8198.500000
3270, 23040072.000000, 1399.500000, 8167.500000, 8193.000000, 8186.000000
3271, 23040232.000000, 1332.375000, 8162.000000, 8185.500000, 8176.500000
3272, 23040392.000000, 1272.125000, 8155.500000, 8188.000000, 8175.000000
3273, 23040552.000000, 1215.875000, 8162.000000, 8190.000000, 8180.500000
3274, 23040712.000000, 1161.500000, 8163.500000, 8191.500000, 8184.000000
3275, 23040872.000000, 1115.375000, 8169.000000, 8190.000000, 8184.000000
3276, 23041032.000000, 1087.375000, 8163.500000, 8186.500000, 8176.500000
3277, 23041192.000000, 1122.750000, 8169.500000, 8184.000000, 8174.500000
3278, 23041352.000000, 1277.875000, 8168.000000, 8184.500000, 8176.000000
3279, 23041512.000000, 1575.500000, 8166.500000, 8185.000000, 8174.500000
3280, 23041672.000000, 1968.625000, 8172.500000, 8188.000000, 8184.500000
3281, 23041832.000000, 2374.500000, 8177.500000, 8189.000000, 8190.500000
3282, 23041992.000000, 2727.125000, 8184.000000, 8194.500000, 8204.000000
3283, 23042152.000000, 2994.250000, 8195.500000, 8193.500000, 8201.500000
3284, 23042312.000000, 3176.500000, 8180.000000, 8185.500000, 8178.500000
3285, 23042472.000000, 3286.875000, 8172.000000, 8177.500000, 8163.500000
3286, 23042632.000000, 3343.250000, 8166.500000, 8174.500000, 8158.000000
3287, 23042792.000000, 3351.875000, 8170.500000, 8175.000000, 8159.000000
3288, 23042952.000000, 3305.125000, 8201.500000, 8206.000000, 8200.500000
3289, 23043112.000000, 3208.000000, 8490.500000, 8130.000000, 8262.000000
3290, 23043272.000000, 3077.000000, 8142.500000, 8091.500000, 8110.500000
3291, 23043432.000000, 2936.000000, 8150.500000, 8165.000000, 8147.500000
3292, 23043592.000000, 2803.750000, 8155.500000, 8176.500000, 8152.500000
3293, 23043752.000000, 2687.750000, 8162.000000, 8187.500000, 8168.500000
3294, 23043912.000000, 2592.750000, 8167.000000, 8190.000000, 8173.000000
3295, 23044072.000000, 2509.375000, 8178.500000, 8190.500000, 8178.000000
3296, 23044232.000000, 2425.875000, 8182.000000, 8191.500000, 8180.500000
3297, 23044392.000000, 2341.500000, 8192.500000, 8193.500000, 8186.000000
3298, 23044552.000000, 2246.750000, 8208.000000, 8195.500000, 8193.500000
3299, 23044712.000000, 2138.875000, 8229.000000, 8200.000000, 8208.500000
3300, 23044872.000000, 2020.750000, 8257.500000, 8201.500000, 8220.500000
3301, 23045032.000000, 1898.000000, 8276.000000, 8200.000000, 8227.000000
3302, 23045192.000000, 1778.125000, 8278.000000, 8201.000000, 8230.500000
3303, 23045352.000000, 1666.125000, 8240.000000, 8205.500000, 8223.500000
3304, 23045512.000000, 1561.000000, 8193.500000, 8204.000000, 8206.000000
3305, 23045672.000000, 1464.250000, 8163.000000, 8198.000000, 8188.000000
3306, 23045832.000000, 1374.750000, 8155.000000, 8193.000000, 8176.000000
3307, 23045992.000000, 1286.500000, 8154.500000, 8193.000000, 8180.500000
3308, 23046152.000000, 1202.875000, 8155.500000, 8196.000000, 8183.000000
3309, 23046312.000000, 1121.625000, 8159.000000, 8197.000000, 8186.000000
3310, 23046472.000000, 1048.750000, 8161.500000, 8193.500000, 8183.500000
3311, 23046632.000000, 989.500000, 8162.500000, 8190.500000, 8180.000000
3312, 23046792.000000, 975.000000, 8164.500000, 8189.000000, 8177.000000
3313, 23046952.000000, 1064.750000, 8160.000000, 8188.500000, 8173.500000
3314, 23047112.000000, 1295.125000, 8161.000000, 8189.500000, 8176.000000
3315, 23047272.000000, 1649.875000, 8168.000000, 8193.500000, 8185.000000
3316, 23047432.000000, 2040.375000, 8165.500000, 8193.500000, 8188.000000
3317, 23047592.000000, 2384.125000, 8175.500000, 8196.500000, 8199.500000
3318, 23047752.000000, 2645.000000, 8191.500000, 8199.500000, 8205.000000
3319, 23047912.000000, 2817.375000, 8173.000000, 8188.000000, 8176.500000
3320, 23048072.000000, 2918.375000, 8162.000000, 8181.500000, 8164.500000
3321, 23048232.000000, 2966.250000, 8164.000000, 8177.000000, 8158.000000
3322, 23048392.000000, 2972.500000, 8169.500000, 8177.000000, 8162.000000
3323, 23048552.000000, 2922.500000, 8203.500000, 8209.500000, 8205.500000
3324, 23048712.000000, 2828.625000, 8492.500000, 8126.000000, 8255.500000
3325, 23048872.000000, 2687.250000, 8130.500000, 8086.500000, 8101.500000
3326, 23049032.000000, 2532.500000, 8149.500000, 8165.000000, 8153.000000
3327, 23049192.000000, 2390.500000, 8158.000000, 8184.500000, 8167.000000
3328, 23049352.000000, 2276.250000, 8160.500000, 8191.500000, 8174.000000
3329, 23049512.000000, 2190.250000, 8165.000000, 8194.500000, 8180.000000
3330, 23049672.000000, 2124.875000, 8176.000000, 8197.500000, 8188.500000
3331, 23049832.000000, 2064.000000, 8183.500000, 8199.000000, 8193.500000
3332, 23049992.000000, 1998.250000, 8193.000000, 8202.500000, 8200.500000
3333, 23050152.000000, 1917.750000, 8205.000000, 8206.000000, 8208.000000
3334, 23050312.000000, 1826.125000, 8231.000000, 8208.000000, 8220.000000
3335, 23050472.000000, 1727.000000, 8257.500000, 8211.000000, 8231.000000
3336, 23050632.000000, 1624.875000, 8276.000000, 8207.000000, 8236.000000
3337, 23050792.000000, 1524.000000, 8279.000000, 8204.000000, 8237.000000
3338, 23050952.000000, 1424.250000, 8233.000000, 8205.500000, 8225.000000
3339, 23051112.000000, 1334.750000, 8188.500000, 8205.000000, 8208.500000
3340, 23051272.000000, 1255.750000, 8160.000000, 8196.500000, 8187.500000
3341, 23051432.000000, 1196.875000, 8156.000000, 8190.500000, 8180.000000
3342, 23051592.000000, 1150.625000, 8146.000000, 8194.000000, 8182.500000
3343, 23051752.000000, 1103.750000, 8156.500000, 8194.000000, 8186.500000
3344, 23051912.000000, 1055.375000, 8158.000000, 8195.500000, 8188.000000
3345, 23052072.000000, 1001.625000, 8159.000000, 8192.500000, 8184.500000
3346, 23052232.000000, 948.875000, 8163.000000, 8186.500000, 8177.500000
3347, 23052392.000000, 927.875000, 8163.500000, 8186.500000, 8179.500000
3348, 23052552.000000, 993.125000, 8167.000000, 8189.000000, 8180.000000
3349, 23052712.000000, 1207.125000, 8171.000000, 8196.000000, 8195.000000
3350, 23052872.000000, 1547.750000, 8173.000000, 8200.500000, 8204.500000
3351, 23053032.000000, 1948.000000, 8191.500000, 8203.000000, 8217.000000
3352, 23053192.000000, 2319.500000, 8187.500000, 8198.000000, 8205.000000
3353, 23053352.000000, 2615.125000, 8170.000000, 8186.000000, 8176.500000
3354, 23053512.000000, 2821.750000, 8165.000000, 8181.000000, 8168.000000
3355, 23053672.000000, 2951.625000, 8166.000000, 8180.000000, 8166.000000
3356, 23053832.000000, 3030.250000, 8161.500000, 8186.000000, 8171.000000
3357, 23053992.000000, 3058.500000, 8293.500000, 8214.000000, 8250.500000
3358, 23054152.000000, 3039.125000, 8349.000000, 8149.000000, 8244.000000
3359, 23054312.000000, 2966.250000, 8117.500000, 8094.500000, 8089.000000
3360, 23054472.000000, 2849.375000, 8158.000000, 8176.000000, 8159.500000
3361, 23054632.000000, 2708.500000, 8165.000000, 8186.500000, 8171.500000
3362, 23054792.000000, 2560.000000, 8171.500000, 8191.500000, 8181.000000
3363, 23054952.000000, 2426.750000, 8179.500000, 8195.500000, 8188.500000
3364, 23055112.000000, 2316.625000, 8189.000000, 8196.500000, 8190.000000
3365, 23055272.000000, 2233.625000, 8199.000000, 8199.500000, 8197.500000
3366, 23055432.000000, 2156.000000, 8205.000000, 8187.500000, 8189.000000
3367, 23055592.000000, 2072.500000, 8222.500000, 8190.500000, 8196.000000
3368, 23055752.000000, 1972.625000, 8246.500000, 8192.500000, 8209.500000
3369, 23055912.000000, 1863.500000, 8274.500000, 8194.000000, 8218.000000
3370, 23056072.000000, 1753.750000, 8285.500000, 8195.000000, 8223.500000
3371, 23056232.000000, 1653.250000, 8276.500000, 8194.000000, 8222.500000
3372, 23056392.000000, 1565.875000, 8227.500000, 8201.500000, 8215.000000
3373, 23056552.000000, 1489.500000, 8185.000000, 8204.500000, 8207.500000
3374, 23056712.000000, 1419.500000, 8164.000000, 8202.000000, 8196.500000
3375, 23056872.000000, 1349.500000, 8156.000000, 8200.500000, 8191.500000
3376, 23057032.000000, 1276.375000, 8156.000000, 8198.000000, 8188.000000
3377, 23057192.000000, 1204.875000, 8161.000000, 8201.000000, 8193.500000
3378, 23057352.000000, 1134.500000, 8167.000000, 8201.500000, 8196.500000
3379, 23057512.000000, 1066.750000, 8166.500000, 8202.000000, 8196.500000
3380, 23057672.000000, 1004.500000, 8167.000000, 8200.500000, 8194.000000
3381, 23057832.000000, 969.875000, 8167.000000, 8196.000000, 8188.500000
3382, 23057992.000000, 1014.125000, 8172.000000, 8195.500000, 8188.500000
3383, 23058152.000000, 1185.750000, 8177.000000, 8202.000000, 8203.000000
3384, 23058312.000000, 1483.250000, 8179.500000, 8208.500000, 8216.000000
3385, 23058472.000000, 1832.875000, 8189.000000, 8208.500000, 8225.500000
3386, 23058632.000000, 2157.750000, 8194.000000, 8204.500000, 8213.500000
3387, 23058792.000000, 2400.250000, 8176.500000, 8191.500000, 8184.500000
3388, 23058952.000000, 2561.750000, 8172.500000, 8188.500000, 8178.500000
3389, 23059112.000000, 2659.375000, 8172.500000, 8185.500000, 8176.000000
3390, 23059272.000000, 2718.875000, 8171.000000, 8190.000000, 8179.500000
3391, 23059432.000000, 2743.875000, 8295.500000, 8222.500000, 8261.500000
3392, 23059592.000000, 2724.375000, 8365.500000, 8131.000000, 8235.500000
3393, 23059752.000000, 2646.750000, 8125.000000, 8094.500000, 8089.500000
3394, 23059912.000000, 2518.250000, 8158.500000, 8184.000000, 8170.000000
3395, 23060072.000000, 2360.625000, 8165.000000, 8195.500000, 8181.000000
3396, 23060232.000000, 2217.000000, 8168.000000, 8197.000000, 8184.000000
3397, 23060392.000000, 2111.500000, 8176.500000, 8200.000000, 8190.000000
3398, 23060552.000000, 2041.625000, 8180.000000, 8201.500000, 8194.500000
3399, 23060712.000000, 2001.250000, 8189.000000, 8204.500000, 8201.500000
3400, 23060872.000000, 1964.875000, 8197.500000, 8207.500000, 8209.000000
3401, 23061032.000000, 1914.000000, 8216.500000, 8208.500000, 8215.500000
3402, 23061192.000000, 1845.125000, 8241.500000, 8210.500000, 8228.500000
3403, 23061352.000000, 1758.250000, 8266.500000, 8212.500000, 8239.500000
3404, 23061512.000000, 1660.875000, 8279.000000, 8212.500000, 8244.500000
3405, 23061672.000000, 1557.750000, 8272.500000, 8209.000000, 8240.000000
3406, 23061832.000000, 1456.000000, 8229.000000, 8211.000000, 8229.500000
3407, 23061992.000000, 1361.125000, 8185.500000, 8207.500000, 8209.500000
3408, 23062152.000000, 1278.500000, 8166.000000, 8202.000000, 8196.000000
3409, 23062312.000000, 1216.250000, 8155.500000, 8201.000000, 8192.000000
3410, 23062472.000000, 1171.125000, 8154.500000, 8200.000000, 8188.500000
3411, 23062632.000000, 1135.875000, 8157.000000, 8199.000000, 8186.000000
3412, 23062792.000000, 1104.125000, 8165.500000, 8201.500000, 8195.000000
3413, 23062952.000000, 1068.875000, 8169.000000, 8200.000000, 8192.000000
3414, 23063112.000000, 1035.875000, 8168.000000, 8198.000000, 8191.500000
3415, 23063272.000000, 1032.875000, 8163.500000, 8197.500000, 8189.500000
3416, 23063432.000000, 1126.875000, 8162.500000, 8196.000000, 8185.500000
3417, 23063592.000000, 1363.250000, 8160.500000, 8192.500000, 8179.000000
3418, 23063752.000000, 1716.500000, 8174.500000, 8198.000000, 8198.500000
3419, 23063912.000000, 2101.125000, 8170.500000, 8205.000000, 8206.500000
3420, 23064072.000000, 2439.125000, 8185.500000, 8207.000000, 8222.000000
3421, 23064232.000000, 2693.625000, 8183.500000, 8201.000000, 8202.500000
3422, 23064392.000000, 2873.750000, 8166.500000, 8187.500000, 8174.000000
3423, 23064552.000000, 2990.750000, 8162.000000, 8184.500000, 8167.500000
3424, 23064712.000000, 3057.125000, 8157.500000, 8186.500000, 8168.000000
3425, 23064872.000000, 3081.625000, 8154.500000, 8190.000000, 8172.500000
3426, 23065032.000000, 3060.375000, 8322.500000, 8217.000000, 8265.000000
3427, 23065192.000000, 2987.250000, 8311.000000, 8125.500000, 8213.500000
3428, 23065352.000000, 2874.500000, 8115.000000, 8100.500000, 8087.500000
3429, 23065512.000000, 2741.250000, 8147.500000, 8184.000000, 8161.500000
3430, 23065672.000000, 2613.125000, 8152.500000, 8193.500000, 8172.500000
3431, 23065832.000000, 2503.625000, 8162.500000, 8197.000000, 8178.500000
3432, 23065992.000000, 2424.500000, 8163.500000, 8200.000000, 8182.500000
3433, 23066152.000000, 2357.750000, 8177.000000, 8201.000000, 8194.000000
3434, 23066312.000000, 2292.500000, 8184.500000, 8205.500000, 8200.000000
3435, 23066472.000000, 2217.000000, 8195.500000, 8206.000000, 8204.500000
3436, 23066632.000000, 2128.875000, 8213.500000, 8208.500000, 8213.000000
3437, 23066792.000000, 2024.750000, 8235.500000, 8210.000000, 8221.000000
3438, 23066952.000000, 1915.375000, 8260.500000, 8214.000000, 8236.500000
3439, 23067112.000000, 1802.875000, 8281.500000, 8212.500000, 8245.000000
3440, 23067272.000000, 1689.625000, 8270.000000, 8211.500000, 8240.500000
3441, 23067432.000000, 1585.000000, 8223.500000, 8209.000000, 8223.000000
3442, 23067592.000000, 1496.000000, 8187.000000, 8202.500000, 8206.000000
3443, 23067752.000000, 1420.500000, 8164.000000, 8201.000000, 8194.000000
3444, 23067912.000000, 1351.875000, 8155.000000, 8199.000000, 8187.500000
3445, 23068072.000000, 1292.250000, 8157.500000, 8201.000000, 8191.500000
3446, 23068232.000000, 1243.875000, 8163.500000, 8197.500000, 8190.000000
3447, 23068392.000000, 1200.125000, 8167.000000, 8198.500000, 8193.000000
3448, 23068552.000000, 1151.375000, 8166.500000, 8193.500000, 8185.500000
3449, 23068712.000000, 1101.375000, 8169.000000, 8193.500000, 8187.500000
3450, 23068872.000000, 1084.625000, 8168.500000, 8194.500000, 8188.000000
3451, 23069032.000000, 1168.250000, 8170.500000, 8189.500000, 8180.500000
3452, 23069192.000000, 1389.875000, 8171.000000, 8187.500000, 8180.500000
3453, 23069352.000000, 1737.125000, 8174.000000, 8194.500000, 8194.500000
3454, 23069512.000000, 2109.375000, 8178.000000, 8202.000000, 8207.500000
3455, 23069672.000000, 2431.250000, 8187.500000, 8203.500000, 8217.500000
3456, 23069832.000000, 2670.500000, 8194.000000, 8201.500000, 8211.000000
3457, 23069992.000000, 2831.250000, 8179.000000, 8186.000000, 8178.500000
3458, 23070152.000000, 2930.375000, 8167.000000, 8185.000000, 8171.500000
3459, 23070312.000000, 2979.500000, 8164.000000, 8185.000000, 8169.500000
3460, 23070472.000000, 2989.875000, 8167.500000, 8185.500000, 8171.500000
3461, 23070632.000000, 2950.000000, 8245.000000, 8219.500000, 8235.000000
3462, 23070792.000000, 2856.625000, 8429.500000, 8133.500000, 8253.000000
3463, 23070952.000000, 2720.750000, 8124.000000, 8094.500000, 8095.500000
3464, 23071112.000000, 2568.500000, 8150.500000, 8182.000000, 8165.500000
3465, 23071272.000000, 2426.500000, 8154.000000, 8193.500000, 8172.500000
3466, 23071432.000000, 2310.000000, 8160.500000, 8195.000000, 8175.500000
3467, 23071592.000000, 2217.375000, 8162.000000, 8198.000000, 8181.500000
3468, 23071752.000000, 2141.375000, 8175.000000, 8200.000000, 8190.000000
3469, 23071912.000000, 2069.500000, 8179.000000, 8201.000000, 8192.000000
3470, 23072072.000000, 1991.750000, 8194.500000, 8204.500000, 8202.500000
3471, 23072232.000000, 1907.750000, 8206.500000, 8202.000000, 8204.000000
3472, 23072392.000000, 1817.250000, 8230.500000, 8206.000000, 8218.500000
3473, 23072552.000000, 1726.750000, 8252.000000, 8207.500000, 8227.500000
3474, 23072712.000000, 1646.250000, 8269.500000, 8209.500000, 8238.000000
3475, 23072872.000000, 1574.125000, 8267.500000, 8207.500000, 8237.000000
3476, 23073032.000000, 1511.125000, 8228.000000, 8207.500000, 8224.500000
3477, 23073192.000000, 1456.500000, 8190.000000, 8204.500000, 8208.500000
3478, 23073352.000000, 1408.875000, 8163.500000, 8200.000000, 8192.500000
3479, 23073512.000000, 1364.750000, 8156.000000, 8200.000000, 8189.000000
3480, 23073672.000000, 1319.750000, 8155.500000, 8201.500000, 8192.500000
3481, 23073832.000000, 1273.125000, 8157.000000, 8196.500000, 8183.500000
3482, 23073992.000000, 1228.875000, 8160.000000, 8197.500000, 8187.500000
3483, 23074152.000000, 1185.375000, 8161.000000, 8199.000000, 8189.500000
3484, 23074312.000000, 1149.000000, 8164.000000, 8195.000000, 8186.000000
3485, 23074472.000000, 1142.750000, 8163.000000, 8193.500000, 8182.500000
3486, 23074632.000000, 1219.000000, 8165.500000, 8191.000000, 8180.500000
3487, 23074792.000000, 1424.250000, 8166.000000, 8191.500000, 8180.500000
3488, 23074952.000000, 1753.875000, 8166.500000, 8190.000000, 8179.500000
3489, 23075112.000000, 2132.125000, 8173.500000, 8198.500000, 8196.500000
3490, 23075272.000000, 2475.750000, 8173.500000, 8200.500000, 8200.000000
3491, 23075432.000000, 2736.625000, 8192.500000, 8205.500000, 8219.500000
3492, 23075592.000000, 2918.375000, 8185.000000, 8196.500000, 8191.500000
3493, 23075752.000000, 3026.875000, 8169.000000, 8187.500000, 8172.500000
3494, 23075912.000000, 3088.625000, 8162.000000, 8185.000000, 8164.500000
3495, 23076072.000000, 3109.250000, 8166.000000, 8185.500000, 8165.500000
3496, 23076232.000000, 3091.625000, 8151.500000, 8193.000000, 8165.000000
3497, 23076392.000000, 3027.750000, 8402.500000, 8198.000000, 8277.500000
3498, 23076552.000000, 2924.875000, 8244.500000, 8135.000000, 8204.000000
3499, 23076712.000000, 2793.000000, 8127.500000, 8123.500000, 8112.000000
3500, 23076872.000000, 2655.500000, 8148.500000, 8187.000000, 8162.000000
3501, 23077032.000000, 2530.000000, 8158.500000, 8190.500000, 8166.500000
3502, 23077192.000000, 2422.250000, 8165.000000, 8194.000000, 8171.000000
3503, 23077352.000000, 2331.750000, 8170.500000, 8195.500000, 8179.500000
3504, 23077512.000000, 2250.125000, 8174.500000, 8197.500000, 8181.000000
3505, 23077672.000000, 2171.375000, 8187.500000, 8197.500000, 8187.000000
3506, 23077832.000000, 2090.625000, 8203.000000, 8198.500000, 8195.000000
3507, 23077992.000000, 1999.875000, 8217.500000, 8200.000000, 8202.000000
3508, 23078152.000000, 1905.125000, 8242.500000, 8203.500000, 8215.000000
3509, 23078312.000000, 1807.625000, 8265.000000, 8207.000000, 8228.500000
3510, 23078472.000000, 1714.500000, 8275.500000, 8203.000000, 8227.500000
3511, 23078632.000000, 1626.750000, 8265.500000, 8202.500000, 8225.500000
3512, 23078792.000000, 1542.000000, 8218.000000, 8204.000000, 8211.000000
3513, 23078952.000000, 1465.875000, 8184.500000, 8203.000000, 8200.000000
3514, 23079112.000000, 1396.750000, 8161.500000, 8196.000000, 8184.000000
3515, 23079272.000000, 1336.250000, 8154.000000, 8196.000000, 8182.000000
3516, 23079432.000000, 1281.250000, 8158.000000, 8194.500000, 8181.500000
3517, 23079592.000000, 1227.500000, 8162.000000, 8194.000000, 8182.500000
3518, 23079752.000000, 1180.625000, 8162.500000, 8195.000000, 8184.500000
3519, 23079912.000000, 1133.125000, 8166.000000, 8192.000000, 8182.000000
3520, 23080072.000000, 1088.000000, 8163.500000, 8190.000000, 8178.500000
3521, 23080232.000000, 1071.000000, 8165.500000, 8189.500000, 8178.000000
3522, 23080392.000000, 1138.500000, 8163.500000, 8186.000000, 8172.500000
3523, 23080552.000000, 1344.875000, 8163.500000, 8186.000000, 8172.500000
3524, 23080712.000000, 1655.125000, 8163.500000, 8186.500000, 8174.500000
3525, 23080872.000000, 1993.875000, 8167.500000, 8194.500000, 8189.500000
3526, 23081032.000000, 2279.500000, 8170.500000, 8196.000000, 8195.500000
3527, 23081192.000000, 2481.250000, 8188.500000, 8203.500000, 8215.500000
3528, 23081352.000000, 2607.375000, 8185.500000, 8196.500000, 8195.500000
3529, 23081512.000000, 2675.875000, 8163.500000, 8185.500000, 8170.000000
3530, 23081672.000000, 2702.250000, 8162.000000, 8184.000000, 8165.500000
3531, 23081832.000000, 2689.875000, 8165.000000, 8179.500000, 8161.500000
3532, 23081992.000000, 2637.500000, 8151.500000, 8195.000000, 8170.500000
3533, 23082152.000000, 2535.875000, 8432.000000, 8188.500000, 8284.500000
3534, 23082312.000000, 2408.125000, 8203.500000, 8124.500000, 8179.000000
3535, 23082472.000000, 2270.250000, 8117.000000, 8125.500000, 8112.000000
3536, 23082632.000000, 2152.000000, 8151.500000, 8183.500000, 8161.500000
3537, 23082792.000000, 2065.500000, 8158.500000, 8191.000000, 8171.000000
3538, 23082952.000000, 2011.250000, 8161.000000, 8196.500000, 8179.000000
3539, 23083112.000000, 1980.750000, 8167.500000, 8198.000000, 8184.000000
3540, 23083272.000000, 1958.750000, 8178.000000, 8198.500000, 8190.500000
3541, 23083432.000000, 1932.500000, 8184.000000, 8200.500000, 8194.500000
3542, 23083592.000000, 1895.750000, 8201.500000, 8202.500000, 8203.000000
3543, 23083752.000000, 1846.250000, 8216.500000, 8205.500000, 8210.500000
3544, 23083912.000000, 1784.625000, 8238.000000, 8208.000000, 8219.500000
3545, 23084072.000000, 1715.875000, 8265.000000, 8209.000000, 8233.000000
3546, 23084232.000000, 1643.625000, 8273.500000, 8204.500000, 8233.000000
3547, 23084392.000000, 1576.750000, 8262.000000, 8205.500000, 8232.000000
3548, 23084552.000000, 1517.125000, 8214.500000, 8211.000000, 8224.000000
3549, 23084712.000000, 1463.500000, 8170.000000, 8210.000000, 8206.500000
3550, 23084872.000000, 1416.875000, 8159.000000, 8202.500000, 8195.500000
3551, 23085032.000000, 1377.250000, 8147.500000, 8197.500000, 8185.000000
3552, 23085192.000000, 1345.625000, 8150.500000, 8199.000000, 8189.000000
3553, 23085352.000000, 1318.125000, 8154.500000, 8199.500000, 8192.000000
3554, 23085512.000000, 1293.750000, 8159.500000, 8198.000000, 8192.500000
3555, 23085672.000000, 1264.875000, 8156.000000, 8195.500000, 8188.500000
3556, 23085832.000000, 1233.875000, 8158.000000, 8188.500000, 8181.500000
3557, 23085992.000000, 1223.500000, 8157.000000, 8187.500000, 8178.500000
3558, 23086152.000000, 1289.125000, 8157.500000, 8188.500000, 8181.000000
3559, 23086312.000000, 1477.500000, 8158.000000, 8186.000000, 8179.000000
3560, 23086472.000000, 1786.750000, 8164.000000, 8190.500000, 8191.000000
3561, 23086632.000000, 2141.250000, 8168.500000, 8199.000000, 8202.500000
3562, 23086792.000000, 2458.375000, 8179.000000, 8204.500000, 8222.000000
3563, 23086952.000000, 2690.750000, 8182.500000, 8198.000000, 8203.500000
3564, 23087112.000000, 2849.500000, 8167.000000, 8187.000000, 8179.000000
3565, 23087272.000000, 2940.500000, 8159.500000, 8182.500000, 8168.500000
3566, 23087432.000000, 2981.625000, 8162.500000, 8182.000000, 8167.000000
3567, 23087592.000000, 2978.375000, 8156.000000, 8189.000000, 8171.000000
3568, 23087752.000000, 2929.125000, 8314.000000, 8213.000000, 8259.000000
3569, 23087912.000000, 2832.000000, 8305.000000, 8142.500000, 8226.500000
3570, 23088072.000000, 2698.500000, 8109.500000, 8094.000000, 8080.500000
3571, 23088232.000000, 2544.250000, 8152.500000, 8176.500000, 8160.500000
3572, 23088392.000000, 2393.125000, 8159.500000, 8189.500000, 8173.000000
3573, 23088552.000000, 2266.250000, 8164.000000, 8194.500000, 8181.000000
3574, 23088712.000000, 2167.125000, 8171.500000, 8197.000000, 8185.500000
3575, 23088872.000000, 2095.750000, 8173.500000, 8196.000000, 8185.000000
3576, 23089032.000000, 2037.250000, 8184.500000, 8197.000000, 8190.500000
3577, 23089192.000000, 1981.625000, 8197.000000, 8194.500000, 8191.000000
3578, 23089352.000000, 1921.875000, 8213.000000, 8198.000000, 8201.000000
3579, 23089512.000000, 1853.875000, 8239.000000, 8201.500000, 8218.000000
3580, 23089672.000000, 1783.375000, 8261.500000, 8198.500000, 8222.000000
3581, 23089832.000000, 1709.875000, 8274.000000, 8197.000000, 8227.000000
3582, 23089992.000000, 1635.250000, 8261.000000, 8191.500000, 8221.500000
3583, 23090152.000000, 1561.250000, 8212.500000, 8196.000000, 8217.500000
3584, 23090312.000000, 1488.625000, 8172.500000, 8193.500000, 8203.500000
3585, 23090472.000000, 1420.500000, 8156.000000, 8190.000000, 8194.000000
3586, 23090632.000000, 1354.875000, 8144.500000, 8184.500000, 8184.000000
3587, 23090792.000000, 1290.125000, 8144.000000, 8187.000000, 8185.000000
3588, 23090952.000000, 1224.750000, 8148.000000, 8189.000000, 8189.000000
3589, 23091112.000000, 1162.000000, 8153.000000, 8191.000000, 8191.000000
3590, 23091272.000000, 1097.750000, 8155.000000, 8192.000000, 8192.000000
3591, 23091432.000000, 1032.750000, 8159.000000, 8188.500000, 8189.500000
3592, 23091592.000000, 977.500000, 8159.000000, 8187.000000, 8186.000000
3593, 23091752.000000, 980.125000, 8157.500000, 8187.500000, 8186.500000
3594, 23091912.000000, 1100.750000, 8160.500000, 8190.500000, 8192.500000
3595, 23092072.000000, 1363.125000, 8166.500000, 8196.500000, 8205.500000
3596, 23092232.000000, 1695.250000, 8168.500000, 8197.000000, 8208.000000
3597, 23092392.000000, 2001.000000, 8187.000000, 8200.000000, 8217.000000
3598, 23092552.000000, 2228.500000, 8171.000000, 8187.000000, 8185.000000
3599, 23092712.000000, 2373.750000, 8159.000000, 8180.000000, 8171.000000
3600, 23092872.000000, 2456.625000, 8158.000000, 8178.000000, 8164.500000
3601, 23093032.000000, 2498.875000, 8165.000000, 8180.500000, 8170.000000
3602, 23093192.000000, 2517.500000, 8183.500000, 8210.500000, 8206.000000
3603, 23093352.000000, 2515.625000, 8515.500000, 8122.000000, 8266.000000
3604, 23093512.000000, 2487.500000, 8120.000000, 8080.000000, 8096.000000
3605, 23093672.000000, 2429.125000, 8145.500000, 8160.000000, 8150.000000
3606, 23093832.000000, 2353.750000, 8158.000000, 8189.000000, 8173.500000
3607, 23093992.000000, 2271.625000, 8164.000000, 8192.000000, 8178.000000
3608, 23094152.000000, 2200.125000, 8172.500000, 8196.000000, 8188.500000
3609, 23094312.000000, 2149.375000, 8176.000000, 8199.000000, 8194.000000
3610, 23094472.000000, 2119.750000, 8188.500000, 8199.500000, 8198.500000
3611, 23094632.000000, 2095.375000, 8197.000000, 8199.000000, 8199.000000
3612, 23094792.000000, 2070.125000, 8212.000000, 8197.500000, 8203.500000
3613, 23094952.000000, 2029.125000, 8228.500000, 8202.000000, 8209.500000
3614, 23095112.000000, 1970.500000, 8260.000000, 8206.500000, 8229.000000
3615, 23095272.000000, 1898.250000, 8277.500000, 8205.500000, 8235.500000
3616, 23095432.000000, 1817.875000, 8275.000000, 8204.000000, 8234.000000
3617, 23095592.000000, 1734.750000, 8247.000000, 8200.500000, 8221.000000
3618, 23095752.000000, 1657.625000, 8197.500000, 8204.000000, 8209.500000
3619, 23095912.000000, 1593.625000, 8176.500000, 8199.000000, 8199.000000
3620, 23096072.000000, 1541.625000, 8159.000000, 8194.000000, 8183.500000
3621, 23096232.000000, 1498.000000, 8159.000000, 8192.500000, 8181.500000
3622, 23096392.000000, 1461.250000, 8159.500000, 8196.500000, 8188.000000
3623, 23096552.000000, 1426.625000, 8165.500000, 8199.500000, 8193.000000
3624, 23096712.000000, 1389.250000, 8168.500000, 8203.000000, 8197.000000
3625, 23096872.000000, 1349.125000, 8171.500000, 8202.500000, 8197.000000
3626, 23097032.000000, 1306.500000, 8173.500000, 8198.500000, 8192.500000
3627, 23097192.000000, 1296.750000, 8169.500000, 8201.000000, 8191.500000
3628, 23097352.000000, 1363.750000, 8170.000000, 8201.000000, 8194.000000
3629, 23097512.000000, 1564.750000, 8165.000000, 8201.500000, 8193.000000
3630, 23097672.000000, 1871.125000, 8179.000000, 8206.000000, 8210.000000
3631, 23097832.000000, 2210.875000, 8174.000000, 8207.000000, 8209.000000
3632, 23097992.000000, 2494.625000, 8199.000000, 8213.000000, 8235.000000
3633, 23098152.000000, 2690.750000, 8190.500000, 8206.000000, 8212.000000
3634, 23098312.000000, 2810.875000, 8173.500000, 8196.000000, 8188.000000
3635, 23098472.000000, 2868.375000, 8162.500000, 8191.500000, 8175.000000
3636, 23098632.000000, 2886.625000, 8172.000000, 8190.000000, 8176.000000
3637, 23098792.000000, 2866.875000, 8157.000000, 8202.000000, 8178.000000
3638, 23098952.000000, 2811.000000, 8455.000000, 8197.500000, 8304.500000
3639, 23099112.000000, 2718.500000, 8201.500000, 8110.000000, 8160.000000
3640, 23099272.000000, 2596.375000, 8139.500000, 8135.000000, 8126.000000
3641, 23099432.000000, 2462.875000, 8159.000000, 8191.000000, 8168.000000
3642, 23099592.000000, 2338.500000, 8166.500000, 8197.500000, 8176.000000
3643, 23099752.000000, 2239.750000, 8170.500000, 8201.000000, 8182.000000
3644, 23099912.000000, 2166.125000, 8179.500000, 8201.000000, 8186.000000
3645, 23100072.000000, 2113.750000, 8185.000000, 8202.500000, 8191.500000
3646, 23100232.000000, 2067.625000, 8199.000000, 8200.500000, 8192.500000
3647, 23100392.000000, 2018.250000, 8203.500000, 8202.500000, 8198.500000
3648, 23100552.000000, 1956.625000, 8225.500000, 8206.000000, 8211.500000
3649, 23100712.000000, 1887.875000, 8248.500000, 8211.000000, 8226.500000
3650, 23100872.000000, 1814.125000, 8275.000000, 8209.000000, 8233.000000
3651, 23101032.000000, 1735.375000, 8278.000000, 8205.000000, 8231.000000
3652, 23101192.000000, 1654.875000, 8267.500000, 8206.500000, 8232.000000
3653, 23101352.000000, 1570.750000, 8221.000000, 8206.500000, 8218.000000
3654, 23101512.000000, 1489.125000, 8185.000000, 8203.500000, 8202.000000
3655, 23101672.000000, 1412.250000, 8166.000000, 8197.000000, 8189.000000
3656, 23101832.000000, 1343.750000, 8161.500000, 8197.500000, 8188.500000
3657, 23101992.000000, 1277.125000, 8163.000000, 8195.500000, 8186.500000
3658, 23102152.000000, 1212.750000, 8165.500000, 8199.500000, 8194.000000
3659, 23102312.000000, 1150.000000, 8164.500000, 8202.000000, 8196.000000
3660, 23102472.000000, 1088.750000, 8168.000000, 8198.500000, 8191.500000
3661, 23102632.000000, 1027.250000, 8168.500000, 8194.500000, 8186.000000
3662, 23102792.000000, 992.250000, 8169.500000, 8192.000000, 8182.500000
3663, 23102952.000000, 1051.875000, 8164.500000, 8193.500000, 8183.500000
3664, 23103112.000000, 1272.500000, 8167.000000, 8195.000000, 8185.500000
3665, 23103272.000000, 1700.250000, 8171.500000, 8199.500000, 8195.000000
3666, 23103432.000000, 2091.125000, 8172.000000, 8203.000000, 8202.500000
3667, 23103592.000000, 2374.875000, 8183.000000, 8208.500000, 8218.500000
3668, 23103752.000000, 2569.750000, 8198.000000, 8209.000000, 8218.000000
3669, 23103912.000000, 2697.625000, 8181.000000, 8194.500000, 8187.500000
3670, 23104072.000000, 2769.625000, 8168.000000, 8184.500000, 8169.500000
3671, 23104232.000000, 2792.500000, 8171.500000, 8185.000000, 8168.500000
3672, 23104392.000000, 2766.000000, 8167.000000, 8189.500000, 8170.000000
3673, 23104552.000000, 2686.375000, 8238.500000, 8222.000000, 8231.000000
3674, 23104712.000000, 2568.250000, 8456.500000, 8133.500000, 8260.000000
3675, 23104872.000000, 2431.625000, 8133.500000, 8091.000000, 8096.000000
3676, 23105032.000000, 2305.625000, 8156.000000, 8180.500000, 8163.000000
3677, 23105192.000000, 2209.375000, 8161.000000, 8194.500000, 8173.500000
3678, 23105352.000000, 2147.750000, 8168.000000, 8198.000000, 8179.000000
3679, 23105512.000000, 2109.500000, 8176.000000, 8204.000000, 8190.500000
3680, 23105672.000000, 2080.500000, 8173.500000, 8203.000000, 8188.000000
3681, 23105832.000000, 2049.875000, 8189.000000, 8203.500000, 8194.500000
3682, 23105992.000000, 2015.125000, 8198.000000, 8204.000000, 8199.000000
3683, 23106152.000000, 1973.750000, 8213.500000, 8207.500000, 8209.000000
3684, 23106312.000000, 1924.375000, 8233.000000, 8211.000000, 8221.000000
3685, 23106472.000000, 1870.875000, 8259.500000, 8210.000000, 8230.000000
3686, 23106632.000000, 1816.250000, 8269.000000, 8211.000000, 8233.500000
3687, 23106792.000000, 1761.250000, 8273.000000, 8207.000000, 8232.000000
3688, 23106952.000000, 1705.000000, 8239.500000, 8213.000000, 8228.500000
3689, 23107112.000000, 1645.000000, 8195.500000, 8209.500000, 8209.000000
3690, 23107272.000000, 1588.125000, 8173.500000, 8204.000000, 8194.000000
3691, 23107432.000000, 1528.375000, 8160.000000, 8200.500000, 8184.500000
3692, 23107592.000000, 1461.250000, 8163.500000, 8198.000000, 8184.000000
3693, 23107752.000000, 1384.000000, 8164.000000, 8204.000000, 8193.000000
3694, 23107912.000000, 1307.125000, 8165.500000, 8202.000000, 8189.500000
3695, 23108072.000000, 1231.500000, 8163.000000, 8198.000000, 8184.000000
3696, 23108232.000000, 1183.250000, 8171.500000, 8193.500000, 8183.000000
3697, 23108392.000000, 1209.250000, 8165.500000, 8192.000000, 8177.500000
3698, 23108552.000000, 1365.250000, 8170.000000, 8192.500000, 8179.500000
3699, 23108712.000000, 1648.000000, 8166.000000, 8193.000000, 8180.000000
3700, 23108872.000000, 1972.250000, 8167.000000, 8192.000000, 8179.000000
3701, 23109032.000000, 2256.375000, 8174.500000, 8196.000000, 8191.500000
3702, 23109192.000000, 2469.250000, 8178.500000, 8198.000000, 8197.000000
3703, 23109352.000000, 2611.750000, 8199.500000, 8206.000000, 8221.000000
3704, 23109512.000000, 2698.125000, 8191.000000, 8199.500000, 8199.500000
3705, 23109672.000000, 2745.500000, 8173.000000, 8185.000000, 8168.500000
3706, 23109832.000000, 2760.750000, 8168.500000, 8180.500000, 8160.000000
3707, 23109992.000000, 2742.250000, 8171.000000, 8180.000000, 8161.000000
3708, 23110152.000000, 2686.875000, 8155.500000, 8194.000000, 8166.000000
3709, 23110312.000000, 2591.750000, 8461.000000, 8185.500000, 8293.000000
3710, 23110472.000000, 2474.875000, 8209.500000, 8113.000000, 8169.000000
3711, 23110632.000000, 2354.250000, 8146.500000, 8134.000000, 8128.000000
3712, 23110792.000000, 2249.375000, 8163.500000, 8184.000000, 8160.500000
3713, 23110952.000000, 2167.500000, 8162.500000, 8191.500000, 8170.000000
3714, 23111112.000000, 2107.500000, 8171.000000, 8194.000000, 8177.000000
3715, 23111272.000000, 2058.125000, 8177.500000, 8196.500000, 8182.000000
3716, 23111432.000000, 2004.875000, 8184.000000, 8195.500000, 8183.500000
3717, 23111592.000000, 1939.500000, 8195.000000, 8194.000000, 8185.500000
3718, 23111752.000000, 1859.750000, 8204.000000, 8200.500000, 8197.500000
3719, 23111912.000000, 1774.125000, 8221.500000, 8204.500000, 8210.000000
3720, 23112072.000000, 1683.250000, 8244.000000, 8207.000000, 8219.500000
3721, 23112232.000000, 1588.250000, 8265.000000, 8206.000000, 8227.500000
3722, 23112392.000000, 1494.500000, 8271.500000, 8206.500000, 8232.500000
3723, 23112552.000000, 1405.125000, 8260.000000, 8208.500000, 8233.500000
3724, 23112712.000000, 1325.250000, 8211.000000, 8209.000000, 8218.000000
3725, 23112872.000000, 1253.125000, 8181.500000, 8201.000000, 8197.000000
3726, 23113032.000000, 1194.375000, 8160.000000, 8198.000000, 8186.000000
3727, 23113192.000000, 1141.875000, 8156.000000, 8196.500000, 8182.000000
