T,,PPG,ECG,,
1714,11890944,1340,8170,8188,8179
1715,11891104,1652.5,8175,8186,8180
1716,11891264,1974,8180,8195,8198
1717,11891424,2225.5,8180,8197,8204
1718,11891584,2370,8203,8202,8220
1719,11891744,2425,8184,8190,8184
1720,11891904,2423,8175,8180,8166
1721,11892064,2383.5,8171,8179,8162
1722,11892224,2319,8174,8179,8164
1723,11892384,2224,8183,8205,8192
1724,11892544,2125,8507,8165,8314
1725,11892704,2049.5,8177,8061,8100
1726,11892864,2015,8161,8159,8150
1727,11893024,2019,8165,8189,8168
1728,11893184,2046,8169,8193,8175
1729,11893344,2067,8175,8194,8178
1730,11893504,2064,8183,8196,8185
1731,11893664,2025.5,8193,8197,8191
1732,11893824,1964,8203,8201,8198
1733,11893984,1890.5,8220,8203,8205
1734,11894144,1816,8242,8206,8218
1735,11894304,1747.5,8263,8207,8227
1736,11894464,1680,8275,8207,8231
1737,11894624,1606.5,8270,8210,8237
1738,11894784,1528,8234,8211,8226
1739,11894944,1459,8195,8205,8208
1740,11895104,1407,8169,8196,8188
1741,11895264,1370.5,8159,8191,8178
1742,11895424,1335,8159,8193,8182
1743,11895584,1291,8163,8192,8182
1744,11895744,1234,8167,8192,8183
1745,11895904,1178.5,8168,8189,8180
1746,11896064,1128,8169,8188,8180
1747,11896224,1090.5,8167,8187,8178
1748,11896384,1079,8167,8187,8178
1749,11896544,1139,8167,8187,8178
1750,11896704,1312,8165,8185,8174
1751,11896864,1591.5,8167,8185,8174
1752,11897024,1917,8174,8191,8190
1753,11897184,2189.5,8177,8198,8203
1754,11897344,2373,8179,8196,8204
1755,11897504,2450.5,8194,8198,8208
1756,11897664,2471,8172,8184,8172
1757,11897824,2461,8166,8180,8164
1758,11897984,2428,8168,8178,8163
1759,11898144,2365,8171,8180,8165
1760,11898304,2277,8227,8225,8231
1761,11898464,2189.5,8448,8134,8276
1762,11898624,2128,8156,8064,8077
1763,11898784,2111.5,8161,8175,8158
1764,11898944,2127,8163,8190,8170
1765,11899104,2145,8168,8192,8173
1766,11899264,2138,8174,8194,8179
1767,11899424,2095.5,8183,8196,8185
1768,11899584,2031,8193,8200,8192
1769,11899744,1961,8204,8202,8199
1770,11899904,1892,8221,8206,8210
1771,11900064,1831,8241,8208,8218
1772,11900224,1782,8263,8212,8232
1773,11900384,1743,8272,8214,8240
1774,11900544,1711,8261,8216,8241
1775,11900704,1685.5,8220,8209,8219
1776,11900864,1665,8181,8201,8197
1777,11901024,1648,8166,8195,8187
1778,11901184,1633,8159,8193,8180
1779,11901344,1619,8159,8194,8181
1780,11901504,1603,8163,8193,8183
1781,11901664,1584,8167,8193,8184
1782,11901824,1562,8168,8191,8182
1783,11901984,1542.5,8167,8190,8179
1784,11902144,1529,8166,8189,8177
1785,11902304,1545.5,8163,8186,8172
1786,11902464,1705,8164,8186,8173
1787,11902624,2010,8162,8184,8169
1788,11902784,2320,8166,8185,8173
1789,11902944,2584,8167,8185,8172
1790,11903104,2758,8172,8193,8189
1791,11903264,2822,8174,8195,8194
1792,11903424,2815,8194,8202,8214
1793,11903584,2745,8188,8193,8190
1794,11903744,2651,8169,8182,8164
1795,11903904,2542.5,8168,8179,8160
1796,11904064,2435,8168,8179,8160
1797,11904224,2352,8155,8190,8161
1798,11904384,2306,8431,8222,8328
1799,11904544,2292,8252,8070,8153
1800,11904704,2290,8157,8136,8136
1801,11904864,2274,8160,8186,8162
1802,11905024,2238,8163,8193,8171
1803,11905184,2179.5,8170,8198,8179
1804,11905344,2114,8177,8200,8185
1805,11905504,2048,8186,8200,8189
1806,11905664,1988,8196,8202,8196
1807,11905824,1934,8206,8203,8198
1808,11905984,1887,8228,8208,8213
1809,11906144,1843,8251,8212,8226
1810,11906304,1810,8268,8214,8236
1811,11906464,1789.5,8266,8215,8239
1812,11906624,1774,8243,8216,8235
1813,11906784,1761,8201,8210,8215
1814,11906944,1751,8170,8200,8191
1815,11907104,1732.5,8156,8192,8177
1816,11907264,1707,8155,8191,8176
1817,11907424,1675,8155,8192,8177
1818,11907584,1640,8160,8191,8179
1819,11907744,1612,8163,8191,8179
1820,11907904,1588,8162,8188,8175
1821,11908064,1574.5,8164,8187,8174
1822,11908224,1618,8162,8187,8174
1823,11908384,1759.5,8160,8188,8172
1824,11908544,1998,8164,8188,8173
1825,11908704,2269.5,8163,8186,8172
1826,11908864,2499,8164,8186,8171
1827,11909024,2623,8167,8190,8181
1828,11909184,2653,8174,8197,8198
1829,11909344,2611.5,8172,8195,8193
1830,11909504,2532,8195,8200,8207
1831,11909664,2416.5,8174,8186,8173
1832,11909824,2250,8162,8182,8161
1833,11909984,2041.5,8160,8180,8158
1834,11910144,1823,8165,8181,8160
1835,11910304,1637,8187,8214,8200
1836,11910464,1499,8487,8148,8294
1837,11910624,1401.5,8162,8060,8083
1838,11910784,1314,8155,8171,8152
1839,11910944,1223,8156,8192,8165
1840,11911104,1124,8160,8195,8173
1841,11911264,1024.5,8168,8196,8177
1842,11911424,936,8173,8199,8182
1843,11911584,869.5,8187,8203,8191
1844,11911744,833,8194,8204,8197
1845,11911904,823.5,8209,8206,8203
1846,11912064,830,8228,8208,8211
1847,11912224,848.5,8252,8208,8221
1848,11912384,876,8263,8213,8231
1849,11912544,914.5,8255,8213,8232
1850,11912704,960,8217,8212,8220
1851,11912864,1006.5,8175,8205,8199
1852,11913024,1043,8157,8199,8187
1853,11913184,1061.5,8151,8197,8181
1854,11913344,1065,8150,8196,8179
1855,11913504,1056.5,8154,8194,8180
1856,11913664,1042,8155,8194,8179
1857,11913824,1026.5,8155,8192,8177
1858,11913984,1013,8158,8192,8179
1859,11914144,1026.5,8155,8191,8174
1860,11914304,1104,8156,8190,8173
1861,11914464,1287.5,8158,8188,8173
1862,11914624,1557,8157,8189,8173
1863,11914784,1847,8158,8189,8174
1864,11914944,2082,8160,8186,8172
1865,11915104,2213.5,8165,8195,8190
1866,11915264,2260,8172,8196,8194
1867,11915424,2248.5,8188,8204,8216
1868,11915584,2216,8179,8195,8188
1869,11915744,2165.5,8163,8181,8163
1870,11915904,2095,8161,8181,8162
1871,11916064,2019.5,8162,8180,8161
1872,11916224,1963,8156,8195,8172
1873,11916384,1946.5,8443,8205,8317
1874,11916544,1963,8170,8121,8169
1875,11916704,1992.5,8137,8130,8123
1876,11916864,2006,8158,8183,8158
1877,11917024,1988.5,8163,8188,8170
1878,11917184,1942,8169,8191,8175
1879,11917344,1879,8178,8194,8182
1880,11917504,1818,8186,8195,8186
1881,11917664,1763,8196,8197,8191
1882,11917824,1717,8213,8198,8199
1883,11917984,1675.5,8232,8200,8206
1884,11918144,1640,8256,8202,8216
1885,11918304,1611.5,8267,8200,8219
1886,11918464,1596,8270,8203,8226
1887,11918624,1589.5,8241,8205,8221
1888,11918784,1589,8202,8210,8214
1889,11918944,1587,8171,8201,8196
1890,11919104,1581,8159,8196,8185
1891,11919264,1568.5,8155,8192,8179
1892,11919424,1546,8163,8192,8182
1893,11919584,1519.5,8165,8192,8183
1894,11919744,1493,8166,8191,8181
1895,11919904,1472.5,8169,8189,8181
1896,11920064,1464,8166,8186,8176
1897,11920224,1494,8165,8187,8176
1898,11920384,1598,8165,8185,8176
1899,11920544,1804,8164,8186,8175
1900,11920704,2065,8167,8184,8173
1901,11920864,2311.5,8166,8182,8170
1902,11921024,2484,8176,8191,8191
1903,11921184,2565.5,8178,8196,8198
1904,11921344,2579,8198,8202,8217
1905,11921504,2554.5,8188,8189,8184
1906,11921664,2508,8170,8178,8161
1907,11921824,2435,8170,8177,8158
1908,11921984,2344,8172,8177,8159
1909,11922144,2260,8162,8190,8165
1910,11922304,2211,8451,8208,8320
1911,11922464,2200.5,8197,8088,8144
1912,11922624,2213,8148,8131,8125
1913,11922784,2225,8165,8184,8161
1914,11922944,2222,8169,8190,8170
1915,11923104,2195,8174,8191,8174
1916,11923264,2151,8181,8194,8180
1917,11923424,2093.5,8189,8196,8187
1918,11923584,2033,8201,8198,8193
1919,11923744,1977,8212,8200,8197
1920,11923904,1929,8232,8201,8205
1921,11924064,1887.5,8253,8203,8217
1922,11924224,1851,8268,8203,8223
1923,11924384,1820,8272,8204,8230
1924,11924544,1798,8243,8204,8221
1925,11924704,1787.5,8202,8200,8204
1926,11924864,1788,8172,8194,8186
1927,11925024,1783,8157,8190,8176
1928,11925184,1764,8157,8189,8175
1929,11925344,1728,8163,8188,8176
1930,11925504,1690,8162,8187,8174
1931,11925664,1662,8165,8186,8173
1932,11925824,1638,8166,8186,8176
1933,11925984,1620,8163,8185,8171
1934,11926144,1631,8163,8185,8171
1935,11926304,1710.5,8167,8183,8170
1936,11926464,1887,8164,8183,8168
1937,11926624,2130,8167,8185,8172
1938,11926784,2365,8167,8184,8171
1939,11926944,2522,8172,8184,8174
1940,11927104,2590,8177,8191,8192
1941,11927264,2586,8178,8194,8196
1942,11927424,2551,8198,8198,8209
1943,11927584,2499,8180,8186,8177
1944,11927744,2422,8170,8180,8161
1945,11927904,2327.5,8166,8177,8155
1946,11928064,2236,8169,8177,8157
1947,11928224,2175,8179,8205,8188
1948,11928384,2147,8505,8163,8309
1949,11928544,2145.5,8176,8054,8090
1950,11928704,2145,8160,8160,8146
1951,11928864,2128,8163,8186,8160
1952,11929024,2089,8167,8191,8166
1953,11929184,2026,8177,8196,8179
1954,11929344,1955,8183,8197,8182
1955,11929504,1885.5,8191,8198,8185
1956,11929664,1825,8202,8201,8193
1957,11929824,1779,8214,8205,8201
1958,11929984,1744,8238,8208,8214
1959,11930144,1716,8258,8211,8224
1960,11930304,1693,8270,8210,8229
1961,11930464,1677.5,8268,8212,8234
1962,11930624,1668,8233,8210,8222
1963,11930784,1662,8194,8204,8204
1964,11930944,1654,8168,8196,8185
1965,11931104,1642,8157,8189,8171
1966,11931264,1623,8160,8190,8176
1967,11931424,1597.5,8161,8191,8176
1968,11931584,1566,8165,8191,8178
1969,11931744,1536,8166,8188,8174
1970,11931904,1507,8168,8187,8174
1971,11932064,1492.5,8167,8185,8170
1972,11932224,1526,8167,8184,8171
1973,11932384,1653.5,8166,8183,8167
1974,11932544,1882,8168,8184,8171
1975,11932704,2156,8168,8183,8170
1976,11932864,2396,8168,8183,8172
1977,11933024,2541.5,8171,8184,8173
1978,11933184,2598,8179,8194,8196
1979,11933344,2584,8182,8196,8200
1980,11933504,2546,8203,8202,8216
1981,11933664,2493.5,8184,8187,8179
1982,11933824,2422,8171,8179,8162
1983,11933984,2331,8171,8177,8158
1984,11934144,2241,8173,8177,8158
1985,11934304,2181,8172,8199,8179
1986,11934464,2159,8502,8184,8328
1987,11934624,2162.5,8201,8051,8104
1988,11934784,2162,8162,8156,8149
1989,11934944,2135.5,8165,8188,8165
1990,11935104,2080,8169,8192,8172
1991,11935264,2010.5,8174,8194,8177
1992,11935424,1939,8181,8197,8183
1993,11935584,1876,8190,8199,8189
1994,11935744,1824,8201,8202,8197
1995,11935904,1780,8215,8204,8204
1996,11936064,1740,8233,8207,8213
1997,11936224,1700.5,8257,8211,8227
1998,11936384,1665,8271,8212,8234
1999,11936544,1635,8270,8211,8236
2000,11936704,1616,8237,8212,8229
2001,11936864,1606.5,8193,8203,8203
2002,11937024,1601,8165,8193,8182
2003,11937184,1588,8157,8190,8176
2004,11937344,1568,8158,8189,8174
2005,11937504,1540,8160,8190,8176
2006,11937664,1510,8164,8189,8176
2007,11937824,1485.5,8167,8188,8177
2008,11937984,1466,8165,8188,8175
2009,11938144,1458,8165,8187,8174
2010,11938304,1485,8164,8185,8170
2011,11938464,1601,8166,8186,8172
2012,11938624,1814,8166,8184,8170
2013,11938784,2090,8168,8185,8172
2014,11938944,2346,8171,8186,8173
2015,11939104,2518,8175,8190,8182
2016,11939264,2596,8179,8196,8198
2017,11939424,2600,8181,8196,8198
2018,11939584,2572,8201,8200,8209
2019,11939744,2520,8182,8184,8171
2020,11939904,2452,8171,8177,8158
2021,11940064,2365,8170,8175,8154
2022,11940224,2279,8173,8177,8158
2023,11940384,2216,8199,8216,8206
2024,11940544,2185,8490,8144,8292
2025,11940704,2180,8168,8052,8075
2026,11940864,2178,8160,8167,8149
2027,11941024,2160.5,8162,8188,8163
2028,11941184,2123,8168,8191,8170
2029,11941344,2062.5,8174,8195,8178
2030,11941504,1994,8180,8197,8180
2031,11941664,1928.5,8187,8198,8184
2032,11941824,1876,8197,8201,8192
2033,11941984,1839,8213,8205,8202
2034,11942144,1811,8234,8210,8215
2035,11942304,1786.5,8251,8209,8221
2036,11942464,1761,8265,8212,8230
2037,11942624,1740,8256,8215,8233
2038,11942784,1726,8221,8214,8224
2039,11942944,1720,8178,8206,8198
2040,11943104,1716,8159,8195,8180
2041,11943264,1701,8147,8195,8176
2042,11943424,1674,8154,8193,8175
2043,11943584,1636,8155,8194,8179
2044,11943744,1597,8157,8195,8179
2045,11943904,1567,8158,8192,8175
2046,11944064,1548,8157,8190,8174
2047,11944224,1539,8156,8190,8173
2048,11944384,1564,8156,8190,8171
2049,11944544,1673,8156,8192,8175
2050,11944704,1876,8158,8190,8169
2051,11944864,2138.5,8156,8190,8171
2052,11945024,2380,8158,8188,8171
2053,11945184,2545.5,8165,8195,8182
2054,11945344,2621,8166,8200,8194
2055,11945504,2629,8169,8200,8198
2056,11945664,2602,8186,8202,8201
2057,11945824,2554.5,8166,8187,8169
2058,11945984,2485,8161,8183,8158
2059,11946144,2391.5,8160,8183,8157
2060,11946304,2298,8159,8183,8160
2061,11946464,2229.5,8224,8228,8225
2062,11946624,2202,8377,8156,8262
2063,11946784,2202.5,8124,8084,8080
2064,11946944,2210,8147,8178,8151
2065,11947104,2198,8152,8190,8159
2066,11947264,2162,8158,8193,8166
2067,11947424,2105.5,8162,8196,8171
2068,11947584,2041,8172,8198,8178
2069,11947744,1977.5,8184,8201,8183
2070,11947904,1919,8192,8200,8187
2071,11948064,1866,8208,8203,8195
2072,11948224,1822,8228,8204,8203
2073,11948384,1787,8246,8204,8211
2074,11948544,1755,8256,8206,8218
2075,11948704,1729.5,8248,8208,8220
2076,11948864,1715,8205,8210,8212
2077,11949024,1706.5,8170,8206,8195
2078,11949184,1702,8149,8201,8182
2079,11949344,1698,8143,8197,8174
2080,11949504,1686,8142,8196,8174
2081,11949664,1662.5,8151,8196,8178
2082,11949824,1634,8150,8194,8175
2083,11949984,1601.5,8153,8195,8178
2084,11950144,1572,8153,8193,8176
2085,11950304,1552.5,8151,8192,8174
2086,11950464,1579,8150,8191,8172
2087,11950624,1700.5,8150,8192,8173
2088,11950784,1934,8150,8191,8172
2089,11950944,2231.5,8152,8190,8173
2090,11951104,2507,8153,8191,8174
2091,11951264,2685.5,8158,8199,8190
2092,11951424,2764,8161,8203,8200
2093,11951584,2768,8182,8210,8220
2094,11951744,2732,8165,8197,8184
2095,11951904,2671.5,8151,8189,8165
2096,11952064,2579,8149,8186,8161
2097,11952224,2464,8150,8187,8164
2098,11952384,2354,8153,8210,8187
2099,11952544,2288,8466,8190,8320
2100,11952704,2266,8135,8098,8127
2101,11952864,2273,8132,8154,8139
2102,11953024,2274,8142,8191,8161
2103,11953184,2253.5,8149,8197,8172
2104,11953344,2201,8155,8200,8177
2105,11953504,2119.5,8159,8202,8183
2106,11953664,2024,8168,8204,8189
2107,11953824,1930,8182,8206,8197
2108,11953984,1847,8196,8210,8206
2109,11954144,1784,8213,8211,8212
2110,11954304,1732,8234,8211,8220
2111,11954464,1684.5,8245,8209,8223
2112,11954624,1640,8247,8211,8229
2113,11954784,1609.5,8217,8214,8224
2114,11954944,1592,8176,8211,8208
2115,11955104,1579,8149,8204,8191
2116,11955264,1562,8139,8196,8178
2117,11955424,1535.5,8138,8196,8179
2118,11955584,1503,8143,8199,8184
2119,11955744,1463.5,8146,8196,8179
2120,11955904,1421,8145,8193,8177
2121,11956064,1377.5,8146,8193,8178
2122,11956224,1339,8146,8191,8174
2123,11956384,1328,8145,8191,8175
2124,11956544,1386,8145,8191,8175
2125,11956704,1559,8147,8187,8170
2126,11956864,1833,8149,8189,8170
2127,11957024,2127,8146,8188,8171
2128,11957184,2359,8150,8189,8174
2129,11957344,2481.5,8155,8195,8184
2130,11957504,2518,8162,8200,8197
2131,11957664,2499,8163,8197,8199
2132,11957824,2457,8177,8198,8199
2133,11957984,2390,8157,8186,8168
2134,11958144,2299,8156,8182,8163
2135,11958304,2204,8157,8181,8159
2136,11958464,2134,8153,8182,8161
2137,11958624,2111,8243,8231,8244
2138,11958784,2126,8346,8144,8250
2139,11958944,2157,8124,8082,8078
2140,11959104,2175,8148,8178,8154
2141,11959264,2161.5,8151,8189,8165
2142,11959424,2124,8157,8194,8174
2143,11959584,2070.5,8166,8197,8181
2144,11959744,2016,8175,8200,8188
2145,11959904,1967.5,8181,8199,8189
2146,11960064,1929,8195,8200,8193
2147,11960224,1897,8209,8205,8205
2148,11960384,1867,8233,8207,8215
2149,11960544,1839,8250,8210,8224
2150,11960704,1818,8259,8207,8227
2151,11960864,1805,8248,8208,8228
2152,11961024,1799,8211,8210,8218
2153,11961184,1800.5,8175,8202,8198
2154,11961344,1804,8155,8196,8185
2155,11961504,1795,8152,8191,8176
2156,11961664,1774,8152,8191,8178
2157,11961824,1742,8155,8193,8180
2158,11961984,1708,8158,8192,8179
2159,11962144,1675,8161,8191,8180
2160,11962304,1647,8159,8190,8179
2161,11962464,1635.5,8157,8187,8175
2162,11962624,1669,8159,8188,8177
2163,11962784,1816,8158,8186,8171
2164,11962944,2071,8159,8188,8173
2165,11963104,2387.5,8159,8187,8174
2166,11963264,2659,8161,8186,8173
2167,11963424,2826.5,8164,8187,8176
2168,11963584,2885,8170,8193,8190
2169,11963744,2872.5,8176,8200,8204
2170,11963904,2831,8176,8199,8205
2171,11964064,2776.5,8190,8197,8201
2172,11964224,2695,8172,8183,8171
2173,11964384,2589,8168,8179,8164
2174,11964544,2479,8169,8179,8163
2175,11964704,2396.5,8167,8180,8161
2176,11964864,2353,8261,8231,8252
2177,11965024,2343,8367,8134,8250
2178,11965184,2336,8144,8078,8081
2179,11965344,2304,8162,8179,8160
2180,11965504,2243,8165,8188,8167
2181,11965664,2157,8169,8192,8174
2182,11965824,2060,8178,8196,8184
2183,11965984,1965.5,8187,8198,8190
2184,11966144,1879,8195,8200,8193
2185,11966304,1810.5,8208,8202,8202
2186,11966464,1752,8222,8205,8208
2187,11966624,1701.5,8246,8208,8221
2188,11966784,1655,8267,8212,8233
2189,11966944,1616.5,8274,8212,8238
2190,11967104,1584,8262,8212,8236
2191,11967264,1561,8223,8210,8222
2192,11967424,1544,8187,8202,8202
2193,11967584,1527.5,8168,8195,8186
2194,11967744,1508,8165,8195,8186
2195,11967904,1481.5,8163,8189,8179
2196,11968064,1450,8167,8190,8181
2197,11968224,1417,8170,8189,8182
2198,11968384,1384,8173,8189,8184
2199,11968544,1349.5,8175,8189,8185
2200,11968704,1324,8170,8186,8177
2201,11968864,1354.5,8172,8184,8176
2202,11969024,1486,8171,8184,8177
2203,11969184,1750.5,8170,8185,8176
2204,11969344,2074,8174,8185,8178
2205,11969504,2366.5,8175,8184,8176
2206,11969664,2559,8176,8183,8176
2207,11969824,2638.5,8176,8185,8178
2208,11969984,2638,8185,8196,8202
2209,11970144,2604.5,8188,8194,8202
2210,11970304,2557,8207,8193,8210
2211,11970464,2489.5,8191,8182,8179
2212,11970624,2398,8177,8173,8160
2213,11970784,2298,8179,8173,8160
2214,11970944,2218,8180,8174,8161
2215,11971104,2185.5,8180,8198,8183
2216,11971264,2192,8506,8177,8329
2217,11971424,2213,8201,8046,8099
2218,11971584,2217,8167,8159,8154
2219,11971744,2185.5,8170,8191,8172
2220,11971904,2134,8176,8194,8179
2221,11972064,2071,8179,8198,8185
2222,11972224,2010,8188,8200,8191
2223,11972384,1960.5,8195,8203,8198
2224,11972544,1917,8207,8206,8205
2225,11972704,1879,8220,8210,8214
2226,11972864,1847,8238,8214,8224
2227,11973024,1818.5,8261,8218,8237
2228,11973184,1793,8276,8221,8246
2229,11973344,1769.5,8273,8222,8249
2230,11973504,1749,8244,8219,8239
2231,11973664,1729.5,8202,8209,8215
2232,11973824,1715,8173,8200,8193
2233,11973984,1700,8160,8197,8183
2234,11974144,1680,8164,8197,8186
2235,11974304,1646.5,8164,8196,8185
2236,11974464,1608,8164,8195,8182
2237,11974624,1570,8169,8194,8186
2238,11974784,1538,8169,8194,8186
2239,11974944,1516.5,8166,8192,8182
2240,11975104,1513,8168,8191,8182
2241,11975264,1583,8163,8191,8177
2242,11975424,1757,8165,8191,8180
2243,11975584,2040.5,8162,8193,8180
2244,11975744,2343,8163,8192,8180
2245,11975904,2578.5,8165,8192,8181
2246,11976064,2699,8166,8193,8183
2247,11976224,2725,8171,8200,8197
2248,11976384,2698,8176,8206,8208
2249,11976544,2654.5,8178,8207,8213
2250,11976704,2603,8190,8205,8209
2251,11976864,2525,8166,8191,8179
2252,11977024,2422,8161,8186,8169
2253,11977184,2316,8161,8188,8169
2254,11977344,2242,8163,8189,8171
2255,11977504,2210.5,8228,8234,8241
2256,11977664,2201,8387,8149,8268
2257,11977824,2187.5,8137,8079,8083
2258,11977984,2154,8152,8183,8162
2259,11978144,2089,8157,8194,8172
2260,11978304,2008,8157,8198,8176
2261,11978464,1922,8167,8197,8180
2262,11978624,1838,8175,8200,8188
2263,11978784,1761,8184,8202,8192
2264,11978944,1695,8193,8202,8196
2265,11979104,1642,8210,8204,8201
2266,11979264,1600,8229,8205,8213
2267,11979424,1562,8251,8209,8225
2268,11979584,1528,8255,8212,8231
2269,11979744,1493.5,8250,8212,8234
2270,11979904,1464,8213,8212,8223
2271,11980064,1438,8174,8208,8203
2272,11980224,1414,8151,8200,8188
2273,11980384,1391,8151,8196,8184
2274,11980544,1365,8151,8197,8183
2275,11980704,1334,8154,8196,8184
2276,11980864,1298,8156,8194,8185
2277,11981024,1257.5,8158,8195,8184
2278,11981184,1221,8156,8193,8182
2279,11981344,1190.5,8159,8192,8181
2280,11981504,1186,8157,8192,8180
2281,11981664,1265.5,8157,8178,8164
2282,11981824,1461,8156,8179,8166
2283,11981984,1766,8161,8178,8165
2284,11982144,2075,8163,8180,8170
2285,11982304,2300,8165,8182,8175
2286,11982464,2409,8169,8190,8190
2287,11982624,2429.5,8172,8190,8192
2288,11982784,2405,8193,8201,8217
2289,11982944,2361,8175,8188,8182
2290,11983104,2299,8166,8177,8165
2291,11983264,2204.5,8161,8177,8162
2292,11983424,2097,8166,8179,8165
2293,11983584,2008,8175,8204,8194
2294,11983744,1962,8477,8171,8308
2295,11983904,1959.5,8136,8093,8121
2296,11984064,1972,8151,8149,8143
2297,11984224,1963,8163,8185,8169
2298,11984384,1926,8167,8188,8173
2299,11984544,1859,8176,8191,8180
2300,11984704,1780,8181,8193,8185
2301,11984864,1708,8190,8196,8190
2302,11985024,1646,8202,8195,8195
2303,11985184,1600.5,8214,8198,8200
2304,11985344,1568,8232,8198,8208
2305,11985504,1541.5,8257,8197,8215
2306,11985664,1521,8270,8198,8223
2307,11985824,1505.5,8267,8198,8225
2308,11985984,1493,8238,8202,8222
2309,11986144,1487,8196,8202,8208
2310,11986304,1486,8174,8197,8198
2311,11986464,1479,8163,8195,8195
2312,11986624,1464,8166,8191,8191
2313,11986784,1434,8168,8194,8193
2314,11986944,1399,8170,8191,8193
2315,11987104,1362.5,8173,8192,8194
2316,11987264,1339,8172,8189,8189
2317,11987424,1343,8173,8189,8189
2318,11987584,1425,8170,8189,8186
2319,11987744,1623.5,8169,8188,8184
2320,11987904,1928,8170,8186,8183
2321,11988064,2251.5,8169,8184,8180
2322,11988224,2509,8171,8185,8182
2323,11988384,2644.5,8174,8186,8183
2324,11988544,2688,8180,8194,8201
2325,11988704,2675,8181,8196,8204
2326,11988864,2639,8199,8202,8222
2327,11989024,2580,8183,8192,8191
2328,11989184,2485,8172,8181,8169
2329,11989344,2379,8172,8178,8166
2330,11989504,2297,8169,8177,8163
2331,11989664,2272.5,8160,8194,8174
2332,11989824,2287,8451,8205,8323
2333,11989984,2310.5,8178,8088,8136
2334,11990144,2307,8150,8132,8131
2335,11990304,2270.5,8164,8183,8162
2336,11990464,2208,8168,8186,8165
2337,11990624,2132,8175,8191,8179
2338,11990784,2060,8184,8194,8184
2339,11990944,2001,8193,8196,8190
2340,11991104,1953,8199,8197,8193
2341,11991264,1906,8213,8199,8200
2342,11991424,1859,8229,8205,8211
2343,11991584,1815,8252,8206,8221
2344,11991744,1782,8269,8208,8230
2345,11991904,1763,8270,8206,8231
2346,11992064,1755,8243,8206,8225
2347,11992224,1754.5,8205,8203,8209
2348,11992384,1753,8175,8196,8190
2349,11992544,1740.5,8165,8189,8180
2350,11992704,1715,8160,8186,8176
2351,11992864,1678,8164,8187,8178
2352,11993024,1638,8168,8187,8180
2353,11993184,1600,8170,8189,8182
2354,11993344,1564,8171,8186,8179
2355,11993504,1547.5,8169,8186,8178
2356,11993664,1596,8167,8184,8173
2357,11993824,1775,8166,8184,8174
2358,11993984,2078,8167,8185,8174
2359,11994144,2420,8168,8185,8174
2360,11994304,2701,8168,8183,8172
2361,11994464,2849,8172,8184,8174
2362,11994624,2889,8171,8184,8173
2363,11994784,2861.5,8181,8194,8198
2364,11994944,2819,8183,8195,8200
2365,11995104,2762,8197,8201,8215
2366,11995264,2675,8190,8190,8188
2367,11995424,2566.5,8172,8180,8164
2368,11995584,2461,8173,8179,8162
2369,11995744,2403.5,8174,8178,8161
2370,11995904,2393,8164,8190,8165
2371,11996064,2410.5,8437,8213,8323
2372,11996224,2414,8209,8067,8127
2373,11996384,2386.5,8157,8134,8132
2374,11996544,2327,8168,8187,8166
2375,11996704,2249.5,8168,8191,8168
2376,11996864,2170,8178,8197,8181
2377,11997024,2097.5,8182,8200,8187
2378,11997184,2034,8192,8202,8193
2379,11997344,1980,8200,8204,8197
2380,11997504,1934,8211,8207,8205
2381,11997664,1893,8228,8211,8216
2382,11997824,1859,8249,8216,8229
2383,11997984,1829.5,8267,8216,8235
2384,11998144,1810,8268,8216,8240
2385,11998304,1798.5,8247,8216,8234
2386,11998464,1792,8205,8209,8213
2387,11998624,1776.5,8177,8199,8192
2388,11998784,1752,8166,8193,8181
2389,11998944,1718,8163,8191,8177
2390,11999104,1674,8165,8191,8180
2391,11999264,1629.5,8166,8190,8178
2392,11999424,1590,8168,8190,8179
2393,11999584,1556.5,8169,8190,8178
2394,11999744,1545,8169,8189,8177
2395,11999904,1624,8170,8188,8177
2396,12000064,1834,8169,8186,8174
2397,12000224,2186.5,8169,8186,8174
2398,12000384,2580,8171,8186,8173
2399,12000544,2896,8170,8185,8172
2400,12000704,3077,8171,8183,8170
2401,12000864,3128.5,8173,8183,8172
2402,12001024,3111,8178,8189,8185
2403,12001184,3070.5,8183,8198,8203
2404,12001344,3020,8185,8197,8203
2405,12001504,2939,8201,8199,8208
2406,12001664,2826,8184,8185,8175
2407,12001824,2712.5,8173,8181,8164
2408,12001984,2635,8174,8178,8161
2409,12002144,2604.5,8177,8180,8163
2410,12002304,2598,8211,8223,8217
2411,12002464,2587.5,8466,8140,8282
2412,12002624,2555,8162,8054,8069
2413,12002784,2495,8165,8174,8155
2414,12002944,2410,8169,8193,8171
2415,12003104,2312,8174,8196,8177
2416,12003264,2214,8179,8198,8181
2417,12003424,2132.5,8188,8201,8188
2418,12003584,2066,8195,8201,8192
2419,12003744,2007.5,8203,8204,8197
2420,12003904,1962,8220,8207,8207
2421,12004064,1925.5,8238,8212,8220
2422,12004224,1898,8259,8217,8233
2423,12004384,1873,8270,8217,8240
2424,12004544,1849,8263,8216,8240
2425,12004704,1825.5,8232,8212,8228
2426,12004864,1806,8193,8200,8200
2427,12005024,1781,8171,8190,8181
2428,12005184,1753,8166,8188,8176
2429,12005344,1718.5,8167,8188,8175
2430,12005504,1680,8168,8187,8176
2431,12005664,1645.5,8169,8185,8173
2432,12005824,1615,8169,8185,8173
2433,12005984,1592,8172,8184,8174
2434,12006144,1597,8171,8183,8172
2435,12006304,1704,8171,8182,8169
2436,12006464,1948,8171,8180,8167
2437,12006624,2317,8171,8179,8166
2438,12006784,2694,8173,8182,8169
2439,12006944,2971.5,8176,8183,8172
2440,12007104,3113,8174,8179,8168
2441,12007264,3137.5,8175,8180,8168
2442,12007424,3099,8184,8191,8193
2443,12007584,3033.5,8184,8194,8196
2444,12007744,2953,8201,8200,8215
2445,12007904,2842.5,8196,8189,8189
2446,12008064,2709,8175,8178,8162
2447,12008224,2587,8173,8174,8155
2448,12008384,2508,8176,8173,8156
2449,12008544,2474.5,8165,8181,8156
2450,12008704,2465,8388,8222,8306
2451,12008864,2444.5,8261,8066,8151
2452,12009024,2393,8158,8117,8119
2453,12009184,2315,8166,8179,8157
2454,12009344,2222,8171,8186,8167
2455,12009504,2124,8176,8189,8170
2456,12009664,2030,8180,8193,8180
2457,12009824,1944.5,8191,8195,8186
2458,12009984,1872,8200,8199,8194
2459,12010144,1811,8209,8203,8200
2460,12010304,1760,8224,8206,8208
2461,12010464,1718,8244,8211,8221
2462,12010624,1676,8262,8216,8234
2463,12010784,1633,8262,8217,8239
2464,12010944,1590,8244,8217,8235
2465,12011104,1549,8206,8211,8217
2466,12011264,1510,8174,8201,8194
2467,12011424,1469,8162,8196,8185
2468,12011584,1430,8158,8195,8182
2469,12011744,1387,8162,8195,8184
2470,12011904,1342,8162,8194,8181
2471,12012064,1302.5,8164,8192,8179
2472,12012224,1268,8163,8191,8181
2473,12012384,1244.5,8161,8193,8180
2474,12012544,1254,8162,8190,8177
2475,12012704,1376,8158,8190,8175
2476,12012864,1638,8162,8189,8176
2477,12013024,2012,8157,8190,8176
2478,12013184,2380,8161,8193,8180
2479,12013344,2640.5,8162,8192,8179
2480,12013504,2758,8163,8191,8179
2481,12013664,2754.5,8166,8196,8190
2482,12013824,2692,8172,8201,8201
2483,12013984,2604.5,8175,8203,8207
2484,12014144,2494,8189,8204,8211
2485,12014304,2353.5,8169,8188,8176
2486,12014464,2207,8161,8184,8167
2487,12014624,2097,8161,8184,8165
2488,12014784,2046,8167,8186,8169
2489,12014944,2044,8221,8230,8236
2490,12015104,2059,8401,8162,8280
2491,12015264,2051.5,8132,8086,8095
2492,12015424,2009,8151,8177,8159
2493,12015584,1937,8162,8196,8175
2494,12015744,1852,8168,8198,8181
2495,12015904,1769,8173,8201,8186
2496,12016064,1692,8183,8202,8191
2497,12016224,1621.5,8189,8206,8199
2498,12016384,1557,8202,8206,8202
2499,12016544,1498,8218,8210,8212
2500,12016704,1449,8236,8205,8213
2501,12016864,1410,8259,8208,8222
2502,12017024,1375,8266,8207,8229
2503,12017184,1349.5,8259,8207,8229
2504,12017344,1329,8224,8202,8216
2505,12017504,1309.5,8186,8202,8201
2506,12017664,1288,8163,8193,8183
2507,12017824,1255,8157,8193,8183
2508,12017984,1219,8160,8193,8183
2509,12018144,1182,8164,8193,8182
2510,12018304,1143,8167,8193,8182
2511,12018464,1097.5,8166,8199,8191
2512,12018624,1052,8166,8199,8189
2513,12018784,1023.5,8164,8197,8188
2514,12018944,1051,8162,8197,8184
2515,12019104,1222.5,8167,8197,8184
2516,12019264,1535,8164,8198,8185
2517,12019424,1936.5,8163,8201,8187
2518,12019584,2288,8165,8200,8189
2519,12019744,2514.5,8171,8204,8199
2520,12019904,2608,8175,8209,8209
2521,12020064,2607,8183,8209,8214
2522,12020224,2556,8195,8210,8221
2523,12020384,2454,8179,8199,8188
2524,12020544,2313,8170,8190,8175
2525,12020704,2147.5,8169,8188,8172
2526,12020864,2017,8173,8188,8173
2527,12021024,1955,8212,8226,8228
2528,12021184,1962,8420,8162,8277
2529,12021344,1996.5,8134,8094,8108
2530,12021504,2018,8157,8170,8154
2531,12021664,1998.5,8172,8191,8175
2532,12021824,1942,8175,8193,8177
2533,12021984,1858.5,8184,8199,8189
2534,12022144,1770,8191,8198,8189
2535,12022304,1687,8199,8199,8195
2536,12022464,1613,8209,8200,8200
2537,12022624,1548,8228,8200,8207
2538,12022784,1493,8245,8203,8213
2539,12022944,1455,8266,8202,8220
2540,12023104,1431,8271,8200,8222
2541,12023264,1416,8265,8201,8225
2542,12023424,1410,8232,8205,8221
2543,12023584,1403.5,8195,8204,8207
2544,12023744,1399,8174,8199,8194
2545,12023904,1394.5,8164,8193,8184
2546,12024064,1379,8162,8190,8181
2547,12024224,1348,8171,8191,8186
2548,12024384,1306,8171,8191,8186
2549,12024544,1263,8174,8190,8185
2550,12024704,1222,8174,8187,8180
2551,12024864,1193,8172,8187,8179
2552,12025024,1199,8167,8186,8179
2553,12025184,1315.5,8173,8187,8180
2554,12025344,1573,8172,8187,8179
2555,12025504,1956,8174,8185,8178
2556,12025664,2342,8174,8188,8183
2557,12025824,2621.5,8180,8194,8201
2558,12025984,2757,8183,8200,8209
2559,12026144,2772.5,8202,8201,8219
2560,12026304,2720,8181,8189,8183
2561,12026464,2620.5,8174,8179,8166
2562,12026624,2489,8173,8180,8165
2563,12026784,2341,8174,8179,8166
2564,12026944,2219,8185,8206,8195
2565,12027104,2166.5,8491,8163,8307
2566,12027264,2182,8154,8069,8099
2567,12027424,2236,8158,8157,8148
2568,12027584,2285,8170,8186,8167
2569,12027744,2294.5,8176,8190,8173
2570,12027904,2260,8180,8189,8176
2571,12028064,2187,8190,8195,8189
2572,12028224,2098,8198,8196,8193
2573,12028384,2007.5,8208,8199,8199
2574,12028544,1935,8223,8202,8208
2575,12028704,1873.5,8243,8203,8216
2576,12028864,1819,8262,8205,8225
2577,12029024,1768,8272,8204,8230
2578,12029184,1727,8271,8205,8233
2579,12029344,1704.5,8239,8203,8223
2580,12029504,1699,8201,8198,8205
2581,12029664,1707,8175,8191,8187
2582,12029824,1712,8167,8187,8180
2583,12029984,1706.5,8168,8186,8179
2584,12030144,1684,8167,8186,8177
2585,12030304,1646.5,8170,8185,8178
2586,12030464,1608,8173,8187,8182
2587,12030624,1568,8174,8184,8179
2588,12030784,1534,8172,8186,8180
2589,12030944,1537.5,8173,8183,8176
2590,12031104,1649,8170,8182,8173
2591,12031264,1925.5,8171,8183,8176
2592,12031424,2330,8172,8181,8173
2593,12031584,2734.5,8174,8182,8175
2594,12031744,3035,8175,8181,8173
2595,12031904,3170.5,8184,8190,8192
2596,12032064,3190,8183,8193,8200
2597,12032224,3140,8198,8198,8215
2598,12032384,3055,8194,8188,8190
2599,12032544,2939,8176,8175,8162
2600,12032704,2787,8174,8174,8159
2601,12032864,2630.5,8173,8172,8155
2602,12033024,2511,8165,8184,8163
2603,12033184,2456,8418,8216,8314
2604,12033344,2446,8221,8084,8152
2605,12033504,2451.5,8155,8115,8115
2606,12033664,2432,8171,8178,8161
2607,12033824,2370,8173,8186,8169
2608,12033984,2275,8181,8191,8179
2609,12034144,2168.5,8190,8192,8184
2610,12034304,2066,8194,8192,8187
2611,12034464,1975,8201,8194,8191
2612,12034624,1896,8217,8200,8204
2613,12034784,1830,8235,8203,8213
2614,12034944,1776,8257,8206,8224
2615,12035104,1730.5,8269,8206,8230
2616,12035264,1689,8272,8207,8235
2617,12035424,1653,8253,8207,8231
2618,12035584,1624,8213,8201,8212
2619,12035744,1598.5,8183,8192,8191
2620,12035904,1576,8168,8185,8176
2621,12036064,1548.5,8165,8184,8175
2622,12036224,1507,8167,8185,8176
2623,12036384,1448.5,8173,8185,8180
2624,12036544,1381,8176,8183,8178
2625,12036704,1320.5,8176,8183,8178
2626,12036864,1268,8173,8182,8175
2627,12037024,1251,8172,8182,8174
2628,12037184,1336,8174,8182,8173
2629,12037344,1598.5,8173,8182,8173
2630,12037504,2007,8172,8181,8171
2631,12037664,2446.5,8173,8184,8175
2632,12037824,2790,8175,8184,8176
2633,12037984,2965,8179,8187,8182
2634,12038144,3011,8185,8197,8205
2635,12038304,2972.5,8186,8196,8203
2636,12038464,2908,8204,8199,8214
2637,12038624,2827.5,8185,8187,8180
2638,12038784,2713,8177,8180,8167
2639,12038944,2575.5,8176,8179,8164
2640,12039104,2450,8177,8181,8168
2641,12039264,2381,8185,8208,8195
2642,12039424,2362,8507,8162,8317
2643,12039584,2373.5,8183,8039,8078
2644,12039744,2371,8166,8163,8155
2645,12039904,2331.5,8169,8192,8172
2646,12040064,2254,8175,8194,8178
2647,12040224,2159.5,8179,8199,8186
2648,12040384,2063,8189,8201,8194
2649,12040544,1967,8197,8204,8199
2650,12040704,1882,8207,8207,8206
2651,12040864,1808,8220,8210,8214
2652,12041024,1751,8240,8215,8228
2653,12041184,1709.5,8264,8221,8244
2654,12041344,1673,8273,8221,8248
2655,12041504,1641,8269,8219,8249
2656,12041664,1618,8238,8215,8237
2657,12041824,1599.5,8200,8206,8214
2658,12041984,1584,8175,8199,8195
2659,12042144,1570.5,8166,8193,8185
2660,12042304,1551,8164,8192,8183
2661,12042464,1526.5,8167,8191,8184
2662,12042624,1496,8169,8192,8186
2663,12042784,1467,8173,8193,8188
2664,12042944,1442,8173,8191,8184
2665,12043104,1425.5,8171,8187,8180
2666,12043264,1444,8170,8185,8176
2667,12043424,1587,8171,8188,8181
2668,12043584,1890,8171,8186,8179
2669,12043744,2336,8171,8184,8175
2670,12043904,2781,8171,8183,8174
2671,12044064,3110,8173,8183,8176
2672,12044224,3283,8174,8185,8178
2673,12044384,3319.5,8185,8195,8201
2674,12044544,3289,8185,8197,8205
2675,12044704,3226.5,8203,8202,8220
2676,12044864,3138,8192,8191,8192
2677,12045024,3011,8174,8177,8164
2678,12045184,2860,8176,8179,8166
2679,12045344,2724,8178,8178,8164
2680,12045504,2634,8165,8192,8171
2681,12045664,2595.5,8451,8213,8333
2682,12045824,2578,8231,8048,8121
2683,12045984,2543.5,8167,8138,8144
2684,12046144,2478,8170,8186,8169
2685,12046304,2380.5,8175,8191,8177
2686,12046464,2267,8180,8193,8182
2687,12046624,2151,8187,8197,8189
2688,12046784,2047,8195,8199,8194
2689,12046944,1959,8205,8200,8198
2690,12047104,1888,8218,8203,8207
2691,12047264,1828,8234,8207,8216
2692,12047424,1776,8257,8213,8233
2693,12047584,1730.5,8272,8218,8244
2694,12047744,1690,8271,8214,8244
2695,12047904,1657,8248,8213,8237
2696,12048064,1629,8209,8204,8216
2697,12048224,1604,8180,8195,8194
2698,12048384,1579,8167,8190,8183
2699,12048544,1546.5,8164,8189,8178
2700,12048704,1505,8169,8188,8182
2701,12048864,1457.5,8167,8185,8176
2702,12049024,1409,8172,8188,8184
2703,12049184,1364.5,8174,8186,8183
2704,12049344,1332,8173,8185,8178
2705,12049504,1326,8171,8185,8178
2706,12049664,1390,8170,8182,8175
2707,12049824,1614.5,8171,8184,8177
2708,12049984,1983,8173,8184,8177
2709,12050144,2430.5,8173,8185,8178
2710,12050304,2812,8174,8183,8176
2711,12050464,3041,8172,8184,8176
2712,12050624,3123,8178,8186,8182
2713,12050784,3105,8185,8196,8204
2714,12050944,3056,8184,8196,8204
2715,12051104,2995.5,8208,8204,8222
2716,12051264,2907,8189,8190,8189
2717,12051424,2785.5,8175,8182,8170
2718,12051584,2671,8176,8183,8172
2719,12051744,2601.5,8179,8183,8172
2720,12051904,2586,8182,8207,8194
2721,12052064,2596,8510,8171,8328
2722,12052224,2597,8191,8048,8098
2723,12052384,2560.5,8166,8165,8161
2724,12052544,2485,8170,8192,8175
2725,12052704,2378.5,8173,8196,8181
2726,12052864,2254,8177,8199,8186
2727,12053024,2126,8182,8202,8193
2728,12053184,2000,8192,8204,8199
2729,12053344,1880,8199,8207,8205
2730,12053504,1768,8216,8211,8216
2731,12053664,1665.5,8230,8213,8223
2732,12053824,1569,8252,8219,8236
2733,12053984,1475.5,8264,8220,8245
2734,12054144,1387,8259,8222,8246
2735,12054304,1303.5,8228,8219,8238
2736,12054464,1231,8189,8211,8216
2737,12054624,1169.5,8163,8202,8196
2738,12054784,1113,8152,8198,8189
2739,12054944,1057.5,8151,8197,8187
2740,12055104,997,8155,8196,8187
2741,12055264,936.5,8157,8195,8187
2742,12055424,893,8161,8195,8190
2743,12055584,865,8157,8195,8189
2744,12055744,848,8160,8193,8187
2745,12055904,856,8156,8189,8180
2746,12056064,929,8154,8190,8178
2747,12056224,1152.5,8156,8191,8182
2748,12056384,1519,8156,8189,8182
2749,12056544,1954,8157,8187,8179
2750,12056704,2327,8158,8187,8180
2751,12056864,2562,8167,8192,8194
2752,12057024,2654,8169,8198,8204
2753,12057184,2644,8176,8202,8216
2754,12057344,2586,8184,8201,8211
2755,12057504,2487.5,8166,8190,8184
2756,12057664,2347,8161,8187,8174
2757,12057824,2185.5,8166,8186,8176
2758,12057984,2052,8160,8189,8179
2759,12058144,1983,8237,8236,8253
2760,12058304,1981,8356,8173,8281
2761,12058464,2016,8120,8098,8107
2762,12058624,2053,8149,8190,8173
2763,12058784,2061,8157,8207,8191
2764,12058944,2038,8162,8215,8198
2765,12059104,1980.5,8171,8218,8207
2766,12059264,1907,8175,8217,8207
2767,12059424,1834,8187,8225,8219
2768,12059584,1770,8198,8228,8227
2769,12059744,1718,8207,8233,8232
2770,12059904,1680,8228,8233,8238
2771,12060064,1648,8248,8238,8248
2772,12060224,1626,8256,8239,8257
2773,12060384,1615,8240,8248,8261
2774,12060544,1616,8196,8251,8253
2775,12060704,1624,8158,8252,8239
2776,12060864,1620,8134,8249,8228
2777,12061024,1601,8127,8248,8224
2778,12061184,1566,8128,8251,8224
2779,12061344,1516.5,8129,8249,8224
2780,12061504,1456,8133,8252,8226
2781,12061664,1386.5,8130,8254,8228
2782,12061824,1315,8123,8256,8227
2783,12061984,1255.5,8123,8261,8230
2784,12062144,1215,8121,8260,8226
2785,12062304,1246.5,8114,8261,8224
2786,12062464,1392,8113,8265,8226
2787,12062624,1706.5,8112,8268,8228
2788,12062784,2096,8112,8275,8237
2789,12062944,2453.5,8114,8283,8252
2790,12063104,2688,8112,8284,8254
2791,12063264,2784.5,8124,8288,8260
2792,12063424,2782,8104,8276,8227
2793,12063584,2712,8094,8273,8217
2794,12063744,2592,8098,8272,8217
2795,12063904,2412,8096,8275,8220
2796,12064064,2213,8152,8321,8288
2797,12064224,2051.5,8323,8247,8321
2798,12064384,1967,8062,8173,8142
2799,12064544,1958.5,8085,8265,8209
2800,12064704,1987,8092,8283,8226
2801,12064864,2005.5,8101,8286,8233
2802,12065024,1987,8109,8288,8242
2803,12065184,1927.5,8122,8287,8246
2804,12065344,1844,8132,8289,8252
2805,12065504,1744,8142,8287,8255
2806,12065664,1644,8159,8289,8262
2807,12065824,1549.5,8180,8290,8275
2808,12065984,1463,8199,8288,8280
2809,12066144,1392,8209,8284,8281
2810,12066304,1337,8199,8284,8282
2811,12066464,1306,8157,8284,8270
2812,12066624,1296,8117,8278,8251
2813,12066784,1298,8101,8271,8238
2814,12066944,1303,8096,8265,8228
2815,12067104,1299,8100,8263,8231
2816,12067264,1276,8110,8262,8235
2817,12067424,1234.5,8116,8260,8235
2818,12067584,1179,8121,8256,8232
2819,12067744,1132,8124,8251,8227
2820,12067904,1100,8126,8244,8221
2821,12068064,1111.5,8125,8240,8215
2822,12068224,1281,8129,8238,8219
2823,12068384,1653,8133,8235,8215
2824,12068544,2119,8138,8231,8214
2825,12068704,2500.5,8145,8236,8226
2826,12068864,2675,8155,8240,8240
2827,12069024,2715,8166,8240,8254
2828,12069184,2684,8174,8235,8240
2829,12069344,2609.5,8159,8218,8207
2830,12069504,2495,8157,8211,8197
2831,12069664,2348,8159,8210,8197
2832,12069824,2198,8155,8214,8197
2833,12069984,2096.5,8339,8262,8329
2834,12070144,2060,8288,8144,8249
2835,12070304,2078,8152,8129,8141
2836,12070464,2107,8172,8213,8207
2837,12070624,2112.5,8176,8221,8218
2838,12070784,2077,8187,8223,8225
2839,12070944,2010.5,8197,8226,8234
2840,12071104,1925,8204,8222,8235
2841,12071264,1836.5,8217,8221,8239
2842,12071424,1756,8228,8224,8245
2843,12071584,1679,8249,8224,8251
2844,12071744,1614,8273,8225,8260
2845,12071904,1561.5,8288,8224,8263
2846,12072064,1522,8297,8220,8265
2847,12072224,1505,8279,8218,8259
2848,12072384,1505,8240,8213,8242
2849,12072544,1506,8205,8203,8219
2850,12072704,1495,8190,8193,8201
2851,12072864,1471.5,8188,8192,8200
2852,12073024,1437,8192,8193,8204
2853,12073184,1402.5,8196,8191,8201
2854,12073344,1370,8197,8190,8200
2855,12073504,1335,8195,8188,8197
2856,12073664,1312,8195,8185,8194
2857,12073824,1352,8195,8185,8194
2858,12073984,1517,8194,8181,8189
2859,12074144,1852,8196,8179,8189
2860,12074304,2267,8194,8177,8187
2861,12074464,2643.5,8196,8175,8187
2862,12074624,2887,8203,8182,8204
2863,12074784,2985.5,8206,8187,8215
2864,12074944,2981,8208,8184,8216
2865,12075104,2926.5,8220,8182,8212
2866,12075264,2850,8199,8170,8180
2867,12075424,2737.5,8193,8166,8172
2868,12075584,2593,8193,8163,8169
2869,12075744,2446.5,8198,8164,8173
2870,12075904,2341,8283,8217,8259
2871,12076064,2289.5,8422,8107,8259
2872,12076224,2278,8180,8055,8084
2873,12076384,2272,8189,8162,8165
2874,12076544,2239,8192,8171,8174
2875,12076704,2166.5,8200,8174,8182
2876,12076864,2071,8208,8175,8187
2877,12077024,1965,8219,8179,8196
2878,12077184,1868,8227,8180,8200
2879,12077344,1784,8241,8181,8205
2880,12077504,1711,8256,8182,8210
2881,12077664,1644.5,8278,8187,8225
2882,12077824,1582,8295,8190,8234
2883,12077984,1531.5,8306,8191,8242
2884,12078144,1497,8290,8190,8238
2885,12078304,1478.5,8250,8186,8220
2886,12078464,1467,8214,8177,8197
2887,12078624,1448.5,8200,8171,8187
2888,12078784,1414,8197,8168,8182
2889,12078944,1367,8197,8168,8182
2890,12079104,1312,8203,8167,8183
2891,12079264,1260.5,8205,8166,8184
2892,12079424,1222,8208,8166,8184
2893,12079584,1203,8210,8166,8185
2894,12079744,1234,8208,8163,8179
2895,12079904,1382,8208,8163,8179
2896,12080064,1684,8209,8162,8180
2897,12080224,2089.5,8209,8162,8178
2898,12080384,2482,8213,8163,8182
2899,12080544,2748,8214,8164,8184
2900,12080704,2882,8221,8172,8202
2901,12080864,2901,8222,8174,8207
2902,12081024,2867,8240,8180,8221
2903,12081184,2807,8226,8168,8190
2904,12081344,2715,8213,8157,8170
2905,12081504,2581,8211,8157,8167
2906,12081664,2433,8212,8156,8166
2907,12081824,2319.5,8216,8182,8193
2908,12081984,2260,8543,8150,8325
2909,12082144,2249.5,8234,8019,8094
2910,12082304,2247,8202,8138,8158
2911,12082464,2224,8202,8167,8171
2912,12082624,2162,8208,8173,8181
2913,12082784,2073,8210,8177,8188
2914,12082944,1977,8219,8178,8191
2915,12083104,1890.5,8225,8181,8198
2916,12083264,1812,8236,8186,8208
2917,12083424,1743.5,8248,8187,8213
2918,12083584,1685,8269,8191,8225
2919,12083744,1634,8294,8195,8238
2920,12083904,1591,8304,8198,8246
2921,12084064,1562.5,8299,8198,8248
2922,12084224,1544,8265,8196,8234
2923,12084384,1534,8228,8190,8217
2924,12084544,1520,8202,8181,8195
2925,12084704,1490,8193,8178,8190
2926,12084864,1439,8193,8176,8186
2927,12085024,1378.5,8193,8179,8191
2928,12085184,1321,8197,8179,8193
2929,12085344,1279.5,8198,8180,8193
2930,12085504,1246,8198,8177,8190
2931,12085664,1238,8198,8179,8192
2932,12085824,1298,8197,8178,8192
2933,12085984,1493.5,8196,8179,8191
2934,12086144,1823,8195,8180,8193
2935,12086304,2200,8198,8178,8191
2936,12086464,2512,8198,8179,8192
2937,12086624,2686,8202,8186,8204
2938,12086784,2742,8203,8191,8215
2939,12086944,2717.5,8209,8192,8222
2940,12087104,2664,8227,8195,8223
2941,12087264,2579.5,8203,8183,8193
2942,12087424,2451,8194,8179,8183
2943,12087584,2288,8199,8180,8184
2944,12087744,2132,8200,8181,8185
2945,12087904,2027.5,8268,8224,8256
2946,12088064,1978,8401,8156,8286
2947,12088224,1963,8163,8083,8107
2948,12088384,1945,8187,8176,8176
2949,12088544,1897,8197,8194,8194
2950,12088704,1817,8196,8197,8195
2951,12088864,1721.5,8205,8200,8204
2952,12089024,1619,8216,8204,8209
2953,12089184,1526,8225,8207,8216
2954,12089344,1442,8236,8207,8217
2955,12089504,1375,8253,8210,8226
2956,12089664,1321,8271,8212,8234
2957,12089824,1277.5,8293,8212,8244
2958,12089984,1245,8298,8215,8249
2959,12090144,1227,8286,8216,8248
2960,12090304,1217,8245,8216,8238
2961,12090464,1208,8206,8211,8219
2962,12090624,1197,8184,8207,8207
2963,12090784,1177.5,8182,8203,8200
2964,12090944,1147,8179,8202,8197
2965,12091104,1103.5,8187,8201,8199
2966,12091264,1052,8185,8200,8200
2967,12091424,1005.5,8187,8199,8199
2968,12091584,967,8189,8198,8199
2969,12091744,958.5,8187,8196,8194
2970,12091904,1022,8185,8194,8191
2971,12092064,1240.5,8187,8196,8196
2972,12092224,1589,8183,8194,8193
2973,12092384,1989.5,8186,8194,8193
2974,12092544,2313,8192,8200,8207
2975,12092704,2505.5,8196,8203,8215
2976,12092864,2590,8208,8209,8235
2977,12093024,2601,8209,8202,8214
2978,12093184,2582,8189,8187,8182
2979,12093344,2521.5,8183,8184,8175
2980,12093504,2417,8184,8182,8174
2981,12093664,2292.5,8176,8188,8173
2982,12093824,2201,8366,8234,8307
2983,12093984,2175.5,8267,8129,8216
2984,12094144,2204,8152,8102,8106
2985,12094304,2248.5,8177,8184,8171
2986,12094464,2272,8183,8194,8183
2987,12094624,2248,8187,8197,8191
2988,12094784,2191,8196,8199,8195
2989,12094944,2111.5,8203,8200,8200
2990,12095104,2026,8213,8200,8203
2991,12095264,1953.5,8226,8205,8213
2992,12095424,1891,8245,8208,8226
2993,12095584,1841,8267,8213,8236
2994,12095744,1789,8286,8210,8240
2995,12095904,1743,8289,8210,8244
2996,12096064,1706,8264,8210,8239
2997,12096224,1684.5,8225,8211,8230
2998,12096384,1671,8194,8202,8208
2999,12096544,1656.5,8178,8196,8196
3000,12096704,1632,8177,8192,8191
3001,12096864,1587,8177,8192,8191
3002,12097024,1531,8181,8192,8192
3003,12097184,1476.5,8183,8191,8192
3004,12097344,1429,8185,8188,8188
3005,12097504,1391,8184,8187,8187
3006,12097664,1380,8183,8184,8183
3007,12097824,1449,8184,8186,8186
3008,12097984,1655,8184,8184,8182
3009,12098144,1998.5,8183,8182,8181
3010,12098304,2379,8183,8182,8179
3011,12098464,2674.5,8187,8191,8197
3012,12098624,2846,8192,8195,8206
3013,12098784,2895.5,8211,8200,8226
3014,12098944,2882,8202,8189,8195
3015,12099104,2829,8185,8177,8168
3016,12099264,2740,8182,8174,8165
3017,12099424,2612.5,8184,8176,8168
3018,12099584,2470,8175,8190,8174
3019,12099744,2361.5,8445,8219,8335
3020,12099904,2306,8236,8065,8139
3021,12100064,2301.5,8168,8129,8136
3022,12100224,2312,8176,8184,8169
3023,12100384,2304.5,8180,8192,8179
3024,12100544,2263,8187,8195,8187
3025,12100704,2187.5,8192,8196,8191
3026,12100864,2095,8202,8199,8197
3027,12101024,2004.5,8208,8200,8200
3028,12101184,1929,8224,8205,8213
3029,12101344,1874,8242,8208,8222
3030,12101504,1831,8265,8211,8233
3031,12101664,1795,8281,8215,8245
3032,12101824,1770,8285,8215,8250
3033,12101984,1756,8256,8215,8241
3034,12102144,1753,8213,8207,8218
3035,12102304,1755.5,8183,8197,8196
3036,12102464,1752,8172,8191,8185
3037,12102624,1731,8170,8191,8184
3038,12102784,1692,8171,8191,8184
3039,12102944,1642.5,8176,8191,8188
3040,12103104,1594,8177,8189,8184
3041,12103264,1555.5,8178,8188,8184
3042,12103424,1532,8177,8186,8181
3043,12103584,1549.5,8176,8188,8181
3044,12103744,1664,8175,8185,8175
3045,12103904,1933,8176,8183,8174
3046,12104064,2318,8176,8184,8175
3047,12104224,2707.5,8177,8184,8175
3048,12104384,3003,8184,8191,8191
3049,12104544,3150,8187,8195,8199
3050,12104704,3183,8190,8194,8204
3051,12104864,3153,8203,8197,8207
3052,12105024,3095,8186,8185,8178
3053,12105184,3006,8178,8178,8164
3054,12105344,2872,8178,8178,8164
3055,12105504,2717.5,8179,8178,8165
3056,12105664,2586,8235,8229,8235
3057,12105824,2514,8439,8131,8271
3058,12105984,2495,8162,8065,8078
3059,12106144,2490.5,8166,8179,8161
3060,12106304,2465,8167,8190,8169
3061,12106464,2395.5,8171,8193,8176
3062,12106624,2293,8177,8197,8184
3063,12106784,2174,8186,8202,8195
3064,12106944,2064,8193,8205,8201
3065,12107104,1970.5,8203,8205,8202
3066,12107264,1892,8221,8210,8216
3067,12107424,1824.5,8239,8215,8227
3068,12107584,1767,8263,8219,8241
3069,12107744,1710,8269,8221,8247
3070,12107904,1660,8255,8223,8246
3071,12108064,1624.5,8210,8221,8230
3072,12108224,1605,8174,8216,8213
3073,12108384,1588,8155,8209,8196
3074,12108544,1564,8148,8208,8192
3075,12108704,1524,8147,8209,8192
3076,12108864,1474,8148,8213,8197
3077,12109024,1421.5,8151,8215,8199
3078,12109184,1381,8151,8217,8199
3079,12109344,1359.5,8147,8218,8197
3080,12109504,1361,8146,8222,8201
3081,12109664,1438,8142,8225,8201
3082,12109824,1637,8139,8229,8203
3083,12109984,1997,8140,8234,8207
3084,12110144,2420,8136,8236,8206
3085,12110304,2797,8132,8241,8210
3086,12110464,3045,8135,8254,8229
3087,12110624,3150.5,8136,8260,8238
3088,12110784,3162,8153,8268,8257
3089,12110944,3122,8145,8261,8231
3090,12111104,3051,8122,8252,8207
3091,12111264,2935.5,8119,8252,8203
3092,12111424,2787,8119,8256,8207
3093,12111584,2642,8105,8270,8211
3094,12111744,2542,8375,8299,8370
3095,12111904,2502.5,8174,8151,8186
3096,12112064,2498,8096,8220,8181
3097,12112224,2485.5,8098,8275,8208
3098,12112384,2439,8099,8280,8215
3099,12112544,2347.5,8101,8283,8218
3100,12112704,2231,8106,8286,8224
3101,12112864,2106.5,8112,8288,8226
3102,12113024,1989,8119,8293,8232
3103,12113184,1892,8136,8294,8238
3104,12113344,1807,8151,8295,8243
3105,12113504,1733.5,8174,8297,8252
3106,12113664,1664,8194,8298,8261
3107,12113824,1601.5,8192,8301,8266
3108,12113984,1548,8164,8299,8256
3109,12114144,1507,8117,8289,8228
3110,12114304,1471,8090,8277,8206
3111,12114464,1430.5,8075,8270,8191
3112,12114624,1377,8074,8263,8184
3113,12114784,1306.5,8077,8263,8184
3114,12114944,1227,8078,8256,8179
3115,12115104,1147,8081,8252,8175
3116,12115264,1082,8080,8246,8167
3117,12115424,1033,8081,8243,8166
3118,12115584,1014,8082,8241,8163
3119,12115744,1082.5,8084,8237,8160
3120,12115904,1298,8084,8237,8160
3121,12116064,1664.5,8089,8228,8153
3122,12116224,2080,8091,8224,8152
3123,12116384,2417.5,8102,8227,8164
3124,12116544,2619,8104,8227,8168
3125,12116704,2689.5,8121,8229,8181
3126,12116864,2682,8124,8221,8167
3127,12117024,2631,8110,8207,8140
3128,12117184,2537,8107,8200,8129
3129,12117344,2387,8112,8194,8126
3130,12117504,2212,8111,8192,8123
3131,12117664,2073.5,8235,8238,8222
3132,12117824,2002,8245,8161,8205
3133,12117984,1998.5,8086,8094,8047
3134,12118144,2016,8118,8177,8115
3135,12118304,2014.5,8122,8186,8127
3136,12118464,1975,8129,8187,8130
3137,12118624,1894,8143,8187,8138
3138,12118784,1792,8154,8188,8144
3139,12118944,1686,8164,8186,8147
3140,12119104,1593,8179,8184,8153
3141,12119264,1518,8199,8186,8164
3142,12119424,1461,8221,8183,8170
3143,12119584,1421,8244,8182,8178
3144,12119744,1394,8251,8180,8180
3145,12119904,1380,8235,8182,8184
3146,12120064,1381,8198,8184,8177
3147,12120224,1388.5,8163,8178,8164
3148,12120384,1391,8147,8172,8151
3149,12120544,1381,8142,8167,8141
3150,12120704,1351,8148,8165,8143
3151,12120864,1310.5,8152,8164,8145
3152,12121024,1265,8155,8162,8145
3153,12121184,1220.5,8161,8160,8143
3154,12121344,1184,8162,8158,8143
3155,12121504,1159,8161,8157,8140
3156,12121664,1177,8161,8156,8141
3157,12121824,1305.5,8166,8154,8142
3158,12121984,1590,8168,8153,8142
3159,12122144,1989,8170,8154,8145
3160,12122304,2387,8179,8159,8161
3161,12122464,2661,8186,8163,8170
3162,12122624,2797,8202,8164,8182
3163,12122784,2814.5,8187,8150,8142
3164,12122944,2776,8182,8139,8126
3165,12123104,2690,8182,8139,8124
3166,12123264,2548,8186,8136,8127
3167,12123424,2366.5,8196,8164,8156
3168,12123584,2199,8510,8119,8268
3169,12123744,2104.5,8176,8020,8058
3170,12123904,2081,8178,8113,8109
3171,12124064,2102,8186,8141,8130
3172,12124224,2118,8192,8146,8139
3173,12124384,2095.5,8199,8148,8146
3174,12124544,2034,8208,8151,8155
3175,12124704,1942,8214,8151,8159
3176,12124864,1843,8227,8155,8169
3177,12125024,1747,8241,8158,8178
3178,12125184,1664,8264,8160,8189
3179,12125344,1595.5,8290,8164,8204
3180,12125504,1540,8300,8163,8208
3181,12125664,1495.5,8294,8165,8212
3182,12125824,1464,8259,8168,8206
3183,12125984,1451.5,8220,8163,8189
3184,12126144,1449,8195,8156,8173
3185,12126304,1451.5,8186,8150,8163
3186,12126464,1445,8186,8152,8167
3187,12126624,1418,8191,8154,8172
3188,12126784,1376,8196,8153,8173
3189,12126944,1328,8197,8151,8171
3190,12127104,1286,8198,8149,8168
3191,12127264,1256,8198,8147,8166
3192,12127424,1254,8199,8149,8169
3193,12127584,1342,8199,8147,8165
3194,12127744,1568,8202,8148,8168
3195,12127904,1955,8204,8149,8170
3196,12128064,2386,8209,8154,8180
3197,12128224,2745,8216,8163,8200
3198,12128384,2955,8217,8165,8205
3199,12128544,3021,8237,8164,8209
3200,12128704,3001,8219,8152,8177
3201,12128864,2937.5,8210,8144,8161
3202,12129024,2838,8212,8145,8165
3203,12129184,2690.5,8215,8147,8167
3204,12129344,2523,8244,8186,8214
3205,12129504,2381.5,8519,8109,8290
3206,12129664,2306,8207,8016,8071
3207,12129824,2289.5,8207,8138,8159
3208,12129984,2296,8212,8157,8175
3209,12130144,2281,8217,8160,8178
3210,12130304,2229,8225,8161,8186
3211,12130464,2140,8231,8164,8191
3212,12130624,2039,8240,8168,8199
3213,12130784,1936.5,8252,8171,8208
3214,12130944,1844,8264,8174,8215
3215,12131104,1763,8287,8177,8227
3216,12131264,1692,8307,8178,8234
3217,12131424,1632.5,8318,8180,8243
3218,12131584,1580,8310,8178,8240
3219,12131744,1542.5,8270,8173,8224
3220,12131904,1518,8234,8164,8201
3221,12132064,1505,8213,8158,8185
3222,12132224,1488,8206,8156,8182
3223,12132384,1457,8207,8156,8181
3224,12132544,1408,8209,8158,8184
3225,12132704,1348,8211,8159,8185
3226,12132864,1292,8215,8158,8186
3227,12133024,1245.5,8214,8158,8184
3228,12133184,1213,8214,8157,8183
3229,12133344,1217.5,8213,8157,8182
3230,12133504,1333,8211,8157,8179
3231,12133664,1617,8211,8157,8179
3232,12133824,2041,8212,8159,8183
3233,12133984,2478.5,8215,8163,8191
3234,12134144,2815,8221,8170,8206
3235,12134304,2975.5,8221,8168,8206
3236,12134464,3019,8235,8172,8212
3237,12134624,2992.5,8221,8160,8184
3238,12134784,2935,8210,8152,8167
3239,12134944,2839.5,8208,8150,8164
3240,12135104,2695,8212,8151,8167
3241,12135264,2525.5,8222,8183,8200
3242,12135424,2381,8533,8124,8304
3243,12135584,2308.5,8216,8019,8082
3244,12135744,2289,8194,8140,8156
3245,12135904,2294,8194,8162,8168
3246,12136064,2275,8197,8167,8175
3247,12136224,2214,8202,8172,8182
3248,12136384,2121,8209,8175,8191
3249,12136544,2016.5,8218,8178,8198
3250,12136704,1917,8225,8180,8203
3251,12136864,1832.5,8240,8184,8213
3252,12137024,1764,8261,8189,8226
3253,12137184,1707,8283,8192,8236
3254,12137344,1659,8293,8195,8245
3255,12137504,1619,8285,8196,8247
3256,12137664,1590,8247,8195,8235
3257,12137824,1571,8203,8186,8208
3258,12137984,1561,8183,8178,8191
3259,12138144,1548.5,8175,8174,8184
3260,12138304,1520,8174,8172,8181
3261,12138464,1470,8177,8174,8185
3262,12138624,1413,8178,8175,8185
3263,12138784,1363.5,8176,8173,8181
3264,12138944,1329,8179,8174,8184
3265,12139104,1303,8175,8173,8179
3266,12139264,1302,8172,8174,8180
3267,12139424,1395.5,8172,8173,8177
3268,12139584,1635,8171,8174,8177
3269,12139744,2031.5,8172,8172,8174
3270,12139904,2479,8175,8172,8176
3271,12140064,2846.5,8183,8180,8195
3272,12140224,3062,8185,8184,8204
3273,12140384,3128,8203,8190,8220
3274,12140544,3110,8191,8178,8188
3275,12140704,3054,8177,8168,8167
3276,12140864,2967,8175,8166,8162
3277,12141024,2828,8175,8167,8165
3278,12141184,2649,8172,8188,8182
3279,12141344,2482,8491,8179,8331
3280,12141504,2364,8199,8050,8116
3281,12141664,2306.5,8166,8142,8152
3282,12141824,2283,8166,8177,8169
3283,12141984,2246,8173,8182,8177
3284,12142144,2174,8180,8187,8184
3285,12142304,2064,8183,8189,8188
3286,12142464,1935,8194,8189,8193
3287,12142624,1807.5,8205,8190,8198
3288,12142784,1693,8214,8195,8207
3289,12142944,1596,8237,8196,8215
3290,12143104,1512,8256,8200,8226
3291,12143264,1440.5,8271,8202,8234
3292,12143424,1378,8267,8204,8239
3293,12143584,1331,8239,8203,8231
3294,12143744,1299,8200,8197,8213
3295,12143904,1277,8168,8189,8192
3296,12144064,1258,8157,8186,8182
3297,12144224,1225,8155,8184,8181
3298,12144384,1175,8158,8187,8184
3299,12144544,1110,8162,8183,8182
3300,12144704,1046,8166,8180,8180
3301,12144864,992,8166,8181,8181
3302,12145024,950,8165,8179,8178
3303,12145184,926,8165,8180,8179
3304,12145344,959,8164,8180,8177
3305,12145504,1133,8165,8177,8178
3306,12145664,1457,8165,8177,8176
3307,12145824,1886.5,8175,8187,8195
3308,12145984,2281,8180,8191,8204
3309,12146144,2540.5,8185,8194,8216
3310,12146304,2649,8194,8192,8208
3311,12146464,2651,8171,8180,8177
3312,12146624,2603,8172,8174,8168
3313,12146784,2511.5,8167,8176,8169
3314,12146944,2365,8173,8176,8167
3315,12147104,2169.5,8288,8226,8269
3316,12147264,1988,8308,8148,8252
3317,12147424,1877.5,8134,8084,8092
3318,12147584,1848,8168,8172,8163
3319,12147744,1862.5,8176,8183,8176
3320,12147904,1874,8180,8187,8182
3321,12148064,1848,8188,8188,8190
3322,12148224,1787,8194,8190,8192
3323,12148384,1702,8205,8195,8201
3324,12148544,1618,8217,8196,8206
3325,12148704,1542,8235,8197,8213
3326,12148864,1480,8257,8198,8224
3327,12149024,1425.5,8276,8199,8232
3328,12149184,1379,8281,8200,8236
3329,12149344,1339.5,8263,8205,8239
3330,12149504,1328,8221,8204,8224
3331,12149664,1337,8187,8200,8208
3332,12149824,1343,8170,8193,8197
3333,12149984,1337,8163,8192,8192
3334,12150144,1305,8166,8191,8191
3335,12150304,1245.5,8172,8189,8191
3336,12150464,1184,8173,8188,8190
3337,12150624,1139,8173,8189,8193
3338,12150784,1116,8176,8187,8191
3339,12150944,1139,8173,8183,8185
3340,12151104,1266,8176,8184,8186
3341,12151264,1553,8172,8183,8187
3342,12151424,1952,8178,8182,8186
3343,12151584,2345,8183,8191,8202
3344,12151744,2622,8183,8195,8210
3345,12151904,2743.5,8192,8196,8217
3346,12152064,2764,8199,8193,8211
3347,12152224,2723,8180,8180,8179
3348,12152384,2631,8176,8176,8169
3349,12152544,2480.5,8176,8174,8169
3350,12152704,2288,8176,8177,8170
3351,12152864,2118.5,8268,8226,8256
3352,12153024,2023,8361,8136,8254
3353,12153184,2013.5,8141,8072,8079
3354,12153344,2046,8170,8171,8160
3355,12153504,2067,8172,8182,8170
3356,12153664,2045,8180,8183,8176
3357,12153824,1975,8186,8187,8182
3358,12153984,1882,8193,8191,8191
3359,12154144,1785,8201,8190,8193
3360,12154304,1701,8214,8191,8197
3361,12154464,1631.5,8231,8193,8206
3362,12154624,1573,8252,8198,8217
3363,12154784,1527,8272,8200,8228
3364,12154944,1490,8278,8199,8229
3365,12155104,1473,8258,8197,8224
3366,12155264,1474,8219,8197,8214
3367,12155424,1487.5,8187,8191,8195
3368,12155584,1497,8170,8183,8180
3369,12155744,1490.5,8166,8182,8178
3370,12155904,1465,8166,8180,8174
3371,12156064,1425,8171,8181,8178
3372,12156224,1384,8173,8181,8178
3373,12156384,1346.5,8175,8182,8180
3374,12156544,1323,8174,8178,8175
3375,12156704,1354.5,8174,8178,8175
3376,12156864,1505,8176,8177,8174
3377,12157024,1833,8177,8177,8174
3378,12157184,2275,8177,8177,8172
3379,12157344,2703.5,8179,8177,8174
3380,12157504,3009,8185,8186,8194
3381,12157664,3148.5,8185,8187,8197
3382,12157824,3172,8202,8189,8205
3383,12157984,3135,8186,8177,8172
3384,12158144,3057,8175,8169,8155
3385,12158304,2921,8174,8168,8153
3386,12158464,2740,8176,8170,8155
3387,12158624,2558,8192,8201,8192
3388,12158784,2431,8502,8147,8297
3389,12158944,2380.5,8174,8035,8066
3390,12159104,2377,8165,8155,8144
3391,12159264,2371,8169,8179,8159
3392,12159424,2331,8175,8184,8168
3393,12159584,2247.5,8181,8188,8174
3394,12159744,2137,8188,8189,8178
3395,12159904,2014,8195,8190,8183
3396,12160064,1900,8207,8194,8191
3397,12160224,1803,8222,8199,8202
3398,12160384,1719,8239,8202,8210
3399,12160544,1646.5,8265,8206,8226
3400,12160704,1587,8275,8205,8229
3401,12160864,1544,8267,8205,8230
3402,12161024,1515,8230,8203,8217
3403,12161184,1498,8192,8198,8199
3404,12161344,1479,8170,8186,8177
3405,12161504,1449.5,8162,8184,8171
3406,12161664,1403,8160,8184,8170
3407,12161824,1344.5,8164,8185,8172
3408,12161984,1283,8170,8186,8177
3409,12162144,1228,8171,8184,8175
3410,12162304,1183,8170,8180,8169
3411,12162464,1184.5,8171,8180,8171
3412,12162624,1295,8172,8180,8170
3413,12162784,1589,8173,8180,8171
3414,12162944,2032,8171,8177,8166
3415,12163104,2495.5,8175,8177,8169
3416,12163264,2845,8174,8179,8170
3417,12163424,3011,8184,8187,8191
3418,12163584,3042,8183,8188,8193
3419,12163744,2992,8202,8195,8211
3420,12163904,2917,8192,8185,8184
3421,12164064,2818,8177,8175,8162
3422,12164224,2676,8175,8174,8160
3423,12164384,2517,8177,8175,8160
3424,12164544,2386,8167,8187,8164
3425,12164704,2321,8458,8203,8325
3426,12164864,2311,8228,8038,8105
3427,12165024,2325.5,8166,8132,8134
3428,12165184,2323,8170,8178,8159
3429,12165344,2279.5,8175,8185,8169
3430,12165504,2200,8179,8185,8170
3431,12165664,2104,8187,8191,8181
3432,12165824,2010,8194,8194,8187
3433,12165984,1937.5,8205,8197,8195
3434,12166144,1886,8218,8202,8206
3435,12166304,1843,8236,8204,8214
3436,12166464,1800,8259,8209,8227
3437,12166624,1752.5,8277,8212,8240
3438,12166784,1710,8273,8212,8239
3439,12166944,1681,8246,8212,8233
3440,12167104,1664,8203,8204,8210
3441,12167264,1648.5,8175,8195,8191
3442,12167424,1634,8163,8191,8181
3443,12167584,1602.5,8163,8190,8180
3444,12167744,1563,8166,8189,8181
3445,12167904,1521.5,8167,8188,8179
3446,12168064,1484,8170,8188,8181
3447,12168224,1453.5,8170,8186,8179
3448,12168384,1434,8172,8186,8178
3449,12168544,1493,8170,8185,8176
3450,12168704,1683,8171,8184,8175
3451,12168864,2047.5,8170,8186,8177
3452,12169024,2480,8168,8184,8173
3453,12169184,2857.5,8169,8186,8176
3454,12169344,3086,8171,8185,8176
3455,12169504,3158.5,8176,8195,8197
3456,12169664,3132,8176,8196,8198
3457,12169824,3063,8196,8204,8216
3458,12169984,2968,8179,8192,8183
3459,12170144,2817.5,8165,8183,8166
3460,12170304,2630,8162,8182,8163
3461,12170464,2445.5,8164,8185,8166
3462,12170624,2321,8161,8205,8182
3463,12170784,2267,8485,8191,8331
3464,12170944,2255,8177,8064,8107
3465,12171104,2234,8147,8164,8153
3466,12171264,2178,8149,8199,8170
3467,12171424,2074.5,8154,8206,8180
3468,12171584,1955,8157,8213,8191
3469,12171744,1838.5,8165,8214,8193
3470,12171904,1736,8171,8218,8201
3471,12172064,1655.5,8177,8220,8203
3472,12172224,1587,8190,8225,8215
3473,12172384,1523.5,8212,8231,8226
3474,12172544,1466,8231,8231,8234
3475,12172704,1419.5,8244,8236,8242
3476,12172864,1388,8234,8238,8247
3477,12173024,1368,8207,8242,8245
3478,12173184,1348,8166,8235,8223
3479,12173344,1320.5,8138,8230,8205
3480,12173504,1276,8124,8223,8193
3481,12173664,1214.5,8119,8226,8195
3482,12173824,1145,8122,8227,8196
3483,12173984,1081.5,8126,8227,8198
3484,12174144,1031,8123,8229,8198
3485,12174304,991,8123,8223,8190
3486,12174464,967,8117,8224,8189
3487,12174624,1009.5,8118,8225,8189
3488,12174784,1190,8114,8225,8186
3489,12174944,1545.5,8113,8225,8184
3490,12175104,1988,8114,8224,8183
3491,12175264,2388,8111,8225,8184
3492,12175424,2652,8117,8230,8195
3493,12175584,2762.5,8120,8233,8202
3494,12175744,2774,8123,8233,8208
3495,12175904,2731,8132,8231,8204
3496,12176064,2646,8117,8219,8172
3497,12176224,2500.5,8106,8215,8165
3498,12176384,2318,8106,8214,8162
3499,12176544,2157,8103,8214,8160
3500,12176704,2065,8170,8254,8223
3501,12176864,2054.5,8312,8183,8252
3502,12177024,2080,8066,8108,8073
3503,12177184,2093.5,8092,8200,8143
3504,12177344,2056,8099,8212,8153
3505,12177504,1963,8103,8216,8160
3506,12177664,1840,8108,8219,8164
3507,12177824,1709.5,8117,8217,8166
3508,12177984,1590,8124,8222,8172
3509,12178144,1491,8138,8220,8177
3510,12178304,1408,8153,8219,8180
3511,12178464,1338,8173,8219,8186
3512,12178624,1280,8194,8219,8194
3513,12178784,1236,8204,8220,8201
3514,12178944,1206,8190,8217,8197
3515,12179104,1193.5,8151,8218,8188
3516,12179264,1192,8116,8214,8171
3517,12179424,1191.5,8094,8206,8156
3518,12179584,1179,8092,8203,8152
3519,12179744,1144,8095,8200,8149
3520,12179904,1091,8099,8198,8151
3521,12180064,1034.5,8105,8195,8150
3522,12180224,984,8105,8194,8149
3523,12180384,948.5,8110,8192,8147
3524,12180544,937,8109,8189,8145
3525,12180704,999,8111,8186,8141
3526,12180864,1201,8111,8184,8139
3527,12181024,1555,8114,8183,8138
3528,12181184,1983,8115,8183,8139
3529,12181344,2342,8122,8183,8142
3530,12181504,2567,8131,8189,8160
3531,12181664,2640,8134,8190,8165
3532,12181824,2628,8155,8193,8178
3533,12181984,2566,8141,8182,8149
3534,12182144,2459,8132,8172,8131
3535,12182304,2304,8133,8170,8130
3536,12182464,2127,8134,8170,8129
3537,12182624,1991,8143,8197,8162
3538,12182784,1924,8465,8160,8285
3539,12182944,1932.5,8135,8054,8071
3540,12183104,1961,8131,8149,8126
3541,12183264,1974,8140,8180,8145
3542,12183424,1940,8147,8187,8158
3543,12183584,1866.5,8155,8189,8164
3544,12183744,1775,8165,8189,8170
3545,12183904,1686.5,8172,8191,8175
3546,12184064,1612,8188,8191,8182
3547,12184224,1554.5,8204,8196,8193
3548,12184384,1508,8225,8197,8202
3549,12184544,1477.5,8248,8197,8211
3550,12184704,1453,8261,8197,8216
3551,12184864,1434.5,8258,8195,8216
3552,12185024,1419,8225,8196,8211
3553,12185184,1406,8184,8190,8188
3554,12185344,1398,8161,8178,8167
3555,12185504,1387,8154,8174,8160
3556,12185664,1374,8153,8174,8161
3557,12185824,1355.5,8158,8173,8162
3558,12185984,1329,8164,8174,8165
3559,12186144,1298,8167,8174,8167
3560,12186304,1266,8169,8173,8167
3561,12186464,1243,8169,8171,8165
3562,12186624,1261,8169,8171,8165
3563,12186784,1410.5,8169,8170,8162
3564,12186944,1713,8168,8167,8158
3565,12187104,2131.5,8169,8166,8156
3566,12187264,2532,8168,8166,8153
3567,12187424,2808.5,8173,8168,8159
3568,12187584,2938,8182,8176,8180
3569,12187744,2954.5,8185,8177,8185
3570,12187904,2918,8206,8184,8202
3571,12188064,2844.5,8193,8172,8172
3572,12188224,2731,8180,8164,8153
3573,12188384,2574.5,8182,8163,8152
3574,12188544,2418,8183,8165,8156
3575,12188704,2309,8177,8180,8165
3576,12188864,2265,8495,8180,8323
3577,12189024,2263,8221,8033,8101
3578,12189184,2265,8178,8135,8143
3579,12189344,2231,8184,8175,8165
3580,12189504,2153,8189,8179,8172
3581,12189664,2043.5,8196,8182,8180
3582,12189824,1923,8206,8189,8195
3583,12189984,1810.5,8213,8188,8195
3584,12190144,1717,8224,8187,8199
3585,12190304,1648,8240,8192,8211
3586,12190464,1596,8257,8192,8216
3587,12190624,1556.5,8282,8200,8235
3588,12190784,1524,8298,8202,8244
3589,12190944,1500.5,8298,8202,8248
3590,12191104,1486,8268,8202,8240
3591,12191264,1480,8228,8196,8221
3592,12191424,1474,8203,8185,8201
3593,12191584,1459.5,8196,8184,8198
3594,12191744,1432,8192,8181,8192
3595,12191904,1385,8196,8181,8193
3596,12192064,1328,8200,8183,8199
3597,12192224,1276.5,8202,8182,8198
3598,12192384,1237,8206,8182,8200
3599,12192544,1215,8207,8181,8198
3600,12192704,1241,8204,8178,8193
3601,12192864,1394,8205,8179,8195
3602,12193024,1696,8206,8180,8196
3603,12193184,2114,8208,8182,8198
3604,12193344,2515,8207,8178,8193
3605,12193504,2786,8208,8179,8195
3606,12193664,2901,8213,8185,8206
3607,12193824,2901.5,8220,8192,8222
3608,12193984,2851,8221,8194,8226
3609,12194144,2778.5,8239,8199,8235
3610,12194304,2677,8220,8185,8201
3611,12194464,2522,8210,8177,8186
3612,12194624,2343,8212,8178,8188
3613,12194784,2195.5,8214,8181,8193
3614,12194944,2117,8245,8220,8240
3615,12195104,2101.5,8512,8141,8309
3616,12195264,2108,8212,8056,8106
3617,12195424,2085,8205,8176,8186
3618,12195584,2019,8208,8194,8200
3619,12195744,1908.5,8212,8196,8204
3620,12195904,1779,8217,8196,8206
3621,12196064,1654.5,8224,8199,8215
3622,12196224,1547,8230,8200,8218
3623,12196384,1460.5,8242,8204,8226
3624,12196544,1388,8257,8205,8233
3625,12196704,1325.5,8275,8209,8243
3626,12196864,1271,8298,8214,8258
3627,12197024,1224.5,8306,8214,8263
3628,12197184,1184,8297,8216,8265
3629,12197344,1150,8259,8212,8248
3630,12197504,1124,8219,8202,8223
3631,12197664,1103.5,8197,8195,8209
3632,12197824,1080,8190,8191,8201
3633,12197984,1048,8192,8191,8202
3634,12198144,1007,8191,8190,8202
3635,12198304,963.5,8191,8189,8199
3636,12198464,928,8196,8189,8203
3637,12198624,905.5,8191,8186,8198
3638,12198784,899,8194,8187,8201
3639,12198944,956.5,8190,8185,8195
3640,12199104,1138,8188,8182,8192
3641,12199264,1489.5,8188,8182,8194
3642,12199424,1930,8186,8183,8194
3643,12199584,2335,8187,8185,8195
3644,12199744,2608,8188,8184,8196
3645,12199904,2721.5,8194,8194,8216
3646,12200064,2730,8196,8193,8217
3647,12200224,2687,8215,8202,8234
3648,12200384,2617,8197,8189,8203
3649,12200544,2504,8185,8181,8183
3650,12200704,2350,8183,8178,8179
3651,12200864,2186,8183,8180,8183
3652,12201024,2066,8185,8204,8206
3653,12201184,2016,8516,8182,8345
3654,12201344,2016,8192,8065,8128
3655,12201504,2024.5,8169,8160,8168
3656,12201664,2004,8175,8192,8186
3657,12201824,1938,8177,8196,8193
3658,12201984,1840,8183,8200,8199
3659,12202144,1725,8192,8200,8203
3660,12202304,1616,8196,8202,8204
3661,12202464,1526,8205,8205,8211
3662,12202624,1456,8219,8207,8218
3663,12202784,1399,8239,8210,8228
3664,12202944,1352,8261,8211,8234
3665,12203104,1318,8269,8212,8240
3666,12203264,1293,8265,8215,8243
3667,12203424,1277,8239,8215,8239
3668,12203584,1266,8201,8211,8220
3669,12203744,1251.5,8177,8200,8201
3670,12203904,1229,8162,8195,8188
3671,12204064,1189.5,8159,8196,8187
3672,12204224,1138,8166,8193,8185
3673,12204384,1081,8167,8191,8186
3674,12204544,1033,8171,8185,8182
3675,12204704,997,8171,8187,8180
3676,12204864,965,8169,8182,8176
3677,12205024,957,8171,8181,8176
3678,12205184,1035,8168,8185,8178
3679,12205344,1263,8170,8185,8178
3680,12205504,1641,8168,8184,8177
3681,12205664,2056.5,8168,8183,8174
3682,12205824,2388,8176,8191,8193
3683,12205984,2552.5,8181,8199,8205
3684,12206144,2589,8188,8201,8217
3685,12206304,2546,8193,8196,8202
3686,12206464,2469,8177,8184,8177
3687,12206624,2353.5,8167,8182,8169
3688,12206784,2194,8175,8180,8168
3689,12206944,2019.5,8169,8185,8171
3690,12207104,1879,8280,8231,8263
3691,12207264,1817.5,8310,8151,8243
3692,12207424,1813,8132,8081,8082
3693,12207584,1827,8171,8170,8155
3694,12207744,1814,8173,8182,8167
3695,12207904,1763.5,8177,8186,8171
3696,12208064,1683,8185,8189,8180
3697,12208224,1587,8191,8196,8191
3698,12208384,1489,8205,8197,8197
3699,12208544,1397.5,8219,8199,8204
3700,12208704,1318,8230,8200,8208
3701,12208864,1256.5,8255,8199,8216
3702,12209024,1214,8270,8201,8226
3703,12209184,1195.5,8277,8204,8232
3704,12209344,1193,8265,8205,8231
3705,12209504,1202.5,8221,8208,8222
3706,12209664,1217,8189,8204,8207
3707,12209824,1225.5,8172,8198,8196
3708,12209984,1218,8166,8196,8190
3709,12210144,1199,8169,8195,8189
3710,12210304,1165,8172,8192,8188
3711,12210464,1126.5,8176,8194,8191
3712,12210624,1086,8176,8193,8190
3713,12210784,1045,8176,8192,8192
3714,12210944,1010,8178,8189,8187
3715,12211104,1021.5,8175,8188,8184
3716,12211264,1137,8178,8187,8187
3717,12211424,1419,8175,8190,8188
3718,12211584,1822,8177,8190,8189
3719,12211744,2226.5,8186,8197,8208
3720,12211904,2515,8188,8200,8214
3721,12212064,2647,8206,8209,8239
3722,12212224,2670,8204,8197,8212
3723,12212384,2625,8190,8188,8192
3724,12212544,2538,8187,8186,8186
3725,12212704,2399.5,8186,8184,8185
3726,12212864,2224,8171,8191,8178
3727,12213024,2060.5,8403,8222,8316
3728,12213184,1966,8210,8123,8186
3729,12213344,1956,8149,8110,8105
3730,12213504,1995,8171,8178,8159
3731,12213664,2028,8175,8187,8171
3732,12213824,2027,8184,8191,8177
3733,12213984,1979.5,8189,8194,8183
3734,12214144,1897,8198,8195,8188
3735,12214304,1803,8208,8198,8196
3736,12214464,1713,8220,8200,8200
3737,12214624,1633,8235,8201,8207
3738,12214784,1566,8252,8203,8214
3739,12214944,1505.5,8272,8203,8225
3740,12215104,1453,8273,8202,8225
3741,12215264,1418.5,8249,8204,8223
3742,12215424,1404,8211,8203,8209
3743,12215584,1409,8183,8196,8193
3744,12215744,1419,8172,8191,8183
3745,12215904,1419.5,8165,8188,8177
3746,12216064,1402,8167,8188,8177
3747,12216224,1367,8171,8189,8182
3748,12216384,1323,8175,8188,8182
3749,12216544,1278.5,8175,8188,8180
3750,12216704,1243,8173,8184,8175
3751,12216864,1226.5,8173,8184,8175
3752,12217024,1266,8171,8185,8176
3753,12217184,1449.5,8171,8182,8171
3754,12217344,1792,8172,8186,8176
3755,12217504,2250,8175,8185,8175
3756,12217664,2673,8176,8189,8184
3757,12217824,2951.5,8181,8195,8199
3758,12217984,3071,8183,8200,8207
3759,12218144,3077.5,8199,8203,8213
3760,12218304,3031,8182,8189,8178
3761,12218464,2941.5,8174,8182,8167
3762,12218624,2808,8173,8182,8165
3763,12218784,2634,8178,8183,8169
3764,12218944,2473,8209,8223,8218
3765,12219104,2371,8466,8147,8283
3766,12219264,2339,8150,8058,8073
3767,12219424,2346,8165,8173,8156
3768,12219584,2347,8170,8193,8172
3769,12219744,2309,8179,8197,8180
3770,12219904,2232,8183,8199,8186
3771,12220064,2127.5,8189,8202,8191
3772,12220224,2017,8201,8204,8199
3773,12220384,1908.5,8208,8209,8205
3774,12220544,1809,8222,8211,8212
3775,12220704,1719,8239,8213,8221
3776,12220864,1639,8260,8216,8232
3777,12221024,1571.5,8272,8216,8238
3778,12221184,1517,8263,8217,8239
3779,12221344,1482.5,8234,8218,8231
3780,12221504,1465,8195,8206,8207
3781,12221664,1459.5,8173,8199,8190
3782,12221824,1448,8167,8196,8183
3783,12221984,1424,8168,8196,8185
3784,12222144,1381,8172,8196,8186
3785,12222304,1329.5,8173,8194,8183
3786,12222464,1277,8173,8194,8181
3787,12222624,1230.5,8173,8194,8183
3788,12222784,1193,8176,8194,8183
3789,12222944,1196.5,8174,8192,8179
3790,12223104,1324,8174,8191,8178
3791,12223264,1641,8176,8189,8176
3792,12223424,2110,8176,8191,8178
3793,12223584,2582.5,8176,8190,8175
3794,12223744,2937,8179,8193,8180
3795,12223904,3096.5,8188,8201,8203
3796,12224064,3120,8186,8200,8201
3797,12224224,3069,8207,8204,8213
3798,12224384,2996,8187,8190,8176
3799,12224544,2897.5,8178,8185,8165
3800,12224704,2757,8178,8181,8159
3801,12224864,2589.5,8181,8182,8164
3802,12225024,2439,8192,8214,8197
3803,12225184,2353.5,8508,8158,8304
3804,12225344,2324,8177,8050,8077
3805,12225504,2320,8167,8167,8150
3806,12225664,2296,8173,8193,8166
3807,12225824,2232.5,8179,8200,8177
3808,12225984,2138,8182,8203,8182
3809,12226144,2027,8189,8205,8188
3810,12226304,1918,8198,8206,8193
3811,12226464,1825,8209,8208,8199
3812,12226624,1742,8224,8212,8207
3813,12226784,1671.5,8243,8217,8220
3814,12226944,1613,8265,8219,8231
3815,12227104,1563,8275,8221,8239
3816,12227264,1523,8272,8218,8238
3817,12227424,1496,8236,8219,8229
3818,12227584,1480,8197,8210,8203
3819,12227744,1469.5,8177,8201,8188
3820,12227904,1460,8168,8197,8180
3821,12228064,1434,8167,8195,8176
3822,12228224,1390,8171,8196,8181
3823,12228384,1337.5,8173,8196,8181
3824,12228544,1290,8172,8194,8178
3825,12228704,1247.5,8175,8191,8177
3826,12228864,1212,8173,8189,8172
3827,12229024,1205,8175,8191,8175
3828,12229184,1293,8175,8190,8174
3829,12229344,1566.5,8174,8189,8174
3830,12229504,2015,8175,8188,8172
3831,12229664,2520.5,8177,8187,8172
3832,12229824,2932,8178,8187,8173
3833,12229984,3149,8180,8188,8175
3834,12230144,3212,8186,8198,8195
3835,12230304,3176.5,8187,8202,8200
3836,12230464,3109,8196,8202,8210
3837,12230624,3017.5,8201,8198,8199
3838,12230784,2883,8180,8185,8168
3839,12230944,2710,8178,8182,8162
3840,12231104,2543,8179,8178,8157
3841,12231264,2430.5,8177,8184,8163
3842,12231424,2381,8303,8236,8267
3843,12231584,2372.5,8346,8117,8225
3844,12231744,2356,8155,8087,8082
3845,12231904,2291,8167,8182,8155
3846,12232064,2180,8172,8191,8165
3847,12232224,2010,8177,8198,8177
3848,12232384,1855,8185,8200,8183
3849,12232544,1750,8191,8201,8186
3850,12232704,1675,8200,8202,8191
3851,12232864,1601.5,8211,8204,8196
3852,12233024,1540,8226,8210,8208
3853,12233184,1502.5,8247,8213,8219
3854,12233344,1474,8264,8215,8228
3855,12233504,1454.5,8272,8217,8237
3856,12233664,1437,8256,8214,8230
3857,12233824,1421,8220,8212,8218
3858,12233984,1400,8185,8202,8193
3859,12234144,1368.5,8168,8194,8179
3860,12234304,1327,8164,8192,8175
3861,12234464,1275.5,8165,8192,8177
3862,12234624,1226,8167,8193,8178
3863,12234784,1181.5,8170,8192,8179
3864,12234944,1143,8170,8188,8173
3865,12235104,1136.5,8169,8187,8173
3866,12235264,1216,8166,8185,8169
3867,12235424,1488.5,8166,8185,8169
3868,12235584,1929,8168,8185,8170
3869,12235744,2444,8167,8184,8167
3870,12235904,2868,8167,8181,8164
3871,12236064,3114,8168,8182,8167
3872,12236224,3195,8169,8182,8166
3873,12236384,3164.5,8170,8185,8170
3874,12236544,3094,8170,8185,8168
3875,12236704,2998,8174,8189,8178
3876,12236864,2870,8182,8199,8201
3877,12237024,2707,8181,8198,8198
3878,12237184,2555,8201,8206,8215
3879,12237344,2451,8183,8192,8181
3880,12237504,2410,8172,8184,8164
3881,12237664,2406.5,8170,8183,8162
3882,12237824,2395,8172,8185,8165
3883,12237984,2343,8180,8217,8198
3884,12238144,2253,8503,8166,8314
3885,12238304,2139.5,8180,8049,8082
3886,12238464,2021,8161,8171,8156
3887,12238624,1915,8160,8198,8170
3888,12238784,1822,8166,8201,8177
3889,12238944,1738,8173,8205,8184
3890,12239104,1666,8177,8207,8188
3891,12239264,1604,8187,8208,8194
3892,12239424,1556,8197,8212,8203
3893,12239584,1520.5,8210,8217,8212
3894,12239744,1495,8227,8220,8222
3895,12239904,1469.5,8249,8223,8234
3896,12240064,1438,8255,8225,8240
3897,12240224,1402,8255,8224,8243
3898,12240384,1368,8225,8224,8237
3899,12240544,1339.5,8188,8216,8213
3900,12240704,1315,8159,8206,8193
3901,12240864,1292.5,8151,8203,8187
3902,12241024,1263,8146,8201,8184
3903,12241184,1225.5,8153,8202,8187
3904,12241344,1181,8154,8202,8186
3905,12241504,1142.5,8152,8198,8181
3906,12241664,1113,8151,8198,8182
3907,12241824,1128,8153,8196,8181
3908,12241984,1259,8152,8197,8182
3909,12242144,1581,8150,8197,8180
3910,12242304,2053,8147,8195,8178
3911,12242464,2535.5,8152,8197,8182
3912,12242624,2901,8151,8195,8181
3913,12242784,3075.5,8148,8201,8185
3914,12242944,3110,8158,8198,8187
3915,12243104,3055,8153,8200,8187
3916,12243264,2970,8154,8200,8190
3917,12243424,2845.5,8163,8209,8209
3918,12243584,2675,8167,8208,8210
3919,12243744,2485.5,8186,8219,8232
3920,12243904,2327,8171,8204,8197
3921,12244064,2248.5,8154,8196,8182
3922,12244224,2232,8155,8195,8178
3923,12244384,2240.5,8157,8196,8182
3924,12244544,2232,8153,8215,8198
3925,12244704,2172.5,8454,8212,8340
3926,12244864,2070,8152,8118,8164
3927,12245024,1943,8139,8156,8156
3928,12245184,1815,8154,8199,8183
3929,12245344,1702,8156,8204,8189
3930,12245504,1604,8165,8207,8196
3931,12245664,1523.5,8171,8209,8202
3932,12245824,1461,8178,8212,8208
3933,12245984,1409.5,8189,8214,8215
3934,12246144,1366,8205,8216,8222
3935,12246304,1334,8225,8219,8230
3936,12246464,1305,8241,8218,8238
3937,12246624,1273,8256,8221,8247
3938,12246784,1241,8257,8223,8251
3939,12246944,1207,8235,8226,8252
3940,12247104,1178,8195,8224,8237
3941,12247264,1153.5,8165,8217,8220
3942,12247424,1135,8154,8212,8212
3943,12247584,1112.5,8152,8213,8210
3944,12247744,1082,8156,8206,8205
3945,12247904,1042.5,8160,8208,8208
3946,12248064,998,8161,8207,8207
3947,12248224,960,8161,8205,8205
3948,12248384,937,8159,8205,8204
3949,12248544,980.5,8163,8204,8202
3950,12248704,1174,8161,8200,8197
3951,12248864,1554.5,8160,8201,8197
3952,12249024,2050,8162,8200,8199
3953,12249184,2494,8163,8201,8199
3954,12249344,2790,8163,8201,8197
3955,12249504,2902,8164,8200,8200
3956,12249664,2903,8172,8209,8217
3957,12249824,2832,8175,8210,8222
3958,12249984,2719,8196,8217,8241
3959,12250144,2558.5,8180,8206,8209
3960,12250304,2369,8165,8194,8187
3961,12250464,2208,8169,8194,8188
3962,12250624,2122,8169,8195,8189
3963,12250784,2128,8168,8217,8208
3964,12250944,2173,8473,8205,8345
3965,12251104,2205.5,8162,8098,8147
3966,12251264,2183,8151,8158,8160
3967,12251424,2112,8164,8199,8186
3968,12251584,2015,8169,8206,8196
3969,12251744,1913.5,8172,8209,8199
3970,12251904,1824,8181,8211,8205
3971,12252064,1751.5,8191,8213,8210
3972,12252224,1686,8200,8214,8216
3973,12252384,1630,8215,8218,8224
3974,12252544,1586,8232,8220,8230
3975,12252704,1555,8256,8223,8243
3976,12252864,1535,8266,8221,8245
3977,12253024,1524,8265,8222,8248
3978,12253184,1524,8238,8224,8244
3979,12253344,1527.5,8197,8221,8229
3980,12253504,1530,8169,8212,8208
3981,12253664,1518,8160,8206,8198
3982,12253824,1494,8155,8206,8195
3983,12253984,1453,8161,8208,8199
3984,12254144,1406,8162,8207,8198
3985,12254304,1350.5,8164,8206,8197
3986,12254464,1300,8164,8204,8195
3987,12254624,1268.5,8165,8202,8193
3988,12254784,1291,8162,8201,8190
3989,12254944,1439,8162,8200,8189
3990,12255104,1762,8163,8198,8186
3991,12255264,2216.5,8163,8198,8186
3992,12255424,2673,8165,8198,8187
3993,12255584,2990.5,8165,8199,8188
3994,12255744,3146,8168,8200,8191
3995,12255904,3153.5,8172,8205,8203
3996,12256064,3093,8174,8207,8208
3997,12256224,2988,8188,8214,8226
3998,12256384,2839,8183,8204,8199
3999,12256544,2663,8166,8191,8173
4000,12256704,2495,8161,8187,8164
4001,12256864,2387,8163,8188,8166
4002,12257024,2348,8153,8197,8168
4003,12257184,2362,8378,8237,8314
4004,12257344,2379,8241,8097,8171
4005,12257504,2362,8144,8124,8119
4006,12257664,2298,8155,8191,8164
4007,12257824,2201,8157,8196,8170
4008,12257984,2095,8164,8203,8180
4009,12258144,1995.5,8170,8205,8186
4010,12258304,1909,8179,8203,8188
4011,12258464,1824.5,8187,8203,8191
4012,12258624,1752,8201,8207,8202
4013,12258784,1691.5,8218,8210,8212
4014,12258944,1644,8241,8214,8224
4015,12259104,1611.5,8256,8215,8231
4016,12259264,1587,8258,8212,8231
4017,12259424,1568.5,8239,8214,8230
4018,12259584,1555,8203,8207,8213
4019,12259744,1544.5,8171,8196,8189
4020,12259904,1524,8157,8188,8174
4021,12260064,1495,8155,8186,8171
4022,12260224,1456,8154,8184,8168
4023,12260384,1410,8160,8186,8174
4024,12260544,1364,8163,8183,8173
4025,12260704,1316.5,8164,8179,8166
4026,12260864,1279,8166,8178,8168
4027,12261024,1292,8163,8176,8164
4028,12261184,1423,8162,8175,8162
4029,12261344,1750,8164,8174,8161
4030,12261504,2224,8163,8174,8160
4031,12261664,2707,8163,8175,8161
4032,12261824,3062,8166,8175,8163
4033,12261984,3224.5,8165,8177,8164
4034,12262144,3246,8175,8185,8183
4035,12262304,3184,8175,8188,8188
4036,12262464,3092,8181,8190,8196
4037,12262624,2969.5,8193,8188,8192
4038,12262784,2809,8172,8175,8161
4039,12262944,2636,8166,8170,8150
4040,12263104,2492,8167,8169,8148
4041,12263264,2418.5,8170,8173,8154
4042,12263424,2397,8273,8228,8253
4043,12263584,2397.5,8379,8107,8233
4044,12263744,2375,8153,8072,8077
4045,12263904,2312.5,8165,8173,8152
4046,12264064,2211,8169,8183,8163
4047,12264224,2092,8173,8188,8171
4048,12264384,1977,8182,8189,8176
4049,12264544,1876,8189,8193,8184
4050,12264704,1787,8196,8194,8188
4051,12264864,1713.5,8210,8198,8199
4052,12265024,1649,8224,8204,8210
4053,12265184,1594,8247,8206,8220
4054,12265344,1548,8267,8211,8234
4055,12265504,1510.5,8274,8213,8241
4056,12265664,1481,8262,8213,8241
4057,12265824,1460,8221,8209,8225
4058,12265984,1439,8189,8202,8205
4059,12266144,1408.5,8171,8193,8188
4060,12266304,1371,8166,8192,8186
4061,12266464,1324,8168,8194,8189
4062,12266624,1272,8174,8197,8194
4063,12266784,1222.5,8179,8198,8198
4064,12266944,1180,8180,8200,8199
4065,12267104,1148.5,8178,8202,8200
4066,12267264,1136,8178,8202,8200
4067,12267424,1210.5,8179,8207,8207
4068,12267584,1442,8179,8211,8211
4069,12267744,1857,8180,8213,8212
4070,12267904,2345,8180,8213,8212
4071,12268064,2753.5,8183,8218,8219
4072,12268224,2996,8185,8219,8221
4073,12268384,3065,8194,8234,8248
4074,12268544,3039,8194,8239,8255
4075,12268704,2966.5,8214,8248,8274
4076,12268864,2867,8200,8241,8249
4077,12269024,2727.5,8189,8235,8232
4078,12269184,2559,8186,8236,8229
4079,12269344,2406,8191,8240,8235
4080,12269504,2304,8177,8254,8239
4081,12269664,2266,8457,8283,8403
4082,12269824,2261,8235,8148,8226
4083,12269984,2245.5,8177,8209,8220
4084,12270144,2194,8185,8261,8248
4085,12270304,2099.5,8188,8269,8256
4086,12270464,1981,8194,8276,8265
4087,12270624,1860,8205,8280,8276
4088,12270784,1747,8213,8287,8284
4089,12270944,1648.5,8225,8292,8293
4090,12271104,1564,8234,8296,8301
4091,12271264,1493,8252,8300,8309
4092,12271424,1433,8274,8304,8322
4093,12271584,1387,8291,8309,8332
4094,12271744,1350,8289,8307,8331
4095,12271904,1320.5,8262,8305,8323
4096,12272064,1297,8221,8301,8303
4097,12272224,1277,8191,8290,8281
4098,12272384,1249,8182,8283,8268
4099,12272544,1211.5,8178,8284,8268
4100,12272704,1162,8184,8280,8266
4101,12272864,1106.5,8182,8277,8262
4102,12273024,1058,8182,8277,8260
4103,12273184,1017,8188,8271,8258
4104,12273344,980,8184,8267,8253
4105,12273504,967,8185,8264,8247
4106,12273664,1037,8186,8261,8246
4107,12273824,1290,8188,8259,8244
4108,12273984,1693,8187,8258,8242
4109,12274144,2153.5,8189,8253,8236
4110,12274304,2521,8196,8253,8243
4111,12274464,2722,8200,8255,8250
4112,12274624,2771,8199,8258,8258
4113,12274784,2727.5,8218,8261,8267
4114,12274944,2644,8198,8247,8234
4115,12275104,2521.5,8188,8239,8220
4116,12275264,2355,8190,8238,8216
4117,12275424,2169.5,8193,8238,8220
4118,12275584,2017,8226,8272,8266
4119,12275744,1937.5,8479,8216,8344
4120,12275904,1929,8159,8140,8161
4121,12276064,1953,8186,8220,8209
4122,12276224,1963,8192,8244,8229
4123,12276384,1923,8205,8247,8243
4124,12276544,1835,8207,8246,8241
4125,12276704,1719,8213,8248,8249
4126,12276864,1601,8223,8244,8250
4127,12277024,1497,8235,8244,8256
4128,12277184,1413,8250,8241,8257
4129,12277344,1358.5,8273,8242,8265
4130,12277504,1321,8291,8240,8269
4131,12277664,1298,8303,8238,8273
4132,12277824,1285,8293,8235,8273
4133,12277984,1288.5,8255,8238,8265
4134,12278144,1302,8215,8233,8247
4135,12278304,1316.5,8194,8224,8230
4136,12278464,1322,8186,8216,8219
4137,12278624,1308.5,8185,8211,8213
4138,12278784,1278,8185,8209,8213
4139,12278944,1235,8187,8207,8209
4140,12279104,1187,8189,8202,8205
4141,12279264,1136.5,8189,8197,8198
4142,12279424,1087,8187,8196,8196
4143,12279584,1072,8188,8193,8195
4144,12279744,1150,8184,8191,8191
4145,12279904,1400,8184,8187,8187
4146,12280064,1792,8183,8186,8185
4147,12280224,2230,8186,8186,8189
4148,12280384,2588,8192,8193,8204
4149,12280544,2795,8193,8192,8206
4150,12280704,2869,8207,8192,8213
4151,12280864,2855.5,8188,8177,8177
4152,12281024,2786,8180,8168,8161
4153,12281184,2659,8181,8165,8157
4154,12281344,2492,8184,8164,8156
4155,12281504,2331.5,8197,8194,8194
4156,12281664,2226,8492,8139,8288
4157,12281824,2204.5,8154,8053,8085
4158,12281984,2235,8166,8140,8136
4159,12282144,2278.5,8175,8165,8153
4160,12282304,2305,8178,8166,8156
4161,12282464,2296.5,8182,8168,8159
4162,12282624,2254,8192,8168,8165
4163,12282784,2178.5,8199,8172,8172
4164,12282944,2090,8210,8170,8173
4165,12283104,2000.5,8224,8172,8180
4166,12283264,1919,8243,8172,8187
4167,12283424,1851.5,8265,8174,8198
4168,12283584,1797,8273,8174,8203
4169,12283744,1756,8269,8172,8204
4170,12283904,1724,8233,8171,8191
4171,12284064,1703,8196,8168,8176
4172,12284224,1687,8168,8160,8157
4173,12284384,1665.5,8160,8155,8147
4174,12284544,1631,8160,8153,8145
4175,12284704,1582,8161,8151,8142
4176,12284864,1522,8164,8152,8145
4177,12285024,1461.5,8165,8151,8144
4178,12285184,1403,8165,8149,8142
4179,12285344,1355,8164,8146,8137
4180,12285504,1341,8163,8143,8133
4181,12285664,1424.5,8162,8144,8135
4182,12285824,1670,8163,8144,8136
4183,12285984,2064,8165,8143,8136
4184,12286144,2505,8171,8147,8146
4185,12286304,2849,8173,8152,8158
4186,12286464,3042,8174,8153,8162
4187,12286624,3072.5,8191,8157,8171
4188,12286784,3017,8173,8144,8137
4189,12286944,2907.5,8163,8137,8121
4190,12287104,2759,8165,8136,8121
4191,12287264,2578,8167,8137,8122
4192,12287424,2388,8192,8177,8172
4193,12287584,2251.5,8478,8108,8258
4194,12287744,2186,8157,8013,8037
4195,12287904,2191,8162,8130,8117
4196,12288064,2219,8163,8146,8128
4197,12288224,2220.5,8169,8149,8137
4198,12288384,2178,8176,8151,8140
4199,12288544,2095.5,8182,8151,8142
4200,12288704,1990,8188,8153,8146
4201,12288864,1878,8202,8158,8158
4202,12289024,1774,8217,8163,8169
4203,12289184,1687,8235,8168,8182
4204,12289344,1618,8255,8172,8193
4205,12289504,1562,8265,8172,8200
4206,12289664,1518,8255,8174,8201
4207,12289824,1490,8218,8169,8185
4208,12289984,1481,8181,8161,8163
4209,12290144,1481.5,8160,8155,8149
4210,12290304,1479,8152,8151,8142
4211,12290464,1455.5,8154,8152,8144
4212,12290624,1410,8156,8154,8147
4213,12290784,1339,8161,8156,8151
4214,12290944,1267,8161,8158,8153
4215,12291104,1204,8161,8159,8154
4216,12291264,1157,8160,8161,8155
4217,12291424,1163,8158,8163,8156
4218,12291584,1278,8160,8166,8160
4219,12291744,1584,8161,8169,8164
4220,12291904,2023,8160,8170,8164
4221,12292064,2485,8164,8177,8177
4222,12292224,2834,8170,8188,8198
4223,12292384,3014.5,8168,8192,8201
4224,12292544,3058,8188,8200,8216
4225,12292704,3019,8168,8191,8186
4226,12292864,2948,8158,8188,8175
4227,12293024,2840,8157,8194,8180
4228,12293184,2690,8163,8200,8188
4229,12293344,2517,8178,8238,8228
4230,12293504,2374,8487,8182,8336
4231,12293664,2287.5,8162,8086,8119
4232,12293824,2259,8147,8210,8195
4233,12293984,2257,8148,8237,8213
4234,12294144,2241,8152,8246,8223
4235,12294304,2182.5,8155,8253,8232
4236,12294464,2090,8163,8261,8243
4237,12294624,1978,8171,8267,8254
4238,12294784,1861,8181,8275,8263
4239,12294944,1754.5,8192,8281,8274
4240,12295104,1656,8213,8287,8286
4241,12295264,1575,8231,8293,8298
4242,12295424,1506,8240,8299,8310
4243,12295584,1454.5,8236,8306,8320
4244,12295744,1427,8194,8308,8310
4245,12295904,1418,8154,8299,8285
4246,12296064,1424,8130,8291,8265
4247,12296224,1434,8119,8289,8260
4248,12296384,1424,8117,8291,8262
4249,12296544,1391.5,8119,8291,8262
4250,12296704,1342,8119,8290,8261
4251,12296864,1294.5,8116,8289,8258
4252,12297024,1259,8113,8287,8252
4253,12297184,1237,8110,8284,8247
4254,12297344,1255,8110,8284,8247
4255,12297504,1382.5,8105,8277,8236
4256,12297664,1683,8103,8276,8234
4257,12297824,2148,8107,8277,8238
4258,12297984,2648,8110,8278,8245
4259,12298144,3031.5,8111,8275,8246
4260,12298304,3244,8123,8276,8251
4261,12298464,3293.5,8109,8257,8213
4262,12298624,3258,8097,8247,8193
4263,12298784,3182,8094,8238,8184
4264,12298944,3063,8097,8234,8178
4265,12299104,2880,8110,8259,8206
4266,12299264,2663,8412,8206,8304
4267,12299424,2480.5,8066,8116,8097
4268,12299584,2365,8083,8189,8134
4269,12299744,2325.5,8088,8213,8145
4270,12299904,2315,8094,8213,8145
4271,12300064,2292,8100,8210,8146
4272,12300224,2227,8108,8208,8145
4273,12300384,2122,8122,8210,8153
4274,12300544,1996,8131,8207,8152
4275,12300704,1868.5,8147,8207,8158
4276,12300864,1754,8171,8204,8163
4277,12301024,1658,8197,8204,8169
4278,12301184,1574,8206,8201,8174
4279,12301344,1501.5,8199,8202,8174
4280,12301504,1438,8158,8199,8156
4281,12301664,1393,8120,8193,8136
4282,12301824,1366,8096,8185,8122
4283,12301984,1346.5,8090,8176,8111
4284,12302144,1325,8094,8173,8111
4285,12302304,1288,8099,8169,8110
4286,12302464,1232,8103,8170,8116
4287,12302624,1164,8108,8168,8117
4288,12302784,1095,8110,8163,8112
4289,12302944,1033.5,8113,8160,8111
4290,12303104,992,8113,8155,8106
4291,12303264,1030.5,8116,8152,8103
4292,12303424,1217,8115,8149,8103
4293,12303584,1589.5,8126,8153,8118
4294,12303744,2055,8131,8154,8123
4295,12303904,2480.5,8144,8153,8134
4296,12304064,2766,8149,8148,8123
4297,12304224,2893,8132,8137,8096
4298,12304384,2921,8130,8131,8087
4299,12304544,2885,8134,8128,8087
4300,12304704,2788,8140,8130,8089
4301,12304864,2617.5,8238,8178,8176
4302,12305024,2404,8314,8098,8178
4303,12305184,2214,8109,8033,8011
4304,12305344,2105,8140,8126,8085
4305,12305504,2086.5,8149,8138,8099
4306,12305664,2105,8155,8140,8107
4307,12305824,2110.5,8164,8143,8114
4308,12305984,2074,8173,8146,8121
4309,12306144,1991,8182,8147,8128
4310,12306304,1880,8194,8148,8133
4311,12306464,1762.5,8215,8150,8143
4312,12306624,1655,8237,8152,8155
4313,12306784,1568.5,8259,8153,8163
4314,12306944,1500,8265,8152,8170
4315,12307104,1449.5,8247,8153,8169
4316,12307264,1417,8207,8153,8160
4317,12307424,1402,8174,8149,8144
4318,12307584,1404,8160,8143,8135
4319,12307744,1413.5,8158,8140,8131
4320,12307904,1414,8156,8138,8129
4321,12308064,1391.5,8160,8137,8129
4322,12308224,1350,8164,8138,8133
4323,12308384,1299.5,8171,8138,8137
4324,12308544,1251,8170,8134,8134
4325,12308704,1213.5,8168,8133,8130
4326,12308864,1210,8167,8131,8128
4327,12309024,1303.5,8171,8133,8134
4328,12309184,1559,8171,8132,8133
4329,12309344,1977.5,8180,8138,8149
4330,12309504,2446,8186,8144,8161
4331,12309664,2819,8187,8144,8168
4332,12309824,3043,8200,8143,8165
4333,12309984,3116,8181,8132,8136
4334,12310144,3105,8177,8127,8126
4335,12310304,3044,8181,8126,8128
4336,12310464,2933,8181,8129,8131
4337,12310624,2757.5,8276,8176,8217
4338,12310784,2555,8376,8087,8217
4339,12310944,2392,8151,8025,8045
4340,12311104,2303,8178,8124,8124
4341,12311264,2282,8184,8135,8137
4342,12311424,2281,8188,8138,8144
4343,12311584,2256,8197,8138,8148
4344,12311744,2189,8207,8144,8159
4345,12311904,2081,8217,8144,8162
4346,12312064,1950,8228,8147,8170
4347,12312224,1817.5,8247,8152,8180
4348,12312384,1698,8272,8156,8194
4349,12312544,1594,8291,8158,8203
4350,12312704,1505,8295,8159,8205
4351,12312864,1433,8285,8162,8211
4352,12313024,1387,8245,8164,8204
4353,12313184,1366.5,8214,8159,8189
4354,12313344,1366,8198,8152,8175
4355,12313504,1366,8196,8151,8175
4356,12313664,1351,8197,8150,8174
4357,12313824,1318,8202,8153,8177
4358,12313984,1273,8206,8153,8179
4359,12314144,1223,8209,8154,8180
4360,12314304,1177,8206,8151,8175
4361,12314464,1138.5,8208,8150,8174
4362,12314624,1142,8208,8153,8175
4363,12314784,1272,8208,8152,8174
4364,12314944,1661,8210,8151,8172
4365,12315104,2337.5,8213,8147,8170
4366,12315264,2859,8216,8152,8181
4367,12315424,3103.5,8220,8158,8192
4368,12315584,3203,8225,8162,8201
4369,12315744,3195.5,8239,8163,8201
4370,12315904,3141,8215,8151,8167
4371,12316064,3023,8211,8148,8158
4372,12316224,2870,8207,8146,8153
4373,12316384,2692,8211,8150,8160
4374,12316544,2549,8282,8204,8241
4375,12316704,2466.5,8453,8095,8250
4376,12316864,2435,8190,8037,8065
4377,12317024,2401,8197,8145,8145
4378,12317184,2339,8203,8160,8162
4379,12317344,2237.5,8205,8165,8167
4380,12317504,2120,8212,8167,8173
4381,12317664,2000.5,8217,8169,8175
4382,12317824,1888,8223,8171,8183
4383,12317984,1789,8235,8174,8190
4384,12318144,1705,8249,8178,8201
4385,12318304,1639,8269,8182,8212
4386,12318464,1585,8289,8185,8223
4387,12318624,1544,8296,8189,8235
4388,12318784,1513,8284,8190,8236
4389,12318944,1493,8238,8187,8217
4390,12319104,1473,8201,8176,8191
4391,12319264,1443,8185,8171,8181
4392,12319424,1397,8179,8168,8176
4393,12319584,1335,8179,8168,8176
4394,12319744,1270,8181,8167,8175
4395,12319904,1214,8186,8166,8177
4396,12320064,1173,8186,8163,8174
4397,12320224,1157.5,8185,8163,8173
4398,12320384,1219,8186,8164,8173
4399,12320544,1435.5,8186,8164,8173
4400,12320704,1822,8184,8162,8168
4401,12320864,2291.5,8185,8165,8173
4402,12321024,2709,8187,8165,8173
4403,12321184,2963,8187,8168,8180
4404,12321344,3068,8196,8175,8195
4405,12321504,3062.5,8191,8174,8194
4406,12321664,3016,8211,8178,8202
4407,12321824,2943,8190,8166,8170
4408,12321984,2827,8179,8161,8154
4409,12322144,2660,8179,8158,8149
4410,12322304,2481,8180,8158,8149
4411,12322464,2347,8196,8192,8188
4412,12322624,2276,8499,8130,8286
4413,12322784,2250.5,8171,8030,8061
4414,12322944,2232,8164,8150,8139
4415,12323104,2188,8164,8171,8150
4416,12323264,2104,8168,8177,8158
4417,12323424,1991,8168,8177,8158
4418,12323584,1870,8173,8178,8161
4419,12323744,1760,8178,8181,8165
4420,12323904,1670,8189,8183,8168
4421,12324064,1593,8201,8184,8173
4422,12324224,1528,8226,8187,8187
4423,12324384,1468.5,8246,8193,8200
4424,12324544,1415,8260,8193,8211
4425,12324704,1375,8251,8194,8206
4426,12324864,1349,8213,8194,8197
4427,12325024,1328.5,8177,8191,8182
4428,12325184,1300,8152,8183,8164
4429,12325344,1251,8146,8178,8157
4430,12325504,1182,8144,8177,8156
4431,12325664,1109.5,8144,8176,8155
4432,12325824,1045,8150,8174,8157
4433,12325984,995,8152,8174,8157
4434,12326144,960,8155,8174,8157
4435,12326304,968.5,8154,8169,8153
4436,12326464,1086,8152,8168,8149
4437,12326624,1377.5,8151,8167,8149
4438,12326784,1799,8158,8170,8153
4439,12326944,2226,8156,8175,8158
4440,12327104,2548,8158,8175,8164
4441,12327264,2712,8161,8182,8175
4442,12327424,2760,8172,8188,8188
4443,12327584,2739,8184,8191,8201
4444,12327744,2687,8166,8182,8170
4445,12327904,2585,8161,8175,8156
4446,12328064,2421,8161,8175,8154
4447,12328224,2224,8167,8177,8160
4448,12328384,2058,8178,8206,8194
4449,12328544,1968,8476,8157,8293
4450,12328704,1936,8137,8080,8100
4451,12328864,1924,8149,8156,8141
4452,12329024,1890,8160,8177,8155
4453,12329184,1815.5,8166,8179,8161
4454,12329344,1707,8175,8185,8169
4455,12329504,1585.5,8183,8190,8179
4456,12329664,1468,8191,8191,8184
4457,12329824,1367.5,8202,8193,8189
4458,12329984,1283,8216,8196,8197
4459,12330144,1212.5,8239,8198,8208
4460,12330304,1156,8258,8197,8214
4461,12330464,1112.5,8274,8200,8224
4462,12330624,1086,8270,8202,8229
4463,12330784,1073.5,8235,8206,8224
4464,12330944,1069,8194,8206,8210
4465,12331104,1065.5,8167,8199,8192
4466,12331264,1053,8160,8196,8188
4467,12331424,1028,8159,8195,8188
4468,12331584,992,8165,8196,8191
4469,12331744,950.5,8170,8196,8191
4470,12331904,909,8172,8194,8190
4471,12332064,874.5,8173,8193,8188
4472,12332224,862,8174,8192,8189
4473,12332384,946,8174,8191,8188
4474,12332544,1173,8173,8191,8186
4475,12332704,1563.5,8171,8192,8187
4476,12332864,1998,8174,8190,8187
4477,12333024,2354,8181,8200,8208
4478,12333184,2569,8185,8202,8212
4479,12333344,2661,8203,8206,8230
4480,12333504,2682,8190,8195,8197
4481,12333664,2656.5,8177,8182,8173
4482,12333824,2588,8174,8180,8169
4483,12333984,2449,8175,8182,8170
4484,12334144,2282,8166,8196,8176
4485,12334304,2142.5,8454,8209,8329
4486,12334464,2078,8195,8086,8143
4487,12334624,2079,8155,8130,8130
4488,12334784,2101,8171,8185,8168
4489,12334944,2092,8177,8194,8181
4490,12335104,2042,8184,8197,8187
4491,12335264,1952,8192,8199,8194
4492,12335424,1846,8200,8202,8199
4493,12335584,1740.5,8208,8204,8204
4494,12335744,1652,8225,8208,8215
4495,12335904,1580,8243,8211,8224
4496,12336064,1521,8266,8214,8236
4497,12336224,1470,8281,8213,8243
4498,12336384,1431,8281,8215,8247
4499,12336544,1406.5,8254,8215,8241
4500,12336704,1398,8211,8209,8219
4501,12336864,1399.5,8183,8202,8201
4502,12337024,1392,8172,8197,8193
4503,12337184,1368,8169,8198,8192
4504,12337344,1323,8174,8198,8195
4505,12337504,1264,8176,8196,8193
4506,12337664,1208,8177,8195,8192
4507,12337824,1161.5,8180,8194,8193
4508,12337984,1138,8178,8193,8191
4509,12338144,1175.5,8177,8195,8192
4510,12338304,1343,8178,8193,8189
4511,12338464,1660,8178,8191,8187
4512,12338624,2065,8177,8191,8186
4513,12338784,2427.5,8180,8193,8190
4514,12338944,2675,8185,8200,8202
4515,12339104,2774.5,8189,8202,8211
4516,12339264,2788,8191,8202,8214
4517,12339424,2754.5,8206,8204,8218
4518,12339584,2687,8185,8191,8184
4519,12339744,2573.5,8179,8184,8171
4520,12339904,2419,8179,8182,8169
4521,12340064,2269,8182,8183,8170
4522,12340224,2162,8220,8228,8228
4523,12340384,2123.5,8470,8140,8288
4524,12340544,2117,8166,8055,8071
4525,12340704,2109.5,8170,8176,8161
4526,12340864,2068,8173,8195,8176
4527,12341024,1988.5,8175,8199,8183
4528,12341184,1887,8183,8201,8188
4529,12341344,1774,8192,8203,8196
4530,12341504,1669,8200,8204,8199
4531,12341664,1579.5,8208,8207,8205
4532,12341824,1504,8225,8210,8215
4533,12341984,1443,8245,8217,8229
4534,12342144,1393,8266,8220,8242
4535,12342304,1357.5,8274,8219,8245
4536,12342464,1330,8265,8219,8245
4537,12342624,1314,8230,8216,8232
4538,12342784,1308,8195,8207,8210
4539,12342944,1301.5,8174,8199,8192
4540,12343104,1286,8167,8191,8180
4541,12343264,1258.5,8166,8189,8177
4542,12343424,1220,8168,8192,8183
4543,12343584,1182.5,8171,8192,8185
4544,12343744,1151,8173,8189,8180
4545,12343904,1123.5,8170,8187,8176
4546,12344064,1127,8169,8184,8172
4547,12344224,1246,8171,8185,8176
4548,12344384,1521,8172,8184,8174
4549,12344544,1934,8173,8185,8176
4550,12344704,2360,8172,8184,8174
4551,12344864,2685.5,8172,8184,8174
4552,12345024,2867,8180,8196,8199
4553,12345184,2916.5,8182,8197,8203
4554,12345344,2895,8199,8204,8222
4555,12345504,2837,8194,8194,8196
4556,12345664,2747,8172,8183,8167
4557,12345824,2616,8172,8181,8165
4558,12345984,2461,8172,8185,8169
4559,12346144,2323,8162,8194,8171
4560,12346304,2237,8393,8232,8319
4561,12346464,2205,8269,8079,8169
4562,12346624,2196,8159,8127,8132
4563,12346784,2170,8167,8191,8172
4564,12346944,2111,8169,8197,8179
4565,12347104,2016,8173,8200,8183
4566,12347264,1902,8184,8204,8194
4567,12347424,1791,8189,8205,8198
4568,12347584,1692,8199,8207,8203
4569,12347744,1610,8209,8209,8209
4570,12347904,1546,8227,8211,8217
4571,12348064,1490.5,8247,8214,8228
4572,12348224,1440,8264,8218,8239
4573,12348384,1397.5,8266,8217,8243
4574,12348544,1364,8247,8218,8240
4575,12348704,1341,8208,8211,8219
4576,12348864,1323,8177,8201,8198
4577,12349024,1302,8161,8196,8185
4578,12349184,1267,8159,8195,8184
4579,12349344,1214.5,8163,8196,8186
4580,12349504,1159,8166,8194,8186
4581,12349664,1108,8167,8191,8182
4582,12349824,1065,8165,8191,8182
4583,12349984,1034.5,8164,8189,8178
4584,12350144,1047,8163,8189,8177
4585,12350304,1182.5,8163,8186,8174
4586,12350464,1464,8160,8185,8171
4587,12350624,1865,8160,8187,8173
4588,12350784,2257,8162,8188,8175
4589,12350944,2543,8162,8188,8173
4590,12351104,2683,8169,8196,8190
4591,12351264,2707.5,8169,8199,8197
4592,12351424,2670,8179,8201,8207
4593,12351584,2595.5,8183,8197,8194
4594,12351744,2487,8164,8184,8163
4595,12351904,2339.5,8157,8181,8155
4596,12352064,2188,8158,8180,8153
4597,12352224,2067,8154,8185,8157
4598,12352384,2002,8304,8233,8271
4599,12352544,1979.5,8306,8118,8219
4600,12352704,1974,8136,8094,8086
4601,12352864,1947,8150,8183,8152
4602,12353024,1887,8151,8194,8164
4603,12353184,1792.5,8156,8199,8172
4604,12353344,1682,8162,8200,8177
4605,12353504,1571.5,8175,8202,8184
4606,12353664,1479,8180,8204,8189
4607,12353824,1404,8191,8205,8194
4608,12353984,1339,8208,8209,8205
4609,12354144,1285.5,8230,8215,8219
4610,12354304,1239,8242,8215,8223
4611,12354464,1204.5,8248,8214,8228
4612,12354624,1175,8234,8216,8229
4613,12354784,1153.5,8199,8214,8216
4614,12354944,1137,8166,8207,8197
4615,12355104,1118.5,8149,8200,8183
4616,12355264,1089,8143,8199,8178
4617,12355424,1041.5,8150,8200,8185
4618,12355584,990,8150,8199,8184
4619,12355744,938,8149,8198,8181
4620,12355904,897,8153,8197,8182
4621,12356064,862,8151,8194,8178
4622,12356224,855,8150,8191,8174
4623,12356384,941,8150,8194,8177
4624,12356544,1181,8149,8196,8177
4625,12356704,1569,8151,8191,8175
4626,12356864,1989,8153,8191,8174
4627,12357024,2309,8160,8198,8190
4628,12357184,2487,8161,8201,8196
4629,12357344,2526.5,8171,8200,8207
4630,12357504,2494,8179,8196,8198
4631,12357664,2421,8159,8179,8162
4632,12357824,2307,8157,8174,8152
4633,12357984,2154,8156,8177,8156
4634,12358144,1990,8163,8176,8158
4635,12358304,1873,8248,8221,8237
4636,12358464,1815,8339,8149,8250
4637,12358624,1814.5,8119,8073,8070
4638,12358784,1829,8156,8170,8149
4639,12358944,1824,8159,8183,8160
4640,12359104,1779,8166,8188,8168
4641,12359264,1694,8172,8189,8173
4642,12359424,1586,8179,8191,8178
4643,12359584,1473,8192,8195,8188
4644,12359744,1364,8203,8200,8195
4645,12359904,1267.5,8219,8198,8199
4646,12360064,1188,8237,8198,8205
4647,12360224,1122.5,8258,8198,8215
4648,12360384,1073,8260,8199,8217
4649,12360544,1037,8254,8203,8223
4650,12360704,1014,8214,8205,8213
4651,12360864,1004.5,8178,8203,8201
4652,12361024,998,8158,8196,8185
4653,12361184,988.5,8157,8194,8182
4654,12361344,965,8160,8193,8181
4655,12361504,931.5,8163,8191,8181
4656,12361664,892,8165,8191,8182
4657,12361824,852,8165,8188,8179
4658,12361984,813,8165,8188,8179
4659,12362144,791,8166,8187,8177
4660,12362304,820,8163,8184,8172
4661,12362464,974,8166,8185,8175
4662,12362624,1289,8164,8184,8173
4663,12362784,1702.5,8165,8185,8174
4664,12362944,2093,8175,8193,8193
4665,12363104,2347.5,8178,8197,8201
4666,12363264,2465,8190,8200,8216
4667,12363424,2470.5,8188,8193,8195
4668,12363584,2416,8171,8179,8166
4669,12363744,2312,8169,8179,8163
4670,12363904,2164,8170,8180,8165
4671,12364064,2006,8158,8184,8159
4672,12364224,1882,8371,8226,8302
4673,12364384,1833,8237,8117,8194
4674,12364544,1848,8141,8104,8101
4675,12364704,1893,8168,8180,8161
4676,12364864,1928,8168,8186,8167
4677,12365024,1922.5,8176,8192,8177
4678,12365184,1877,8181,8194,8180
4679,12365344,1804.5,8191,8198,8189
4680,12365504,1719,8198,8197,8190
4681,12365664,1635.5,8212,8202,8202
4682,12365824,1560,8228,8203,8208
4683,12365984,1491,8250,8207,8221
4684,12366144,1432,8262,8208,8226
4685,12366304,1385.5,8264,8206,8227
4686,12366464,1359,8247,8208,8226
4687,12366624,1357,8210,8205,8212
4688,12366784,1373,8183,8199,8198
4689,12366944,1395,8167,8195,8186
4690,12367104,1409,8165,8194,8183
4691,12367264,1403.5,8166,8193,8183
4692,12367424,1386,8168,8192,8183
4693,12367584,1359.5,8170,8192,8183
4694,12367744,1331,8171,8194,8185
4695,12367904,1302,8169,8190,8180
4696,12368064,1287,8169,8192,8182
4697,12368224,1351,8163,8188,8174
4698,12368384,1548,8167,8187,8174
4699,12368544,1915.5,8167,8187,8174
4700,12368704,2336,8167,8187,8174
4701,12368864,2686.5,8170,8189,8180
4702,12369024,2886,8178,8196,8198
4703,12369184,2936,8180,8196,8201
4704,12369344,2893,8197,8200,8210
4705,12369504,2801.5,8177,8185,8174
4706,12369664,2681,8168,8177,8158
4707,12369824,2524,8168,8176,8157
4708,12369984,2358,8171,8178,8161
4709,12370144,2224,8187,8214,8200
4710,12370304,2154,8495,8150,8301
4711,12370464,2143,8169,8045,8073
4712,12370624,2158,8159,8165,8148
4713,12370784,2157,8163,8188,8164
4714,12370944,2128,8169,8192,8172
4715,12371104,2065.5,8174,8197,8180
4716,12371264,1982,8181,8197,8183
4717,12371424,1889.5,8190,8202,8192
4718,12371584,1800,8201,8208,8203
4719,12371744,1724,8214,8210,8208
4720,12371904,1660,8233,8215,8221
4721,12372064,1606,8252,8219,8232
4722,12372224,1561,8260,8222,8242
4723,12372384,1526,8254,8223,8243
4724,12372544,1501,8227,8223,8237
4725,12372704,1485,8190,8213,8211
4726,12372864,1468,8167,8205,8194
4727,12373024,1442.5,8161,8205,8192
4728,12373184,1404,8163,8203,8193
4729,12373344,1362.5,8166,8204,8194
4730,12373504,1319,8165,8202,8191
4731,12373664,1283,8168,8199,8190
4732,12373824,1256,8167,8198,8187
4733,12373984,1242,8165,8196,8185
4734,12374144,1278,8164,8196,8183
4735,12374304,1432.5,8163,8194,8180
4736,12374464,1747,8164,8192,8179
4737,12374624,2173,8164,8193,8180
4738,12374784,2588,8164,8193,8180
4739,12374944,2879,8173,8202,8202
4740,12375104,3039,8178,8202,8204
4741,12375264,3088,8189,8205,8216
4742,12375424,3079,8190,8200,8200
4743,12375584,3040.5,8171,8186,8171
4744,12375744,2970,8166,8183,8165
4745,12375904,2865.5,8170,8184,8167
4746,12376064,2762,8158,8188,8163
4747,12376224,2691.5,8349,8237,8301
4748,12376384,2667,8295,8098,8202
4749,12376544,2680,8154,8114,8118
4750,12376704,2699,8160,8188,8164
4751,12376864,2696,8162,8195,8172
4752,12377024,2655,8165,8200,8179
4753,12377184,2580,8174,8204,8189
4754,12377344,2483,8183,8208,8197
4755,12377504,2377.5,8190,8211,8203
4756,12377664,2269,8202,8214,8210
4757,12377824,2170,8216,8219,8220
4758,12377984,2079,8235,8228,8238
4759,12378144,1997,8251,8230,8246
4760,12378304,1921,8250,8234,8252
4761,12378464,1852.5,8234,8236,8251
4762,12378624,1790,8196,8234,8240
4763,12378784,1743,8164,8230,8221
4764,12378944,1708,8147,8228,8213
4765,12379104,1679,8143,8231,8212
4766,12379264,1641,8148,8234,8218
4767,12379424,1597,8143,8237,8220
4768,12379584,1548,8146,8241,8224
4769,12379744,1507,8144,8242,8223
4770,12379904,1479,8140,8245,8222
4771,12380064,1480,8139,8248,8226
4772,12380224,1549,8138,8249,8226
4773,12380384,1757,8137,8253,8228
4774,12380544,2115,8135,8257,8230
4775,12380704,2541.5,8137,8259,8228
4776,12380864,2918,8134,8264,8235
4777,12381024,3145,8140,8276,8257
4778,12381184,3232,8143,8282,8259
4779,12381344,3204,8160,8291,8279
4780,12381504,3126,8142,8282,8248
4781,12381664,3007.5,8129,8275,8232
4782,12381824,2845,8128,8275,8226
4783,12381984,2655,8131,8282,8235
4784,12382144,2474,8137,8308,8261
4785,12382304,2348,8447,8273,8380
4786,12382464,2280,8105,8190,8185
4787,12382624,2254,8108,8258,8213
4788,12382784,2232,8110,8291,8228
4789,12382944,2188,8120,8298,8241
4790,12383104,2115,8121,8299,8241
4791,12383264,2016,8128,8302,8245
4792,12383424,1905,8129,8303,8250
4793,12383584,1796.5,8141,8305,8258
4794,12383744,1699,8155,8306,8261
4795,12383904,1621.5,8168,8305,8266
4796,12384064,1558,8190,8303,8269
4797,12384224,1510.5,8194,8300,8267
4798,12384384,1473,8189,8295,8266
4799,12384544,1452,8158,8299,8260
4800,12384704,1440,8125,8293,8244
4801,12384864,1438.5,8097,8285,8223
4802,12385024,1433,8088,8277,8215
4803,12385184,1417,8093,8272,8209
4804,12385344,1389,8094,8266,8204
4805,12385504,1350,8104,8260,8199
4806,12385664,1305,8105,8255,8196
4807,12385824,1256,8107,8252,8191
4808,12385984,1207,8106,8251,8189
4809,12386144,1179.5,8111,8243,8184
4810,12386304,1221,8114,8241,8180
4811,12386464,1422,8117,8235,8174
4812,12386624,1771,8118,8236,8176
4813,12386784,2192,8131,8238,8185
4814,12386944,2546,8132,8241,8196
4815,12387104,2755.5,8147,8243,8210
4816,12387264,2822,8147,8234,8189
4817,12387424,2792.5,8130,8220,8160
4818,12387584,2720,8127,8216,8156
4819,12387744,2605,8129,8213,8154
4820,12387904,2451,8125,8218,8155
4821,12388064,2282.5,8297,8258,8273
4822,12388224,2152,8202,8179,8211
4823,12388384,2099,8099,8121,8076
4824,12388544,2111,8137,8196,8141
4825,12388704,2143.5,8143,8201,8148
4826,12388864,2158,8148,8201,8149
4827,12389024,2126,8158,8197,8152
4828,12389184,2059,8168,8197,8158
4829,12389344,1971,8180,8194,8159
4830,12389504,1876,8192,8193,8160
4831,12389664,1788,8214,8192,8166
4832,12389824,1706,8234,8188,8171
4833,12389984,1635,8252,8188,8179
4834,12390144,1575,8256,8183,8177
4835,12390304,1527.5,8238,8184,8176
4836,12390464,1495,8200,8184,8165
4837,12390624,1481.5,8168,8177,8150
4838,12390784,1471,8154,8171,8137
4839,12390944,1460,8154,8166,8134
4840,12391104,1438,8158,8164,8133
4841,12391264,1398,8162,8162,8133
4842,12391424,1350,8164,8160,8131
4843,12391584,1296.5,8163,8159,8133
4844,12391744,1247,8164,8156,8131
4845,12391904,1207.5,8162,8154,8129
4846,12392064,1203,8162,8151,8124
4847,12392224,1294,8161,8153,8130
4848,12392384,1536,8169,8157,8137
4849,12392544,1914.5,8164,8154,8133
4850,12392704,2317,8172,8159,8149
4851,12392864,2621,8180,8163,8162
4852,12393024,2789,8194,8169,8179
4853,12393184,2829.5,8196,8161,8161
4854,12393344,2799,8177,8149,8134
4855,12393504,2722.5,8175,8144,8128
4856,12393664,2598,8175,8142,8126
4857,12393824,2433.5,8170,8147,8128
4858,12393984,2272,8354,8187,8250
4859,12394144,2166,8262,8091,8175
4860,12394304,2128,8151,8061,8063
4861,12394464,2145.5,8175,8137,8123
4862,12394624,2166,8179,8144,8131
4863,12394784,2158.5,8191,8147,8142
4864,12394944,2107,8195,8149,8146
4865,12395104,2025,8203,8148,8148
4866,12395264,1931,8217,8148,8154
4867,12395424,1837.5,8227,8149,8161
4868,12395584,1751,8243,8154,8171
4869,12395744,1678,8266,8158,8186
4870,12395904,1614,8283,8158,8190
4871,12396064,1563,8288,8157,8196
4872,12396224,1525,8268,8158,8194
4873,12396384,1503,8230,8158,8184
4874,12396544,1498,8199,8153,8167
4875,12396704,1497.5,8185,8147,8157
4876,12396864,1484,8182,8145,8155
4877,12397024,1436.5,8188,8146,8158
4878,12397184,1371,8190,8146,8158
4879,12397344,1304.5,8195,8148,8163
4880,12397504,1242,8195,8146,8161
4881,12397664,1205,8195,8145,8160
4882,12397824,1289,8196,8144,8160
4883,12397984,1559.5,8195,8145,8160
4884,12398144,1980,8197,8144,8162
4885,12398304,2452.5,8200,8145,8163
4886,12398464,2830,8201,8144,8163
4887,12398624,3044.5,8202,8144,8166
4888,12398784,3113,8210,8151,8184
4889,12398944,3091,8213,8152,8187
4890,12399104,3033,8227,8152,8190
4891,12399264,2939.5,8210,8140,8159
4892,12399424,2813,8203,8135,8149
4893,12399584,2671,8205,8138,8152
4894,12399744,2564,8209,8142,8158
4895,12399904,2520.5,8237,8181,8204
4896,12400064,2538,8504,8108,8275
4897,12400224,2582,8196,8022,8074
4898,12400384,2611,8199,8136,8152
4899,12400544,2593.5,8204,8159,8170
4900,12400704,2534,8209,8163,8177
4901,12400864,2444.5,8216,8167,8184
4902,12401024,2341,8222,8170,8191
4903,12401184,2235.5,8232,8174,8198
4904,12401344,2130,8241,8178,8204
4905,12401504,2027.5,8257,8182,8214
4906,12401664,1933,8279,8188,8229
4907,12401824,1850,8295,8189,8235
4908,12401984,1775,8307,8192,8246
4909,12402144,1707.5,8301,8192,8246
4910,12402304,1649,8263,8191,8235
4911,12402464,1595,8226,8182,8212
4912,12402624,1542,8204,8176,8197
4913,12402784,1479.5,8196,8171,8189
4914,12402944,1404,8199,8171,8191
4915,12403104,1321.5,8200,8172,8190
4916,12403264,1244,8203,8171,8191
4917,12403424,1180,8207,8168,8189
4918,12403584,1142,8205,8168,8188
4919,12403744,1179,8203,8168,8188
4920,12403904,1356,8203,8166,8184
4921,12404064,1720,8202,8164,8180
4922,12404224,2181,8203,8166,8184
4923,12404384,2605.5,8202,8164,8180
4924,12404544,2900,8203,8164,8180
4925,12404704,3032.5,8207,8172,8197
4926,12404864,3049,8209,8177,8205
4927,12405024,3005,8211,8176,8206
4928,12405184,2926,8224,8178,8208
4929,12405344,2799,8202,8166,8176
4930,12405504,2625,8196,8161,8167
4931,12405664,2433,8195,8160,8165
4932,12405824,2275,8197,8163,8169
4933,12405984,2186,8271,8216,8250
4934,12406144,2149,8432,8111,8262
4935,12406304,2133.5,8174,8056,8081
4936,12406464,2101,8180,8166,8165
4937,12406624,2031.5,8181,8177,8173
4938,12406784,1932,8185,8183,8185
4939,12406944,1816,8190,8188,8190
4940,12407104,1708,8194,8191,8197
4941,12407264,1616.5,8201,8192,8199
4942,12407424,1541,8209,8196,8206
4943,12407584,1476,8222,8199,8214
4944,12407744,1417,8245,8207,8231
4945,12407904,1370.5,8259,8208,8238
4946,12408064,1333,8265,8209,8243
4947,12408224,1312,8250,8210,8242
4948,12408384,1302,8210,8209,8230
4949,12408544,1295.5,8169,8200,8206
4950,12408704,1279,8154,8193,8193
4951,12408864,1243,8145,8192,8188
4952,12409024,1191,8144,8189,8186
4953,12409184,1138,8141,8192,8187
4954,12409344,1092,8140,8190,8183
4955,12409504,1058.5,8141,8190,8183
4956,12409664,1048,8138,8185,8176
4957,12409824,1101,8135,8187,8174
4958,12409984,1306,8133,8186,8174
4959,12410144,1692.5,8128,8183,8168
4960,12410304,2181,8130,8184,8168
4961,12410464,2624,8128,8182,8167
4962,12410624,2935,8126,8181,8164
4963,12410784,3071,8129,8183,8170
4964,12410944,3100,8136,8192,8188
4965,12411104,3068.5,8135,8192,8187
4966,12411264,3009,8155,8196,8200
4967,12411424,2912,8132,8186,8169
4968,12411584,2771,8128,8176,8153
4969,12411744,2620.5,8121,8177,8151
4970,12411904,2501,8124,8176,8150
4971,12412064,2448,8131,8200,8175
4972,12412224,2439,8438,8163,8288
4973,12412384,2444.5,8109,8079,8103
4974,12412544,2431,8110,8154,8135
4975,12412704,2382,8119,8184,8151
4976,12412864,2306,8124,8185,8155
4977,12413024,2207.5,8129,8189,8162
4978,12413184,2098,8139,8190,8168
4979,12413344,1991,8154,8193,8177
4980,12413504,1898,8164,8192,8177
4981,12413664,1829.5,8178,8192,8184
4982,12413824,1775,8195,8190,8189
4983,12413984,1727.5,8224,8192,8200
4984,12414144,1682,8236,8191,8205
4985,12414304,1643,8232,8193,8209
4986,12414464,1612,8201,8195,8204
4987,12414624,1586,8164,8194,8191
4988,12414784,1557,8132,8189,8174
4989,12414944,1519,8127,8179,8161
4990,12415104,1464,8124,8178,8158
4991,12415264,1399,8131,8174,8155
4992,12415424,1325,8134,8174,8159
4993,12415584,1253.5,8136,8174,8158
4994,12415744,1187,8139,8173,8159
4995,12415904,1156,8137,8176,8161
4996,12416064,1224,8140,8177,8162
4997,12416224,1467.5,8138,8173,8158
4998,12416384,1868,8142,8175,8161
4999,12416544,2306.5,8143,8176,8163
5000,12416704,2657,8147,8174,8163
5001,12416864,2833.5,8154,8181,8173
5002,12417024,2878,8155,8185,8185
5003,12417184,2833,8162,8185,8192
5004,12417344,2752,8176,8188,8194
5005,12417504,2629.5,8161,8176,8163
5006,12417664,2453,8154,8169,8153
5007,12417824,2250,8155,8169,8154
5008,12417984,2073,8158,8171,8156
5009,12418144,1977.5,8215,8212,8220
5010,12418304,1945,8383,8141,8255
5011,12418464,1940.5,8125,8065,8075
5012,12418624,1915,8152,8160,8145
5013,12418784,1849.5,8161,8176,8159
5014,12418944,1750,8166,8180,8166
5015,12419104,1640,8174,8183,8172
5016,12419264,1535,8184,8187,8181
5017,12419424,1440.5,8191,8185,8180
5018,12419584,1359,8206,8186,8188
5019,12419744,1293.5,8223,8189,8195
5020,12419904,1241,8248,8190,8206
5021,12420064,1205.5,8262,8190,8210
5022,12420224,1184,8277,8190,8218
5023,12420384,1176.5,8264,8189,8214
5024,12420544,1184,8227,8195,8211
5025,12420704,1196.5,8191,8191,8197
5026,12420864,1209,8167,8182,8177
5027,12421024,1203.5,8159,8181,8172
5028,12421184,1183,8162,8177,8168
5029,12421344,1153.5,8166,8179,8173
5030,12421504,1126,8169,8180,8174
5031,12421664,1103.5,8170,8176,8169
5032,12421824,1089,8171,8178,8173
5033,12421984,1106,8172,8176,8170
5034,12422144,1214,8173,8176,8169
5035,12422304,1504,8173,8178,8171
5036,12422464,1928,8174,8176,8171
5037,12422624,2393,8173,8176,8169
5038,12422784,2749,8177,8177,8172
5039,12422944,2943.5,8184,8186,8190
5040,12423104,3001,8187,8189,8197
5041,12423264,2979,8205,8193,8215
5042,12423424,2919,8197,8186,8188
5043,12423584,2808.5,8181,8173,8163
5044,12423744,2638,8181,8173,8163
5045,12423904,2421.5,8183,8173,8164
5046,12424064,2239,8173,8184,8167
5047,12424224,2138.5,8442,8203,8311
5048,12424384,2110,8212,8093,8157
5049,12424544,2106,8164,8117,8123
5050,12424704,2086,8181,8177,8163
5051,12424864,2024.5,8186,8182,8171
5052,12425024,1930,8193,8186,8178
5053,12425184,1818,8199,8191,8187
5054,12425344,1705,8208,8194,8194
5055,12425504,1604,8222,8194,8199
5056,12425664,1515,8232,8194,8202
5057,12425824,1434.5,8251,8197,8213
5058,12425984,1363,8276,8200,8225
5059,12426144,1301.5,8294,8202,8235
5060,12426304,1249,8294,8202,8237
5061,12426464,1216.5,8269,8204,8232
5062,12426624,1201,8229,8201,8217
5063,12426784,1194.5,8196,8195,8199
5064,12426944,1175,8182,8190,8190
5065,12427104,1133,8181,8190,8188
5066,12427264,1076,8183,8191,8190
5067,12427424,1010,8185,8189,8189
5068,12427584,948,8189,8189,8190
5069,12427744,894,8189,8187,8188
5070,12427904,855,8191,8190,8192
5071,12428064,878,8189,8185,8186
5072,12428224,1035,8187,8185,8183
5073,12428384,1375,8190,8187,8187
5074,12428544,1820,8189,8186,8187
5075,12428704,2238,8191,8184,8184
5076,12428864,2536,8191,8184,8186
5077,12429024,2675.5,8196,8190,8198
5078,12429184,2712,8200,8195,8209
5079,12429344,2697,8202,8195,8211
5080,12429504,2655,8217,8195,8211
5081,12429664,2564,8198,8185,8184
5082,12429824,2425,8191,8179,8174
5083,12429984,2270.5,8189,8178,8173
5084,12430144,2155,8194,8181,8178
5085,12430304,2115.5,8245,8224,8238
5086,12430464,2123,8436,8140,8274
5087,12430624,2135.5,8167,8065,8085
5088,12430784,2116,8180,8175,8168
5089,12430944,2048,8186,8190,8181
5090,12431104,1950,8192,8194,8189
5091,12431264,1844.5,8199,8196,8192
5092,12431424,1749,8206,8197,8197
5093,12431584,1670.5,8214,8200,8202
5094,12431744,1601,8225,8203,8210
5095,12431904,1542.5,8241,8205,8217
5096,12432064,1489,8258,8206,8223
5097,12432224,1447.5,8283,8209,8237
5098,12432384,1415,8290,8210,8242
5099,12432544,1399,8282,8212,8245
5100,12432704,1389,8243,8210,8229
5101,12432864,1386,8205,8201,8207
5102,12433024,1378,8185,8196,8196
5103,12433184,1362,8179,8194,8191
5104,12433344,1332,8178,8196,8192
5105,12433504,1292.5,8178,8199,8195
5106,12433664,1258,8180,8195,8190
5107,12433824,1225.5,8182,8194,8191
5108,12433984,1200,8183,8194,8191
5109,12434144,1209.5,8182,8195,8190
5110,12434304,1324,8183,8195,8190
5111,12434464,1606,8182,8195,8190
5112,12434624,2033,8180,8195,8190
5113,12434784,2481,8182,8194,8189
5114,12434944,2836,8182,8194,8189
5115,12435104,3020.5,8185,8195,8192
5116,12435264,3079,8190,8200,8202
5117,12435424,3062.5,8192,8202,8209
5118,12435584,3014,8207,8206,8225
5119,12435744,2935,8206,8201,8209
5120,12435904,2799,8188,8188,8179
5121,12436064,2620,8185,8183,8172
5122,12436224,2447,8185,8183,8172
5123,12436384,2338.5,8176,8191,8172
5124,12436544,2294,8365,8233,8303
5125,12436704,2282,8294,8108,8205
5126,12436864,2257,8164,8111,8117
5127,12437024,2195.5,8179,8187,8172
5128,12437184,2102,8178,8196,8182
5129,12437344,1991,8188,8201,8190
5130,12437504,1882,8192,8204,8197
5131,12437664,1788,8199,8206,8200
5132,12437824,1711,8204,8205,8204
5133,12437984,1643,8216,8210,8213
5134,12438144,1584,8234,8213,8222
5135,12438304,1535.5,8257,8216,8232
5136,12438464,1498,8274,8217,8241
5137,12438624,1474,8277,8219,8247
5138,12438784,1460,8257,8219,8245
5139,12438944,1447,8215,8219,8229
5140,12439104,1430,8183,8210,8209
5141,12439264,1406,8167,8202,8193
5142,12439424,1369,8161,8201,8192
5143,12439584,1323.5,8159,8199,8188
5144,12439744,1275,8162,8201,8194
5145,12439904,1232,8166,8201,8195
5146,12440064,1192,8167,8199,8192
5147,12440224,1158.5,8167,8198,8189
5148,12440384,1160,8166,8195,8187
5149,12440544,1272.5,8166,8198,8190
5150,12440704,1551,8168,8196,8187
5151,12440864,1958.5,8166,8196,8186
5152,12441024,2376,8165,8193,8184
5153,12441184,2680,8171,8195,8186
5154,12441344,2844,8173,8199,8196
5155,12441504,2878.5,8176,8206,8210
5156,12441664,2858,8178,8205,8215
5157,12441824,2806,8197,8206,8218
5158,12441984,2714,8177,8193,8186
5159,12442144,2566.5,8169,8188,8176
5160,12442304,2385,8170,8189,8178
5161,12442464,2229.5,8174,8188,8177
5162,12442624,2133,8210,8227,8230
5163,12442784,2109,8423,8155,8278
5164,12442944,2111,8140,8080,8098
5165,12443104,2102,8162,8176,8165
5166,12443264,2055,8168,8195,8180
5167,12443424,1972,8171,8200,8185
5168,12443584,1872,8180,8202,8191
5169,12443744,1767,8185,8208,8199
5170,12443904,1671,8194,8207,8202
5171,12444064,1586,8203,8210,8205
5172,12444224,1516,8217,8211,8215
5173,12444384,1462,8237,8214,8223
5174,12444544,1417,8260,8216,8234
5175,12444704,1382,8270,8216,8239
5176,12444864,1360,8260,8218,8240
5177,12445024,1346.5,8222,8221,8232
5178,12445184,1342,8180,8217,8214
5179,12445344,1333.5,8158,8214,8201
5180,12445504,1317,8150,8208,8191
5181,12445664,1286,8145,8206,8186
5182,12445824,1246,8147,8207,8188
5183,12445984,1201.5,8148,8207,8189
5184,12446144,1161,8156,8206,8191
5185,12446304,1126,8152,8206,8187
5186,12446464,1106,8151,8203,8181
5187,12446624,1156,8148,8202,8182
5188,12446784,1333,8145,8203,8179
5189,12446944,1679,8148,8205,8181
5190,12447104,2109,8146,8204,8181
5191,12447264,2498,8146,8203,8178
