1210, 5454112.000000, 817.000000, 8222.000000, 8215.000000, 8232.000000
1211, 5454272.000000, 777.000000, 8180.000000, 8213.000000, 8212.000000
1212, 5454432.000000, 703.500000, 8153.000000, 8204.000000, 8191.000000
1213, 5454592.000000, 611.000000, 8143.000000, 8200.000000, 8183.000000
1214, 5454752.000000, 537.000000, 8141.000000, 8199.000000, 8184.000000
1215, 5454912.000000, 496.000000, 8146.000000, 8203.000000, 8190.000000
1216, 5455072.000000, 489.500000, 8148.000000, 8205.000000, 8193.000000
1217, 5455232.000000, 520.000000, 8150.000000, 8203.000000, 8194.000000
1218, 5455392.000000, 609.000000, 8151.000000, 8206.000000, 8194.000000
1219, 5455552.000000, 750.000000, 8151.000000, 8205.000000, 8193.000000
1220, 5455712.000000, 917.500000, 8151.000000, 8207.000000, 8195.000000
1221, 5455872.000000, 1118.000000, 8152.000000, 8210.000000, 8199.000000
1222, 5456032.000000, 1421.500000, 8157.000000, 8212.000000, 8204.000000
1223, 5456192.000000, 1822.000000, 8156.000000, 8212.000000, 8207.000000
1224, 5456352.000000, 2263.500000, 8164.000000, 8223.000000, 8229.000000
1225, 5456512.000000, 2628.000000, 8167.000000, 8230.000000, 8242.000000
1226, 5456672.000000, 2845.000000, 8189.000000, 8240.000000, 8267.000000
1227, 5456832.000000, 2907.000000, 8179.000000, 8232.000000, 8238.000000
1228, 5456992.000000, 2840.000000, 8166.000000, 8223.000000, 8219.000000
1229, 5457152.000000, 2705.000000, 8170.000000, 8224.000000, 8219.000000
1230, 5457312.000000, 2523.000000, 8174.000000, 8229.000000, 8228.000000
1231, 5457472.000000, 2284.000000, 8172.000000, 8245.000000, 8239.000000
1232, 5457632.000000, 1941.500000, 8466.000000, 8259.000000, 8395.000000
1233, 5457792.000000, 1560.000000, 8187.000000, 8153.000000, 8215.000000
1234, 5457952.000000, 1277.000000, 8167.000000, 8198.000000, 8214.000000
1235, 5458112.000000, 1141.000000, 8190.000000, 8252.000000, 8254.000000
1236, 5458272.000000, 1077.500000, 8199.000000, 8262.000000, 8272.000000
1237, 5458432.000000, 1027.000000, 8209.000000, 8267.000000, 8281.000000
1238, 5458592.000000, 968.000000, 8218.000000, 8274.000000, 8292.000000
1239, 5458752.000000, 893.000000, 8233.000000, 8278.000000, 8302.000000
1240, 5458912.000000, 797.500000, 8248.000000, 8284.000000, 8314.000000
1241, 5459072.000000, 695.000000, 8271.000000, 8288.000000, 8326.000000
1242, 5459232.000000, 605.500000, 8296.000000, 8294.000000, 8340.000000
1243, 5459392.000000, 533.000000, 8318.000000, 8297.000000, 8352.000000
1244, 5459552.000000, 488.000000, 8333.000000, 8299.000000, 8360.000000
1245, 5459712.000000, 463.000000, 8330.000000, 8302.000000, 8367.000000
1246, 5459872.000000, 466.500000, 8300.000000, 8306.000000, 8363.000000
1247, 5460032.000000, 492.000000, 8255.000000, 8303.000000, 8344.000000
1248, 5460192.000000, 535.000000, 8235.000000, 8294.000000, 8328.000000
1249, 5460352.000000, 586.000000, 8227.000000, 8294.000000, 8324.000000
1250, 5460512.000000, 631.000000, 8227.000000, 8293.000000, 8323.000000
1251, 5460672.000000, 665.000000, 8234.000000, 8294.000000, 8325.000000
1252, 5460832.000000, 682.000000, 8236.000000, 8294.000000, 8326.000000
1253, 5460992.000000, 688.000000, 8236.000000, 8292.000000, 8322.000000
1254, 5461152.000000, 691.500000, 8241.000000, 8291.000000, 8321.000000
1255, 5461312.000000, 695.000000, 8237.000000, 8291.000000, 8320.000000
1256, 5461472.000000, 708.500000, 8243.000000, 8291.000000, 8320.000000
1257, 5461632.000000, 789.000000, 8242.000000, 8287.000000, 8313.000000
1258, 5461792.000000, 998.000000, 8238.000000, 8286.000000, 8310.000000
1259, 5461952.000000, 1372.000000, 8247.000000, 8288.000000, 8318.000000
1260, 5462112.000000, 1846.500000, 8248.000000, 8296.000000, 8332.000000
1261, 5462272.000000, 2300.000000, 8257.000000, 8295.000000, 8337.000000
1262, 5462432.000000, 2610.000000, 8262.000000, 8294.000000, 8330.000000
1263, 5462592.000000, 2766.000000, 8244.000000, 8275.000000, 8293.000000
1264, 5462752.000000, 2781.000000, 8237.000000, 8268.000000, 8279.000000
1265, 5462912.000000, 2712.000000, 8234.000000, 8265.000000, 8274.000000
1266, 5463072.000000, 2591.500000, 8236.000000, 8264.000000, 8274.000000
1267, 5463232.000000, 2431.000000, 8290.000000, 8306.000000, 8336.000000
1268, 5463392.000000, 2244.500000, 8458.000000, 8227.000000, 8369.000000
1269, 5463552.000000, 2074.000000, 8185.000000, 8146.000000, 8166.000000
1270, 5463712.000000, 1964.500000, 8214.000000, 8245.000000, 8245.000000
1271, 5463872.000000, 1923.000000, 8221.000000, 8256.000000, 8256.000000
1272, 5464032.000000, 1928.000000, 8224.000000, 8256.000000, 8258.000000
1273, 5464192.000000, 1936.000000, 8229.000000, 8255.000000, 8259.000000
1274, 5464352.000000, 1920.500000, 8240.000000, 8254.000000, 8265.000000
1275, 5464512.000000, 1874.000000, 8242.000000, 8254.000000, 8266.000000
1276, 5464672.000000, 1797.000000, 8257.000000, 8254.000000, 8272.000000
1277, 5464832.000000, 1706.000000, 8271.000000, 8254.000000, 8278.000000
1278, 5464992.000000, 1613.000000, 8292.000000, 8254.000000, 8284.000000
1279, 5465152.000000, 1524.000000, 8309.000000, 8253.000000, 8290.000000
1280, 5465312.000000, 1445.500000, 8309.000000, 8253.000000, 8294.000000
1281, 5465472.000000, 1381.000000, 8288.000000, 8252.000000, 8289.000000
1282, 5465632.000000, 1328.500000, 8243.000000, 8244.000000, 8269.000000
1283, 5465792.000000, 1290.000000, 8205.000000, 8235.000000, 8243.000000
1284, 5465952.000000, 1268.500000, 8188.000000, 8226.000000, 8228.000000
1285, 5466112.000000, 1254.000000, 8180.000000, 8223.000000, 8222.000000
1286, 5466272.000000, 1243.500000, 8180.000000, 8221.000000, 8220.000000
1287, 5466432.000000, 1231.000000, 8183.000000, 8219.000000, 8218.000000
1288, 5466592.000000, 1211.500000, 8178.000000, 8215.000000, 8211.000000
1289, 5466752.000000, 1186.000000, 8179.000000, 8210.000000, 8207.000000
1290, 5466912.000000, 1152.000000, 8173.000000, 8206.000000, 8201.000000
1291, 5467072.000000, 1117.000000, 8172.000000, 8202.000000, 8196.000000
1292, 5467232.000000, 1108.000000, 8169.000000, 8197.000000, 8189.000000
1293, 5467392.000000, 1180.000000, 8167.000000, 8192.000000, 8183.000000
1294, 5467552.000000, 1422.000000, 8164.000000, 8189.000000, 8178.000000
1295, 5467712.000000, 1801.000000, 8171.000000, 8195.000000, 8194.000000
1296, 5467872.000000, 2232.000000, 8171.000000, 8197.000000, 8200.000000
1297, 5468032.000000, 2582.000000, 8182.000000, 8199.000000, 8213.000000
1298, 5468192.000000, 2786.000000, 8179.000000, 8190.000000, 8190.000000
1299, 5468352.000000, 2849.000000, 8158.000000, 8171.000000, 8152.000000
1300, 5468512.000000, 2811.500000, 8156.000000, 8168.000000, 8147.000000
1301, 5468672.000000, 2723.000000, 8154.000000, 8166.000000, 8144.000000
1302, 5468832.000000, 2587.500000, 8147.000000, 8169.000000, 8142.000000
1303, 5468992.000000, 2420.000000, 8323.000000, 8210.000000, 8266.000000
1304, 5469152.000000, 2242.500000, 8235.000000, 8102.000000, 8174.000000
1305, 5469312.000000, 2102.000000, 8109.000000, 8083.000000, 8065.000000
1306, 5469472.000000, 2021.000000, 8141.000000, 8159.000000, 8130.000000
1307, 5469632.000000, 1988.000000, 8145.000000, 8167.000000, 8139.000000
1308, 5469792.000000, 1982.500000, 8147.000000, 8167.000000, 8142.000000
1309, 5469952.000000, 1966.000000, 8152.000000, 8167.000000, 8144.000000
1310, 5470112.000000, 1915.000000, 8161.000000, 8169.000000, 8150.000000
1311, 5470272.000000, 1837.000000, 8170.000000, 8169.000000, 8152.000000
1312, 5470432.000000, 1738.000000, 8183.000000, 8170.000000, 8159.000000
1313, 5470592.000000, 1630.000000, 8201.000000, 8170.000000, 8167.000000
1314, 5470752.000000, 1525.500000, 8223.000000, 8171.000000, 8175.000000
1315, 5470912.000000, 1431.000000, 8238.000000, 8174.000000, 8184.000000
1316, 5471072.000000, 1349.500000, 8238.000000, 8174.000000, 8188.000000
1317, 5471232.000000, 1283.000000, 8211.000000, 8176.000000, 8182.000000
1318, 5471392.000000, 1233.000000, 8169.000000, 8167.000000, 8159.000000
1319, 5471552.000000, 1199.000000, 8143.000000, 8156.000000, 8137.000000
1320, 5471712.000000, 1180.500000, 8132.000000, 8150.000000, 8127.000000
1321, 5471872.000000, 1166.000000, 8129.000000, 8148.000000, 8125.000000
1322, 5472032.000000, 1151.000000, 8132.000000, 8147.000000, 8126.000000
1323, 5472192.000000, 1128.000000, 8133.000000, 8144.000000, 8122.000000
1324, 5472352.000000, 1096.500000, 8134.000000, 8143.000000, 8122.000000
1325, 5472512.000000, 1061.000000, 8133.000000, 8139.000000, 8117.000000
1326, 5472672.000000, 1026.500000, 8133.000000, 8138.000000, 8116.000000
1327, 5472832.000000, 998.000000, 8132.000000, 8137.000000, 8114.000000
1328, 5472992.000000, 1004.500000, 8128.000000, 8134.000000, 8109.000000
1329, 5473152.000000, 1121.000000, 8132.000000, 8135.000000, 8110.000000
1330, 5473312.000000, 1399.500000, 8132.000000, 8135.000000, 8112.000000
1331, 5473472.000000, 1805.000000, 8133.000000, 8135.000000, 8113.000000
1332, 5473632.000000, 2218.500000, 8143.000000, 8145.000000, 8136.000000
1333, 5473792.000000, 2538.000000, 8144.000000, 8145.000000, 8138.000000
1334, 5473952.000000, 2696.500000, 8163.000000, 8152.000000, 8156.000000
1335, 5474112.000000, 2728.000000, 8148.000000, 8139.000000, 8121.000000
1336, 5474272.000000, 2671.500000, 8137.000000, 8129.000000, 8102.000000
1337, 5474432.000000, 2567.000000, 8133.000000, 8129.000000, 8101.000000
1338, 5474592.000000, 2426.000000, 8135.000000, 8128.000000, 8101.000000
1339, 5474752.000000, 2257.000000, 8138.000000, 8148.000000, 8119.000000
1340, 5474912.000000, 2097.000000, 8463.000000, 8132.000000, 8268.000000
1341, 5475072.000000, 1977.000000, 8124.000000, 8013.000000, 8037.000000
1342, 5475232.000000, 1920.500000, 8121.000000, 8110.000000, 8090.000000
1343, 5475392.000000, 1906.000000, 8130.000000, 8140.000000, 8110.000000
1344, 5475552.000000, 1904.500000, 8137.000000, 8145.000000, 8118.000000
1345, 5475712.000000, 1888.000000, 8146.000000, 8148.000000, 8125.000000
1346, 5475872.000000, 1845.000000, 8152.000000, 8151.000000, 8130.000000
1347, 5476032.000000, 1776.000000, 8161.000000, 8155.000000, 8138.000000
1348, 5476192.000000, 1689.500000, 8173.000000, 8155.000000, 8142.000000
1349, 5476352.000000, 1599.000000, 8186.000000, 8158.000000, 8153.000000
1350, 5476512.000000, 1513.000000, 8207.000000, 8160.000000, 8161.000000
1351, 5476672.000000, 1437.000000, 8226.000000, 8163.000000, 8171.000000
1352, 5476832.000000, 1372.500000, 8236.000000, 8167.000000, 8181.000000
1353, 5476992.000000, 1324.000000, 8228.000000, 8168.000000, 8181.000000
1354, 5477152.000000, 1292.000000, 8193.000000, 8164.000000, 8168.000000
1355, 5477312.000000, 1276.000000, 8154.000000, 8156.000000, 8144.000000
1356, 5477472.000000, 1275.000000, 8132.000000, 8154.000000, 8133.000000
1357, 5477632.000000, 1282.000000, 8124.000000, 8150.000000, 8126.000000
1358, 5477792.000000, 1283.500000, 8124.000000, 8150.000000, 8128.000000
1359, 5477952.000000, 1276.000000, 8126.000000, 8151.000000, 8130.000000
1360, 5478112.000000, 1254.000000, 8131.000000, 8151.000000, 8130.000000
1361, 5478272.000000, 1226.000000, 8133.000000, 8153.000000, 8133.000000
1362, 5478432.000000, 1196.000000, 8128.000000, 8155.000000, 8132.000000
1363, 5478592.000000, 1165.000000, 8129.000000, 8154.000000, 8131.000000
1364, 5478752.000000, 1145.000000, 8129.000000, 8154.000000, 8131.000000
1365, 5478912.000000, 1178.000000, 8128.000000, 8149.000000, 8126.000000
1366, 5479072.000000, 1353.000000, 8128.000000, 8154.000000, 8131.000000
1367, 5479232.000000, 1677.000000, 8132.000000, 8160.000000, 8137.000000
1368, 5479392.000000, 2101.500000, 8139.000000, 8171.000000, 8157.000000
1369, 5479552.000000, 2489.000000, 8144.000000, 8177.000000, 8168.000000
1370, 5479712.000000, 2750.500000, 8160.000000, 8188.000000, 8192.000000
1371, 5479872.000000, 2862.000000, 8149.000000, 8175.000000, 8158.000000
1372, 5480032.000000, 2851.000000, 8134.000000, 8163.000000, 8134.000000
1373, 5480192.000000, 2778.000000, 8129.000000, 8163.000000, 8132.000000
1374, 5480352.000000, 2662.000000, 8130.000000, 8164.000000, 8130.000000
1375, 5480512.000000, 2516.000000, 8124.000000, 8178.000000, 8140.000000
1376, 5480672.000000, 2354.000000, 8421.000000, 8178.000000, 8282.000000
1377, 5480832.000000, 2212.000000, 8124.000000, 8078.000000, 8102.000000
1378, 5480992.000000, 2114.000000, 8110.000000, 8110.000000, 8089.000000
1379, 5481152.000000, 2086.000000, 8126.000000, 8160.000000, 8125.000000
1380, 5481312.000000, 2089.000000, 8132.000000, 8171.000000, 8138.000000
1381, 5481472.000000, 2074.000000, 8140.000000, 8175.000000, 8148.000000
1382, 5481632.000000, 2028.500000, 8152.000000, 8183.000000, 8156.000000
1383, 5481792.000000, 1954.000000, 8160.000000, 8186.000000, 8162.000000
1384, 5481952.000000, 1845.500000, 8172.000000, 8188.000000, 8172.000000
1385, 5482112.000000, 1719.000000, 8183.000000, 8192.000000, 8177.000000
1386, 5482272.000000, 1629.000000, 8218.000000, 8200.000000, 8187.000000
1387, 5482432.000000, 1561.000000, 8238.000000, 8199.000000, 8197.000000
1388, 5482592.000000, 1505.000000, 8249.000000, 8202.000000, 8205.000000
1389, 5482752.000000, 1459.000000, 8243.000000, 8207.000000, 8212.000000
1390, 5482912.000000, 1431.000000, 8210.000000, 8210.000000, 8209.000000
1391, 5483072.000000, 1413.000000, 8167.000000, 8207.000000, 8194.000000
1392, 5483232.000000, 1404.000000, 8145.000000, 8202.000000, 8180.000000
1393, 5483392.000000, 1393.000000, 8130.000000, 8197.000000, 8171.000000
1394, 5483552.000000, 1374.000000, 8134.000000, 8197.000000, 8172.000000
1395, 5483712.000000, 1343.000000, 8135.000000, 8196.000000, 8175.000000
1396, 5483872.000000, 1301.000000, 8134.000000, 8198.000000, 8177.000000
1397, 5484032.000000, 1257.000000, 8137.000000, 8198.000000, 8179.000000
1398, 5484192.000000, 1214.500000, 8140.000000, 8198.000000, 8179.000000
1399, 5484352.000000, 1191.000000, 8131.000000, 8194.000000, 8173.000000
1400, 5484512.000000, 1229.500000, 8135.000000, 8196.000000, 8177.000000
1401, 5484672.000000, 1403.000000, 8136.000000, 8193.000000, 8173.000000
1402, 5484832.000000, 1725.500000, 8133.000000, 8194.000000, 8174.000000
1403, 5484992.000000, 2125.000000, 8134.000000, 8193.000000, 8172.000000
1404, 5485152.000000, 2474.500000, 8138.000000, 8201.000000, 8188.000000
1405, 5485312.000000, 2705.000000, 8142.000000, 8203.000000, 8195.000000
1406, 5485472.000000, 2787.500000, 8162.000000, 8207.000000, 8216.000000
1407, 5485632.000000, 2775.000000, 8158.000000, 8201.000000, 8192.000000
1408, 5485792.000000, 2698.500000, 8135.000000, 8185.000000, 8160.000000
1409, 5485952.000000, 2577.000000, 8140.000000, 8185.000000, 8158.000000
1410, 5486112.000000, 2415.500000, 8136.000000, 8184.000000, 8158.000000
1411, 5486272.000000, 2238.000000, 8131.000000, 8192.000000, 8159.000000
1412, 5486432.000000, 2100.000000, 8348.000000, 8226.000000, 8297.000000
1413, 5486592.000000, 2024.000000, 8157.000000, 8148.000000, 8186.000000
1414, 5486752.000000, 2008.500000, 8100.000000, 8112.000000, 8092.000000
1415, 5486912.000000, 2011.000000, 8136.000000, 8189.000000, 8157.000000
1416, 5487072.000000, 2005.000000, 8145.000000, 8195.000000, 8167.000000
1417, 5487232.000000, 1968.000000, 8156.000000, 8198.000000, 8177.000000
1418, 5487392.000000, 1904.000000, 8161.000000, 8198.000000, 8177.000000
1419, 5487552.000000, 1821.000000, 8168.000000, 8197.000000, 8180.000000
1420, 5487712.000000, 1732.000000, 8178.000000, 8198.000000, 8188.000000
1421, 5487872.000000, 1646.000000, 8194.000000, 8201.000000, 8194.000000
1422, 5488032.000000, 1564.000000, 8215.000000, 8203.000000, 8203.000000
1423, 5488192.000000, 1491.000000, 8238.000000, 8203.000000, 8209.000000
1424, 5488352.000000, 1428.500000, 8251.000000, 8203.000000, 8217.000000
1425, 5488512.000000, 1383.000000, 8249.000000, 8203.000000, 8218.000000
1426, 5488672.000000, 1355.000000, 8223.000000, 8203.000000, 8215.000000
1427, 5488832.000000, 1341.000000, 8182.000000, 8197.000000, 8194.000000
1428, 5488992.000000, 1338.500000, 8150.000000, 8190.000000, 8175.000000
1429, 5489152.000000, 1336.000000, 8137.000000, 8186.000000, 8165.000000
1430, 5489312.000000, 1324.000000, 8144.000000, 8182.000000, 8163.000000
1431, 5489472.000000, 1299.000000, 8141.000000, 8187.000000, 8168.000000
1432, 5489632.000000, 1260.000000, 8149.000000, 8185.000000, 8168.000000
1433, 5489792.000000, 1218.000000, 8150.000000, 8184.000000, 8167.000000
1434, 5489952.000000, 1172.000000, 8151.000000, 8182.000000, 8164.000000
1435, 5490112.000000, 1131.000000, 8150.000000, 8180.000000, 8163.000000
1436, 5490272.000000, 1142.000000, 8150.000000, 8184.000000, 8165.000000
1437, 5490432.000000, 1256.000000, 8151.000000, 8179.000000, 8163.000000
1438, 5490592.000000, 1539.500000, 8150.000000, 8177.000000, 8158.000000
1439, 5490752.000000, 1919.000000, 8151.000000, 8177.000000, 8157.000000
1440, 5490912.000000, 2297.000000, 8156.000000, 8182.000000, 8173.000000
1441, 5491072.000000, 2565.000000, 8164.000000, 8190.000000, 8187.000000
1442, 5491232.000000, 2697.000000, 8171.000000, 8194.000000, 8199.000000
1443, 5491392.000000, 2719.000000, 8177.000000, 8187.000000, 8186.000000
1444, 5491552.000000, 2668.000000, 8160.000000, 8171.000000, 8153.000000
1445, 5491712.000000, 2567.000000, 8156.000000, 8167.000000, 8144.000000
1446, 5491872.000000, 2415.500000, 8153.000000, 8166.000000, 8143.000000
1447, 5492032.000000, 2239.000000, 8156.000000, 8167.000000, 8144.000000
1448, 5492192.000000, 2084.000000, 8269.000000, 8212.000000, 8236.000000
1449, 5492352.000000, 1989.000000, 8291.000000, 8138.000000, 8217.000000
1450, 5492512.000000, 1959.000000, 8109.000000, 8063.000000, 8045.000000
1451, 5492672.000000, 1963.000000, 8154.000000, 8163.000000, 8135.000000
1452, 5492832.000000, 1966.000000, 8155.000000, 8175.000000, 8148.000000
1453, 5492992.000000, 1946.000000, 8163.000000, 8177.000000, 8155.000000
1454, 5493152.000000, 1897.000000, 8173.000000, 8177.000000, 8158.000000
1455, 5493312.000000, 1827.000000, 8181.000000, 8178.000000, 8166.000000
1456, 5493472.000000, 1751.500000, 8195.000000, 8180.000000, 8171.000000
1457, 5493632.000000, 1676.000000, 8210.000000, 8180.000000, 8177.000000
1458, 5493792.000000, 1601.500000, 8224.000000, 8180.000000, 8182.000000
1459, 5493952.000000, 1533.000000, 8247.000000, 8178.000000, 8188.000000
1460, 5494112.000000, 1473.000000, 8262.000000, 8181.000000, 8197.000000
1461, 5494272.000000, 1424.000000, 8264.000000, 8182.000000, 8203.000000
1462, 5494432.000000, 1396.500000, 8241.000000, 8185.000000, 8201.000000
1463, 5494592.000000, 1388.000000, 8204.000000, 8182.000000, 8185.000000
1464, 5494752.000000, 1393.500000, 8165.000000, 8174.000000, 8167.000000
1465, 5494912.000000, 1399.000000, 8161.000000, 8169.000000, 8154.000000
1466, 5495072.000000, 1397.500000, 8155.000000, 8168.000000, 8153.000000
1467, 5495232.000000, 1381.000000, 8157.000000, 8169.000000, 8153.000000
1468, 5495392.000000, 1349.500000, 8162.000000, 8165.000000, 8152.000000
1469, 5495552.000000, 1306.000000, 8161.000000, 8166.000000, 8151.000000
1470, 5495712.000000, 1259.500000, 8162.000000, 8165.000000, 8152.000000
1471, 5495872.000000, 1218.000000, 8160.000000, 8164.000000, 8150.000000
1472, 5496032.000000, 1211.000000, 8163.000000, 8165.000000, 8149.000000
1473, 5496192.000000, 1307.000000, 8161.000000, 8163.000000, 8148.000000
1474, 5496352.000000, 1561.500000, 8156.000000, 8164.000000, 8147.000000
1475, 5496512.000000, 1952.000000, 8157.000000, 8164.000000, 8148.000000
1476, 5496672.000000, 2361.500000, 8167.000000, 8170.000000, 8161.000000
1477, 5496832.000000, 2688.000000, 8172.000000, 8177.000000, 8177.000000
1478, 5496992.000000, 2854.000000, 8172.000000, 8181.000000, 8185.000000
1479, 5497152.000000, 2898.000000, 8187.000000, 8180.000000, 8184.000000
1480, 5497312.000000, 2857.000000, 8172.000000, 8166.000000, 8152.000000
1481, 5497472.000000, 2768.000000, 8162.000000, 8161.000000, 8142.000000
1482, 5497632.000000, 2634.000000, 8161.000000, 8161.000000, 8142.000000
1483, 5497792.000000, 2460.000000, 8164.000000, 8163.000000, 8144.000000
1484, 5497952.000000, 2293.000000, 8218.000000, 8204.000000, 8206.000000
1485, 5498112.000000, 2170.000000, 8398.000000, 8132.000000, 8244.000000
1486, 5498272.000000, 2114.000000, 8115.000000, 8050.000000, 8044.000000
1487, 5498432.000000, 2102.000000, 8152.000000, 8155.000000, 8132.000000
1488, 5498592.000000, 2102.500000, 8161.000000, 8171.000000, 8146.000000
1489, 5498752.000000, 2085.000000, 8165.000000, 8175.000000, 8152.000000
1490, 5498912.000000, 2038.000000, 8174.000000, 8179.000000, 8160.000000
1491, 5499072.000000, 1965.000000, 8182.000000, 8182.000000, 8167.000000
1492, 5499232.000000, 1875.000000, 8194.000000, 8184.000000, 8173.000000
1493, 5499392.000000, 1780.000000, 8207.000000, 8186.000000, 8181.000000
1494, 5499552.000000, 1692.000000, 8221.000000, 8188.000000, 8188.000000
1495, 5499712.000000, 1610.000000, 8246.000000, 8191.000000, 8200.000000
1496, 5499872.000000, 1541.000000, 8268.000000, 8194.000000, 8210.000000
1497, 5500032.000000, 1484.000000, 8269.000000, 8194.000000, 8216.000000
1498, 5500192.000000, 1444.000000, 8254.000000, 8196.000000, 8216.000000
1499, 5500352.000000, 1423.000000, 8211.000000, 8192.000000, 8200.000000
1500, 5500512.000000, 1417.500000, 8176.000000, 8184.000000, 8177.000000
1501, 5500672.000000, 1417.000000, 8160.000000, 8178.000000, 8164.000000
1502, 5500832.000000, 1411.000000, 8160.000000, 8179.000000, 8165.000000
1503, 5500992.000000, 1393.000000, 8164.000000, 8177.000000, 8166.000000
1504, 5501152.000000, 1358.000000, 8161.000000, 8177.000000, 8164.000000
1505, 5501312.000000, 1316.000000, 8165.000000, 8178.000000, 8167.000000
1506, 5501472.000000, 1268.500000, 8164.000000, 8178.000000, 8165.000000
1507, 5501632.000000, 1226.000000, 8169.000000, 8178.000000, 8166.000000
1508, 5501792.000000, 1212.500000, 8166.000000, 8178.000000, 8164.000000
1509, 5501952.000000, 1281.000000, 8165.000000, 8174.000000, 8161.000000
1510, 5502112.000000, 1520.500000, 8165.000000, 8174.000000, 8161.000000
1511, 5502272.000000, 1901.000000, 8168.000000, 8174.000000, 8161.000000
1512, 5502432.000000, 2335.500000, 8168.000000, 8175.000000, 8162.000000
1513, 5502592.000000, 2686.000000, 8175.000000, 8182.000000, 8178.000000
1514, 5502752.000000, 2890.500000, 8178.000000, 8188.000000, 8188.000000
1515, 5502912.000000, 2957.000000, 8188.000000, 8192.000000, 8204.000000
1516, 5503072.000000, 2928.500000, 8195.000000, 8185.000000, 8188.000000
1517, 5503232.000000, 2851.000000, 8175.000000, 8172.000000, 8158.000000
1518, 5503392.000000, 2730.000000, 8173.000000, 8169.000000, 8152.000000
1519, 5503552.000000, 2572.000000, 8170.000000, 8168.000000, 8149.000000
1520, 5503712.000000, 2402.500000, 8163.000000, 8174.000000, 8148.000000
1521, 5503872.000000, 2262.000000, 8349.000000, 8214.000000, 8276.000000
1522, 5504032.000000, 2183.500000, 8235.000000, 8116.000000, 8180.000000
1523, 5504192.000000, 2155.000000, 8130.000000, 8089.000000, 8075.000000
1524, 5504352.000000, 2147.500000, 8162.000000, 8170.000000, 8147.000000
1525, 5504512.000000, 2128.000000, 8167.000000, 8179.000000, 8158.000000
1526, 5504672.000000, 2077.500000, 8173.000000, 8184.000000, 8165.000000
1527, 5504832.000000, 2004.000000, 8183.000000, 8185.000000, 8172.000000
1528, 5504992.000000, 1912.500000, 8191.000000, 8189.000000, 8178.000000
1529, 5505152.000000, 1816.000000, 8199.000000, 8188.000000, 8180.000000
1530, 5505312.000000, 1723.500000, 8211.000000, 8191.000000, 8187.000000
1531, 5505472.000000, 1639.000000, 8229.000000, 8195.000000, 8197.000000
1532, 5505632.000000, 1567.500000, 8254.000000, 8199.000000, 8209.000000
1533, 5505792.000000, 1504.000000, 8268.000000, 8201.000000, 8219.000000
1534, 5505952.000000, 1458.000000, 8269.000000, 8199.000000, 8223.000000
1535, 5506112.000000, 1428.000000, 8242.000000, 8200.000000, 8216.000000
1536, 5506272.000000, 1415.500000, 8200.000000, 8196.000000, 8202.000000
1537, 5506432.000000, 1411.000000, 8171.000000, 8187.000000, 8180.000000
1538, 5506592.000000, 1409.000000, 8164.000000, 8182.000000, 8169.000000
1539, 5506752.000000, 1401.000000, 8159.000000, 8181.000000, 8168.000000
1540, 5506912.000000, 1376.500000, 8164.000000, 8180.000000, 8169.000000
1541, 5507072.000000, 1340.000000, 8166.000000, 8181.000000, 8171.000000
1542, 5507232.000000, 1292.500000, 8166.000000, 8183.000000, 8173.000000
1543, 5507392.000000, 1246.000000, 8168.000000, 8180.000000, 8171.000000
1544, 5507552.000000, 1203.500000, 8169.000000, 8181.000000, 8171.000000
1545, 5507712.000000, 1206.000000, 8165.000000, 8178.000000, 8167.000000
1546, 5507872.000000, 1326.500000, 8164.000000, 8177.000000, 8164.000000
1547, 5508032.000000, 1615.000000, 8162.000000, 8178.000000, 8165.000000
1548, 5508192.000000, 2037.000000, 8167.000000, 8178.000000, 8167.000000
1549, 5508352.000000, 2467.000000, 8166.000000, 8177.000000, 8165.000000
1550, 5508512.000000, 2779.500000, 8171.000000, 8182.000000, 8175.000000
1551, 5508672.000000, 2949.000000, 8176.000000, 8187.000000, 8191.000000
1552, 5508832.000000, 2983.500000, 8178.000000, 8189.000000, 8195.000000
1553, 5508992.000000, 2943.000000, 8191.000000, 8190.000000, 8196.000000
1554, 5509152.000000, 2861.500000, 8172.000000, 8174.000000, 8162.000000
1555, 5509312.000000, 2743.000000, 8165.000000, 8168.000000, 8151.000000
1556, 5509472.000000, 2582.000000, 8167.000000, 8167.000000, 8150.000000
1557, 5509632.000000, 2411.000000, 8168.000000, 8171.000000, 8154.000000
1558, 5509792.000000, 2280.000000, 8226.000000, 8214.000000, 8218.000000
1559, 5509952.000000, 2203.000000, 8406.000000, 8129.000000, 8249.000000
1560, 5510112.000000, 2173.500000, 8128.000000, 8052.000000, 8047.000000
1561, 5510272.000000, 2153.000000, 8155.000000, 8164.000000, 8141.000000
1562, 5510432.000000, 2119.000000, 8161.000000, 8179.000000, 8154.000000
1563, 5510592.000000, 2055.000000, 8169.000000, 8183.000000, 8163.000000
1564, 5510752.000000, 1965.500000, 8176.000000, 8183.000000, 8166.000000
1565, 5510912.000000, 1862.000000, 8182.000000, 8184.000000, 8169.000000
1566, 5511072.000000, 1759.500000, 8189.000000, 8186.000000, 8175.000000
1567, 5511232.000000, 1666.000000, 8202.000000, 8189.000000, 8183.000000
1568, 5511392.000000, 1586.000000, 8217.000000, 8194.000000, 8194.000000
1569, 5511552.000000, 1515.000000, 8239.000000, 8195.000000, 8203.000000
1570, 5511712.000000, 1459.000000, 8258.000000, 8196.000000, 8211.000000
1571, 5511872.000000, 1415.000000, 8263.000000, 8197.000000, 8217.000000
1572, 5512032.000000, 1385.500000, 8246.000000, 8197.000000, 8214.000000
1573, 5512192.000000, 1369.000000, 8206.000000, 8193.000000, 8197.000000
1574, 5512352.000000, 1364.500000, 8175.000000, 8184.000000, 8176.000000
1575, 5512512.000000, 1356.000000, 8158.000000, 8180.000000, 8167.000000
1576, 5512672.000000, 1336.500000, 8153.000000, 8179.000000, 8164.000000
1577, 5512832.000000, 1306.000000, 8156.000000, 8180.000000, 8167.000000
1578, 5512992.000000, 1267.500000, 8163.000000, 8181.000000, 8171.000000
1579, 5513152.000000, 1223.000000, 8165.000000, 8179.000000, 8170.000000
1580, 5513312.000000, 1182.000000, 8164.000000, 8179.000000, 8168.000000
1581, 5513472.000000, 1144.000000, 8165.000000, 8177.000000, 8168.000000
1582, 5513632.000000, 1130.000000, 8165.000000, 8178.000000, 8169.000000
1583, 5513792.000000, 1201.000000, 8162.000000, 8177.000000, 8166.000000
1584, 5513952.000000, 1432.500000, 8163.000000, 8177.000000, 8167.000000
1585, 5514112.000000, 1820.000000, 8163.000000, 8175.000000, 8165.000000
1586, 5514272.000000, 2265.000000, 8165.000000, 8177.000000, 8168.000000
1587, 5514432.000000, 2643.000000, 8166.000000, 8178.000000, 8170.000000
1588, 5514592.000000, 2867.000000, 8178.000000, 8187.000000, 8193.000000
1589, 5514752.000000, 2953.000000, 8178.000000, 8189.000000, 8197.000000
1590, 5514912.000000, 2931.000000, 8198.000000, 8196.000000, 8215.000000
1591, 5515072.000000, 2859.000000, 8181.000000, 8183.000000, 8181.000000
1592, 5515232.000000, 2752.500000, 8167.000000, 8172.000000, 8159.000000
1593, 5515392.000000, 2607.000000, 8167.000000, 8170.000000, 8155.000000
1594, 5515552.000000, 2442.500000, 8169.000000, 8171.000000, 8157.000000
1595, 5515712.000000, 2291.000000, 8166.000000, 8187.000000, 8169.000000
1596, 5515872.000000, 2191.500000, 8486.000000, 8180.000000, 8321.000000
1597, 5516032.000000, 2141.000000, 8170.000000, 8046.000000, 8088.000000
1598, 5516192.000000, 2119.000000, 8151.000000, 8144.000000, 8138.000000
1599, 5516352.000000, 2089.000000, 8161.000000, 8180.000000, 8159.000000
1600, 5516512.000000, 2040.000000, 8166.000000, 8185.000000, 8167.000000
1601, 5516672.000000, 1964.000000, 8173.000000, 8189.000000, 8174.000000
1602, 5516832.000000, 1874.000000, 8183.000000, 8192.000000, 8183.000000
1603, 5516992.000000, 1777.000000, 8192.000000, 8193.000000, 8186.000000
1604, 5517152.000000, 1682.500000, 8201.000000, 8194.000000, 8191.000000
1605, 5517312.000000, 1592.000000, 8215.000000, 8196.000000, 8198.000000
1606, 5517472.000000, 1511.000000, 8235.000000, 8200.000000, 8208.000000
1607, 5517632.000000, 1443.000000, 8257.000000, 8204.000000, 8220.000000
1608, 5517792.000000, 1392.000000, 8265.000000, 8207.000000, 8227.000000
1609, 5517952.000000, 1356.000000, 8261.000000, 8206.000000, 8227.000000
1610, 5518112.000000, 1335.000000, 8227.000000, 8202.000000, 8214.000000
1611, 5518272.000000, 1324.000000, 8188.000000, 8194.000000, 8191.000000
1612, 5518432.000000, 1314.000000, 8164.000000, 8186.000000, 8173.000000
1613, 5518592.000000, 1296.000000, 8157.000000, 8184.000000, 8168.000000
1614, 5518752.000000, 1271.500000, 8157.000000, 8185.000000, 8169.000000
1615, 5518912.000000, 1239.000000, 8161.000000, 8184.000000, 8169.000000
1616, 5519072.000000, 1200.000000, 8166.000000, 8185.000000, 8173.000000
1617, 5519232.000000, 1159.000000, 8165.000000, 8185.000000, 8174.000000
1618, 5519392.000000, 1120.500000, 8166.000000, 8185.000000, 8173.000000
1619, 5519552.000000, 1090.000000, 8164.000000, 8182.000000, 8167.000000
1620, 5519712.000000, 1113.000000, 8163.000000, 8183.000000, 8167.000000
1621, 5519872.000000, 1249.000000, 8165.000000, 8183.000000, 8170.000000
1622, 5520032.000000, 1566.000000, 8164.000000, 8182.000000, 8167.000000
1623, 5520192.000000, 1993.000000, 8166.000000, 8183.000000, 8169.000000
1624, 5520352.000000, 2425.500000, 8167.000000, 8181.000000, 8168.000000
1625, 5520512.000000, 2745.000000, 8175.000000, 8189.000000, 8185.000000
1626, 5520672.000000, 2913.000000, 8178.000000, 8194.000000, 8196.000000
1627, 5520832.000000, 2949.000000, 8181.000000, 8193.000000, 8199.000000
1628, 5520992.000000, 2899.500000, 8194.000000, 8195.000000, 8199.000000
1629, 5521152.000000, 2805.000000, 8174.000000, 8179.000000, 8164.000000
1630, 5521312.000000, 2670.000000, 8166.000000, 8177.000000, 8157.000000
1631, 5521472.000000, 2505.000000, 8168.000000, 8180.000000, 8161.000000
1632, 5521632.000000, 2341.500000, 8169.000000, 8186.000000, 8166.000000
1633, 5521792.000000, 2215.000000, 8272.000000, 8234.000000, 8256.000000
1634, 5521952.000000, 2142.500000, 8369.000000, 8132.000000, 8249.000000
1635, 5522112.000000, 2114.000000, 8139.000000, 8086.000000, 8080.000000
1636, 5522272.000000, 2097.000000, 8162.000000, 8184.000000, 8161.000000
1637, 5522432.000000, 2065.000000, 8165.000000, 8196.000000, 8173.000000
1638, 5522592.000000, 2002.000000, 8175.000000, 8199.000000, 8183.000000
1639, 5522752.000000, 1914.000000, 8181.000000, 8199.000000, 8185.000000
1640, 5522912.000000, 1818.500000, 8188.000000, 8200.000000, 8187.000000
1641, 5523072.000000, 1722.000000, 8198.000000, 8201.000000, 8192.000000
1642, 5523232.000000, 1637.500000, 8210.000000, 8204.000000, 8201.000000
1643, 5523392.000000, 1563.000000, 8228.000000, 8207.000000, 8210.000000
1644, 5523552.000000, 1501.500000, 8249.000000, 8210.000000, 8219.000000
1645, 5523712.000000, 1451.000000, 8266.000000, 8213.000000, 8229.000000
1646, 5523872.000000, 1411.000000, 8270.000000, 8213.000000, 8234.000000
1647, 5524032.000000, 1380.000000, 8249.000000, 8215.000000, 8232.000000
1648, 5524192.000000, 1359.000000, 8208.000000, 8210.000000, 8214.000000
1649, 5524352.000000, 1347.000000, 8177.000000, 8200.000000, 8193.000000
1650, 5524512.000000, 1336.500000, 8162.000000, 8197.000000, 8184.000000
1651, 5524672.000000, 1322.000000, 8160.000000, 8194.000000, 8180.000000
1652, 5524832.000000, 1296.000000, 8163.000000, 8194.000000, 8182.000000
1653, 5524992.000000, 1261.000000, 8164.000000, 8194.000000, 8181.000000
1654, 5525152.000000, 1220.500000, 8169.000000, 8191.000000, 8181.000000
1655, 5525312.000000, 1179.000000, 8167.000000, 8190.000000, 8177.000000
1656, 5525472.000000, 1139.500000, 8166.000000, 8190.000000, 8178.000000
1657, 5525632.000000, 1117.000000, 8165.000000, 8192.000000, 8179.000000
1658, 5525792.000000, 1167.500000, 8165.000000, 8193.000000, 8180.000000
1659, 5525952.000000, 1354.000000, 8165.000000, 8192.000000, 8177.000000
1660, 5526112.000000, 1703.500000, 8164.000000, 8191.000000, 8176.000000
1661, 5526272.000000, 2127.000000, 8165.000000, 8193.000000, 8178.000000
1662, 5526432.000000, 2500.000000, 8167.000000, 8193.000000, 8178.000000
1663, 5526592.000000, 2746.000000, 8173.000000, 8203.000000, 8198.000000
1664, 5526752.000000, 2842.500000, 8176.000000, 8204.000000, 8201.000000
1665, 5526912.000000, 2830.000000, 8187.000000, 8208.000000, 8214.000000
1666, 5527072.000000, 2758.000000, 8190.000000, 8204.000000, 8202.000000
1667, 5527232.000000, 2646.000000, 8169.000000, 8190.000000, 8172.000000
1668, 5527392.000000, 2497.500000, 8166.000000, 8186.000000, 8164.000000
1669, 5527552.000000, 2335.000000, 8167.000000, 8187.000000, 8164.000000
1670, 5527712.000000, 2194.000000, 8159.000000, 8190.000000, 8163.000000
1671, 5527872.000000, 2099.000000, 8348.000000, 8232.000000, 8291.000000
1672, 5528032.000000, 2057.500000, 8283.000000, 8122.000000, 8216.000000
1673, 5528192.000000, 2046.000000, 8144.000000, 8118.000000, 8115.000000
1674, 5528352.000000, 2036.000000, 8160.000000, 8187.000000, 8161.000000
1675, 5528512.000000, 2007.000000, 8163.000000, 8192.000000, 8168.000000
1676, 5528672.000000, 1942.000000, 8169.000000, 8196.000000, 8174.000000
1677, 5528832.000000, 1854.000000, 8177.000000, 8200.000000, 8183.000000
1678, 5528992.000000, 1756.000000, 8188.000000, 8200.000000, 8187.000000
1679, 5529152.000000, 1657.000000, 8198.000000, 8200.000000, 8191.000000
1680, 5529312.000000, 1571.000000, 8212.000000, 8203.000000, 8198.000000
1681, 5529472.000000, 1499.000000, 8230.000000, 8204.000000, 8206.000000
1682, 5529632.000000, 1441.000000, 8251.000000, 8208.000000, 8218.000000
1683, 5529792.000000, 1394.000000, 8265.000000, 8209.000000, 8225.000000
1684, 5529952.000000, 1355.500000, 8267.000000, 8210.000000, 8229.000000
1685, 5530112.000000, 1331.000000, 8246.000000, 8211.000000, 8226.000000
1686, 5530272.000000, 1316.500000, 8205.000000, 8207.000000, 8207.000000
1687, 5530432.000000, 1309.000000, 8174.000000, 8199.000000, 8188.000000
1688, 5530592.000000, 1303.500000, 8164.000000, 8196.000000, 8181.000000
1689, 5530752.000000, 1291.000000, 8161.000000, 8194.000000, 8177.000000
1690, 5530912.000000, 1266.500000, 8162.000000, 8194.000000, 8177.000000
1691, 5531072.000000, 1230.000000, 8167.000000, 8195.000000, 8178.000000
1692, 5531232.000000, 1187.000000, 8166.000000, 8194.000000, 8178.000000
1693, 5531392.000000, 1143.000000, 8165.000000, 8192.000000, 8173.000000
1694, 5531552.000000, 1107.000000, 8166.000000, 8192.000000, 8174.000000
1695, 5531712.000000, 1094.000000, 8163.000000, 8190.000000, 8170.000000
1696, 5531872.000000, 1150.500000, 8163.000000, 8191.000000, 8171.000000
1697, 5532032.000000, 1347.000000, 8165.000000, 8194.000000, 8175.000000
1698, 5532192.000000, 1697.500000, 8167.000000, 8194.000000, 8177.000000
1699, 5532352.000000, 2123.000000, 8167.000000, 8197.000000, 8178.000000
1700, 5532512.000000, 2497.500000, 8167.000000, 8197.000000, 8178.000000
1701, 5532672.000000, 2753.000000, 8177.000000, 8208.000000, 8203.000000
1702, 5532832.000000, 2853.000000, 8176.000000, 8213.000000, 8208.000000
1703, 5532992.000000, 2849.000000, 8197.000000, 8219.000000, 8225.000000
1704, 5533152.000000, 2772.500000, 8176.000000, 8207.000000, 8192.000000
1705, 5533312.000000, 2646.000000, 8162.000000, 8201.000000, 8176.000000
1706, 5533472.000000, 2485.000000, 8162.000000, 8204.000000, 8181.000000
1707, 5533632.000000, 2318.000000, 8165.000000, 8210.000000, 8191.000000
1708, 5533792.000000, 2184.500000, 8164.000000, 8232.000000, 8209.000000
1709, 5533952.000000, 2105.000000, 8504.000000, 8209.000000, 8360.000000
1710, 5534112.000000, 2077.500000, 8178.000000, 8118.000000, 8166.000000
1711, 5534272.000000, 2069.000000, 8152.000000, 8204.000000, 8193.000000
1712, 5534432.000000, 2055.000000, 8154.000000, 8233.000000, 8209.000000
1713, 5534592.000000, 2016.000000, 8161.000000, 8238.000000, 8219.000000
1714, 5534752.000000, 1947.000000, 8167.000000, 8244.000000, 8229.000000
1715, 5534912.000000, 1860.000000, 8174.000000, 8248.000000, 8239.000000
1716, 5535072.000000, 1764.000000, 8182.000000, 8251.000000, 8246.000000
1717, 5535232.000000, 1675.000000, 8192.000000, 8256.000000, 8255.000000
1718, 5535392.000000, 1595.000000, 8208.000000, 8260.000000, 8266.000000
1719, 5535552.000000, 1529.000000, 8227.000000, 8267.000000, 8281.000000
1720, 5535712.000000, 1473.500000, 8248.000000, 8269.000000, 8291.000000
1721, 5535872.000000, 1430.000000, 8257.000000, 8273.000000, 8303.000000
1722, 5536032.000000, 1403.000000, 8251.000000, 8278.000000, 8310.000000
1723, 5536192.000000, 1389.000000, 8214.000000, 8281.000000, 8305.000000
1724, 5536352.000000, 1387.500000, 8173.000000, 8274.000000, 8286.000000
1725, 5536512.000000, 1390.000000, 8149.000000, 8267.000000, 8271.000000
1726, 5536672.000000, 1386.500000, 8143.000000, 8265.000000, 8267.000000
1727, 5536832.000000, 1372.000000, 8145.000000, 8265.000000, 8267.000000
1728, 5536992.000000, 1346.500000, 8149.000000, 8270.000000, 8276.000000
1729, 5537152.000000, 1308.000000, 8147.000000, 8266.000000, 8269.000000
1730, 5537312.000000, 1262.500000, 8149.000000, 8264.000000, 8268.000000
1731, 5537472.000000, 1215.000000, 8146.000000, 8263.000000, 8265.000000
1732, 5537632.000000, 1175.000000, 8145.000000, 8264.000000, 8264.000000
1733, 5537792.000000, 1157.000000, 8147.000000, 8265.000000, 8266.000000
1734, 5537952.000000, 1230.000000, 8146.000000, 8261.000000, 8261.000000
1735, 5538112.000000, 1436.000000, 8147.000000, 8262.000000, 8261.000000
1736, 5538272.000000, 1786.000000, 8149.000000, 8262.000000, 8262.000000
1737, 5538432.000000, 2183.000000, 8149.000000, 8261.000000, 8261.000000
1738, 5538592.000000, 2515.500000, 8151.000000, 8263.000000, 8265.000000
1739, 5538752.000000, 2718.000000, 8158.000000, 8269.000000, 8281.000000
1740, 5538912.000000, 2781.500000, 8157.000000, 8269.000000, 8279.000000
1741, 5539072.000000, 2755.000000, 8182.000000, 8275.000000, 8297.000000
1742, 5539232.000000, 2660.500000, 8163.000000, 8260.000000, 8264.000000
1743, 5539392.000000, 2527.000000, 8153.000000, 8254.000000, 8251.000000
1744, 5539552.000000, 2364.000000, 8150.000000, 8250.000000, 8245.000000
1745, 5539712.000000, 2212.000000, 8152.000000, 8247.000000, 8242.000000
1746, 5539872.000000, 2106.500000, 8152.000000, 8265.000000, 8256.000000
1747, 5540032.000000, 2058.000000, 8485.000000, 8240.000000, 8400.000000
1748, 5540192.000000, 2052.500000, 8173.000000, 8153.000000, 8219.000000
1749, 5540352.000000, 2061.000000, 8140.000000, 8224.000000, 8224.000000
1750, 5540512.000000, 2049.000000, 8141.000000, 8245.000000, 8230.000000
1751, 5540672.000000, 2009.000000, 8143.000000, 8247.000000, 8230.000000
1752, 5540832.000000, 1935.500000, 8150.000000, 8248.000000, 8235.000000
1753, 5540992.000000, 1840.000000, 8160.000000, 8249.000000, 8241.000000
1754, 5541152.000000, 1740.000000, 8167.000000, 8247.000000, 8240.000000
1755, 5541312.000000, 1644.000000, 8179.000000, 8247.000000, 8244.000000
1756, 5541472.000000, 1560.000000, 8191.000000, 8244.000000, 8244.000000
1757, 5541632.000000, 1488.000000, 8210.000000, 8246.000000, 8253.000000
1758, 5541792.000000, 1431.000000, 8232.000000, 8247.000000, 8261.000000
1759, 5541952.000000, 1388.000000, 8243.000000, 8247.000000, 8266.000000
1760, 5542112.000000, 1363.500000, 8238.000000, 8245.000000, 8265.000000
1761, 5542272.000000, 1352.000000, 8205.000000, 8243.000000, 8253.000000
1762, 5542432.000000, 1356.000000, 8164.000000, 8236.000000, 8231.000000
1763, 5542592.000000, 1362.000000, 8144.000000, 8225.000000, 8214.000000
1764, 5542752.000000, 1362.500000, 8138.000000, 8221.000000, 8206.000000
1765, 5542912.000000, 1354.000000, 8139.000000, 8215.000000, 8199.000000
1766, 5543072.000000, 1328.500000, 8141.000000, 8212.000000, 8197.000000
1767, 5543232.000000, 1294.000000, 8143.000000, 8208.000000, 8193.000000
1768, 5543392.000000, 1256.500000, 8142.000000, 8206.000000, 8190.000000
1769, 5543552.000000, 1218.000000, 8140.000000, 8203.000000, 8186.000000
1770, 5543712.000000, 1183.500000, 8138.000000, 8199.000000, 8182.000000
1771, 5543872.000000, 1168.000000, 8136.000000, 8193.000000, 8173.000000
1772, 5544032.000000, 1234.500000, 8136.000000, 8192.000000, 8174.000000
1773, 5544192.000000, 1431.000000, 8137.000000, 8191.000000, 8172.000000
1774, 5544352.000000, 1785.000000, 8138.000000, 8190.000000, 8173.000000
1775, 5544512.000000, 2189.000000, 8139.000000, 8188.000000, 8170.000000
1776, 5544672.000000, 2534.500000, 8147.000000, 8195.000000, 8188.000000
1777, 5544832.000000, 2744.000000, 8151.000000, 8196.000000, 8192.000000
1778, 5544992.000000, 2814.500000, 8167.000000, 8203.000000, 8211.000000
1779, 5545152.000000, 2781.000000, 8167.000000, 8194.000000, 8191.000000
1780, 5545312.000000, 2680.500000, 8145.000000, 8180.000000, 8162.000000
1781, 5545472.000000, 2539.000000, 8144.000000, 8177.000000, 8158.000000
1782, 5545632.000000, 2364.500000, 8146.000000, 8177.000000, 8158.000000
1783, 5545792.000000, 2199.000000, 8135.000000, 8182.000000, 8157.000000
1784, 5545952.000000, 2081.500000, 8349.000000, 8217.000000, 8289.000000
1785, 5546112.000000, 2025.000000, 8252.000000, 8132.000000, 8235.000000
1786, 5546272.000000, 2019.000000, 8127.000000, 8126.000000, 8132.000000
1787, 5546432.000000, 2032.000000, 8139.000000, 8186.000000, 8168.000000
1788, 5546592.000000, 2027.500000, 8141.000000, 8197.000000, 8180.000000
1789, 5546752.000000, 1996.000000, 8149.000000, 8200.000000, 8187.000000
1790, 5546912.000000, 1932.000000, 8157.000000, 8204.000000, 8194.000000
1791, 5547072.000000, 1848.000000, 8167.000000, 8209.000000, 8204.000000
1792, 5547232.000000, 1753.000000, 8180.000000, 8215.000000, 8218.000000
1793, 5547392.000000, 1662.000000, 8193.000000, 8220.000000, 8228.000000
1794, 5547552.000000, 1576.500000, 8210.000000, 8223.000000, 8236.000000
1795, 5547712.000000, 1502.000000, 8234.000000, 8227.000000, 8250.000000
1796, 5547872.000000, 1436.500000, 8248.000000, 8232.000000, 8262.000000
1797, 5548032.000000, 1384.000000, 8250.000000, 8238.000000, 8272.000000
1798, 5548192.000000, 1348.000000, 8226.000000, 8246.000000, 8276.000000
1799, 5548352.000000, 1325.000000, 8187.000000, 8244.000000, 8260.000000
1800, 5548512.000000, 1318.500000, 8158.000000, 8237.000000, 8243.000000
1801, 5548672.000000, 1316.000000, 8149.000000, 8234.000000, 8236.000000
1802, 5548832.000000, 1310.500000, 8150.000000, 8234.000000, 8235.000000
1803, 5548992.000000, 1298.000000, 8151.000000, 8238.000000, 8238.000000
1804, 5549152.000000, 1269.500000, 8154.000000, 8237.000000, 8237.000000
1805, 5549312.000000, 1235.000000, 8156.000000, 8235.000000, 8234.000000
1806, 5549472.000000, 1195.500000, 8154.000000, 8236.000000, 8234.000000
1807, 5549632.000000, 1157.000000, 8154.000000, 8234.000000, 8232.000000
1808, 5549792.000000, 1128.000000, 8157.000000, 8234.000000, 8232.000000
1809, 5549952.000000, 1145.000000, 8158.000000, 8232.000000, 8232.000000
1810, 5550112.000000, 1276.000000, 8154.000000, 8233.000000, 8227.000000
1811, 5550272.000000, 1559.000000, 8154.000000, 8233.000000, 8227.000000
1812, 5550432.000000, 1957.500000, 8158.000000, 8233.000000, 8226.000000
1813, 5550592.000000, 2357.000000, 8159.000000, 8234.000000, 8229.000000
1814, 5550752.000000, 2645.000000, 8167.000000, 8240.000000, 8242.000000
1815, 5550912.000000, 2796.000000, 8166.000000, 8240.000000, 8242.000000
1816, 5551072.000000, 2809.500000, 8187.000000, 8249.000000, 8261.000000
1817, 5551232.000000, 2742.000000, 8172.000000, 8234.000000, 8226.000000
1818, 5551392.000000, 2617.500000, 8159.000000, 8225.000000, 8210.000000
1819, 5551552.000000, 2452.000000, 8161.000000, 8224.000000, 8207.000000
1820, 5551712.000000, 2270.000000, 8156.000000, 8221.000000, 8202.000000
1821, 5551872.000000, 2109.000000, 8167.000000, 8234.000000, 8217.000000
1822, 5552032.000000, 2013.000000, 8480.000000, 8214.000000, 8351.000000
1823, 5552192.000000, 1974.000000, 8155.000000, 8147.000000, 8189.000000
1824, 5552352.000000, 1979.500000, 8149.000000, 8195.000000, 8184.000000
1825, 5552512.000000, 1988.000000, 8159.000000, 8212.000000, 8189.000000
1826, 5552672.000000, 1975.500000, 8164.000000, 8213.000000, 8190.000000
1827, 5552832.000000, 1927.000000, 8174.000000, 8211.000000, 8194.000000
1828, 5552992.000000, 1847.000000, 8177.000000, 8211.000000, 8198.000000
1829, 5553152.000000, 1750.000000, 8191.000000, 8210.000000, 8199.000000
1830, 5553312.000000, 1652.500000, 8204.000000, 8203.000000, 8198.000000
1831, 5553472.000000, 1564.000000, 8219.000000, 8196.000000, 8195.000000
1832, 5553632.000000, 1488.500000, 8244.000000, 8198.000000, 8204.000000
1833, 5553792.000000, 1426.000000, 8265.000000, 8199.000000, 8213.000000
1834, 5553952.000000, 1378.500000, 8284.000000, 8201.000000, 8221.000000
1835, 5554112.000000, 1341.000000, 8275.000000, 8204.000000, 8224.000000
1836, 5554272.000000, 1321.000000, 8249.000000, 8205.000000, 8218.000000
1837, 5554432.000000, 1312.000000, 8207.000000, 8201.000000, 8200.000000
1838, 5554592.000000, 1312.500000, 8183.000000, 8194.000000, 8183.000000
1839, 5554752.000000, 1314.000000, 8178.000000, 8180.000000, 8166.000000
1840, 5554912.000000, 1305.500000, 8175.000000, 8172.000000, 8156.000000
1841, 5555072.000000, 1288.000000, 8178.000000, 8171.000000, 8157.000000
1842, 5555232.000000, 1256.000000, 8173.000000, 8173.000000, 8156.000000
1843, 5555392.000000, 1214.000000, 8178.000000, 8171.000000, 8157.000000
1844, 5555552.000000, 1169.000000, 8174.000000, 8168.000000, 8153.000000
1845, 5555712.000000, 1126.000000, 8172.000000, 8164.000000, 8148.000000
1846, 5555872.000000, 1101.000000, 8175.000000, 8167.000000, 8153.000000
1847, 5556032.000000, 1137.000000, 8181.000000, 8169.000000, 8159.000000
1848, 5556192.000000, 1310.000000, 8178.000000, 8168.000000, 8160.000000
1849, 5556352.000000, 1648.000000, 8179.000000, 8170.000000, 8163.000000
1850, 5556512.000000, 2080.000000, 8192.000000, 8174.000000, 8177.000000
1851, 5556672.000000, 2482.000000, 8195.000000, 8177.000000, 8186.000000
1852, 5556832.000000, 2745.500000, 8215.000000, 8184.000000, 8212.000000
1853, 5556992.000000, 2868.000000, 8201.000000, 8175.000000, 8184.000000
1854, 5557152.000000, 2855.500000, 8190.000000, 8163.000000, 8161.000000
1855, 5557312.000000, 2772.000000, 8196.000000, 8168.000000, 8158.000000
1856, 5557472.000000, 2634.000000, 8197.000000, 8168.000000, 8153.000000
1857, 5557632.000000, 2457.000000, 8194.000000, 8180.000000, 8165.000000
1858, 5557792.000000, 2271.500000, 8497.000000, 8179.000000, 8307.000000
1859, 5557952.000000, 2124.000000, 8181.000000, 8105.000000, 8153.000000
1860, 5558112.000000, 2047.500000, 8171.000000, 8124.000000, 8125.000000
1861, 5558272.000000, 2032.000000, 8181.000000, 8158.000000, 8144.000000
1862, 5558432.000000, 2047.500000, 8186.000000, 8158.000000, 8145.000000
1863, 5558592.000000, 2060.000000, 8190.000000, 8161.000000, 8153.000000
1864, 5558752.000000, 2044.500000, 8199.000000, 8161.000000, 8157.000000
1865, 5558912.000000, 1992.000000, 8207.000000, 8159.000000, 8158.000000
1866, 5559072.000000, 1911.500000, 8217.000000, 8154.000000, 8158.000000
1867, 5559232.000000, 1818.000000, 8232.000000, 8152.000000, 8162.000000
1868, 5559392.000000, 1723.000000, 8248.000000, 8156.000000, 8172.000000
1869, 5559552.000000, 1638.000000, 8274.000000, 8157.000000, 8181.000000
1870, 5559712.000000, 1561.500000, 8282.000000, 8156.000000, 8185.000000
1871, 5559872.000000, 1498.000000, 8283.000000, 8145.000000, 8179.000000
1872, 5560032.000000, 1454.000000, 8243.000000, 8152.000000, 8177.000000
1873, 5560192.000000, 1427.000000, 8204.000000, 8155.000000, 8166.000000
1874, 5560352.000000, 1416.000000, 8181.000000, 8147.000000, 8149.000000
1875, 5560512.000000, 1412.000000, 8169.000000, 8144.000000, 8142.000000
1876, 5560672.000000, 1410.000000, 8171.000000, 8145.000000, 8144.000000
1877, 5560832.000000, 1400.000000, 8178.000000, 8149.000000, 8151.000000
1878, 5560992.000000, 1377.500000, 8180.000000, 8151.000000, 8156.000000
1879, 5561152.000000, 1342.000000, 8180.000000, 8157.000000, 8160.000000
1880, 5561312.000000, 1299.500000, 8185.000000, 8154.000000, 8158.000000
1881, 5561472.000000, 1253.000000, 8177.000000, 8152.000000, 8155.000000
1882, 5561632.000000, 1214.000000, 8180.000000, 8152.000000, 8153.000000
1883, 5561792.000000, 1214.000000, 8180.000000, 8149.000000, 8152.000000
1884, 5561952.000000, 1340.500000, 8180.000000, 8149.000000, 8152.000000
1885, 5562112.000000, 1625.000000, 8187.000000, 8159.000000, 8169.000000
1886, 5562272.000000, 2058.000000, 8192.000000, 8163.000000, 8178.000000
1887, 5562432.000000, 2497.000000, 8202.000000, 8168.000000, 8194.000000
1888, 5562592.000000, 2826.000000, 8204.000000, 8165.000000, 8180.000000
1889, 5562752.000000, 2997.000000, 8190.000000, 8154.000000, 8152.000000
1890, 5562912.000000, 3027.000000, 8183.000000, 8146.000000, 8141.000000
1891, 5563072.000000, 2973.000000, 8183.000000, 8149.000000, 8142.000000
1892, 5563232.000000, 2860.500000, 8180.000000, 8151.000000, 8142.000000
1893, 5563392.000000, 2706.000000, 8349.000000, 8191.000000, 8257.000000
1894, 5563552.000000, 2517.000000, 8259.000000, 8128.000000, 8212.000000
1895, 5563712.000000, 2316.000000, 8154.000000, 8072.000000, 8076.000000
1896, 5563872.000000, 2199.500000, 8181.000000, 8150.000000, 8138.000000
1897, 5564032.000000, 2191.000000, 8183.000000, 8158.000000, 8151.000000
1898, 5564192.000000, 2198.500000, 8193.000000, 8163.000000, 8159.000000
1899, 5564352.000000, 2175.000000, 8200.000000, 8165.000000, 8162.000000
1900, 5564512.000000, 2098.000000, 8204.000000, 8167.000000, 8168.000000
1901, 5564672.000000, 1991.000000, 8216.000000, 8168.000000, 8171.000000
1902, 5564832.000000, 1891.500000, 8231.000000, 8167.000000, 8178.000000
1903, 5564992.000000, 1796.000000, 8250.000000, 8172.000000, 8188.000000
1904, 5565152.000000, 1707.500000, 8274.000000, 8176.000000, 8200.000000
1905, 5565312.000000, 1630.000000, 8288.000000, 8178.000000, 8209.000000
1906, 5565472.000000, 1571.500000, 8290.000000, 8179.000000, 8215.000000
1907, 5565632.000000, 1537.000000, 8266.000000, 8182.000000, 8216.000000
1908, 5565792.000000, 1523.500000, 8222.000000, 8184.000000, 8203.000000
1909, 5565952.000000, 1524.000000, 8194.000000, 8176.000000, 8186.000000
1910, 5566112.000000, 1523.500000, 8189.000000, 8169.000000, 8174.000000
1911, 5566272.000000, 1516.000000, 8181.000000, 8170.000000, 8170.000000
1912, 5566432.000000, 1488.500000, 8189.000000, 8165.000000, 8170.000000
1913, 5566592.000000, 1445.000000, 8187.000000, 8170.000000, 8178.000000
1914, 5566752.000000, 1396.000000, 8192.000000, 8163.000000, 8174.000000
1915, 5566912.000000, 1346.000000, 8187.000000, 8168.000000, 8172.000000
1916, 5567072.000000, 1313.500000, 8191.000000, 8162.000000, 8168.000000
1917, 5567232.000000, 1344.000000, 8183.000000, 8162.000000, 8165.000000
1918, 5567392.000000, 1536.500000, 8193.000000, 8161.000000, 8167.000000
1919, 5567552.000000, 1900.000000, 8194.000000, 8163.000000, 8167.000000
1920, 5567712.000000, 2375.000000, 8200.000000, 8163.000000, 8173.000000
1921, 5567872.000000, 2808.000000, 8200.000000, 8171.000000, 8185.000000
1922, 5568032.000000, 3101.000000, 8198.000000, 8171.000000, 8190.000000
1923, 5568192.000000, 3230.000000, 8221.000000, 8176.000000, 8198.000000
1924, 5568352.000000, 3233.500000, 8204.000000, 8161.000000, 8166.000000
1925, 5568512.000000, 3168.000000, 8193.000000, 8155.000000, 8151.000000
1926, 5568672.000000, 3046.500000, 8194.000000, 8155.000000, 8148.000000
1927, 5568832.000000, 2876.000000, 8198.000000, 8156.000000, 8153.000000
1928, 5568992.000000, 2672.000000, 8235.000000, 8191.000000, 8201.000000
1929, 5569152.000000, 2484.000000, 8462.000000, 8135.000000, 8270.000000
1930, 5569312.000000, 2361.500000, 8160.000000, 8053.000000, 8073.000000
1931, 5569472.000000, 2309.000000, 8189.000000, 8147.000000, 8142.000000
1932, 5569632.000000, 2295.500000, 8190.000000, 8165.000000, 8155.000000
1933, 5569792.000000, 2278.000000, 8196.000000, 8168.000000, 8160.000000
1934, 5569952.000000, 2228.500000, 8205.000000, 8171.000000, 8167.000000
1935, 5570112.000000, 2147.000000, 8210.000000, 8173.000000, 8170.000000
1936, 5570272.000000, 2041.000000, 8222.000000, 8177.000000, 8178.000000
1937, 5570432.000000, 1925.000000, 8231.000000, 8178.000000, 8181.000000
1938, 5570592.000000, 1815.000000, 8248.000000, 8180.000000, 8190.000000
1939, 5570752.000000, 1715.000000, 8272.000000, 8185.000000, 8201.000000
1940, 5570912.000000, 1630.500000, 8291.000000, 8182.000000, 8207.000000
1941, 5571072.000000, 1563.000000, 8297.000000, 8183.000000, 8210.000000
1942, 5571232.000000, 1515.000000, 8280.000000, 8187.000000, 8213.000000
1943, 5571392.000000, 1484.000000, 8237.000000, 8188.000000, 8201.000000
1944, 5571552.000000, 1468.500000, 8205.000000, 8184.000000, 8184.000000
1945, 5571712.000000, 1461.000000, 8184.000000, 8177.000000, 8169.000000
1946, 5571872.000000, 1449.000000, 8179.000000, 8174.000000, 8163.000000
1947, 5572032.000000, 1424.000000, 8180.000000, 8177.000000, 8168.000000
1948, 5572192.000000, 1380.500000, 8183.000000, 8177.000000, 8170.000000
1949, 5572352.000000, 1324.000000, 8186.000000, 8181.000000, 8172.000000
1950, 5572512.000000, 1264.500000, 8188.000000, 8177.000000, 8170.000000
1951, 5572672.000000, 1220.000000, 8189.000000, 8177.000000, 8170.000000
1952, 5572832.000000, 1226.500000, 8187.000000, 8177.000000, 8169.000000
1953, 5572992.000000, 1367.000000, 8188.000000, 8177.000000, 8168.000000
1954, 5573152.000000, 1696.500000, 8189.000000, 8177.000000, 8170.000000
1955, 5573312.000000, 2173.000000, 8190.000000, 8173.000000, 8167.000000
1956, 5573472.000000, 2651.500000, 8190.000000, 8177.000000, 8171.000000
1957, 5573632.000000, 3019.000000, 8196.000000, 8185.000000, 8189.000000
1958, 5573792.000000, 3195.500000, 8200.000000, 8186.000000, 8196.000000
1959, 5573952.000000, 3232.000000, 8215.000000, 8193.000000, 8207.000000
1960, 5574112.000000, 3178.000000, 8204.000000, 8178.000000, 8173.000000
1961, 5574272.000000, 3075.000000, 8189.000000, 8166.000000, 8155.000000
1962, 5574432.000000, 2922.000000, 8190.000000, 8168.000000, 8154.000000
1963, 5574592.000000, 2719.000000, 8190.000000, 8168.000000, 8156.000000
1964, 5574752.000000, 2510.500000, 8212.000000, 8198.000000, 8193.000000
1965, 5574912.000000, 2343.000000, 8496.000000, 8145.000000, 8285.000000
1966, 5575072.000000, 2255.000000, 8158.000000, 8061.000000, 8083.000000
1967, 5575232.000000, 2217.000000, 8174.000000, 8154.000000, 8141.000000
1968, 5575392.000000, 2199.500000, 8183.000000, 8174.000000, 8155.000000
1969, 5575552.000000, 2160.000000, 8187.000000, 8177.000000, 8163.000000
1970, 5575712.000000, 2089.500000, 8193.000000, 8180.000000, 8168.000000
1971, 5575872.000000, 2055.000000, 8201.000000, 8183.000000, 8174.000000
1972, 5576032.000000, 2049.500000, 8209.000000, 8184.000000, 8177.000000
1973, 5576192.000000, 2049.000000, 8217.000000, 8187.000000, 8183.000000
1974, 5576352.000000, 2049.000000, 8240.000000, 8187.000000, 8190.000000
1975, 5576512.000000, 2049.000000, 8257.000000, 8187.000000, 8197.000000
1976, 5576672.000000, 2049.000000, 8276.000000, 8188.000000, 8205.000000
1977, 5576832.000000, 2049.000000, 8283.000000, 8188.000000, 8208.000000
1978, 5576992.000000, 2049.000000, 8276.000000, 8191.000000, 8210.000000
1979, 5577152.000000, 2049.000000, 8234.000000, 8193.000000, 8202.000000
1980, 5577312.000000, 2049.000000, 8196.000000, 8186.000000, 8180.000000
1981, 5577472.000000, 2049.000000, 8177.000000, 8179.000000, 8164.000000
1982, 5577632.000000, 2049.000000, 8169.000000, 8175.000000, 8157.000000
1983, 5577792.000000, 2049.000000, 8169.000000, 8177.000000, 8159.000000
1984, 5577952.000000, 2049.000000, 8173.000000, 8176.000000, 8161.000000
1985, 5578112.000000, 1862.000000, 8175.000000, 8177.000000, 8161.000000
1986, 5578272.000000, 1707.500000, 8177.000000, 8174.000000, 8159.000000
1987, 5578432.000000, 1614.000000, 8174.000000, 8174.000000, 8157.000000
1988, 5578592.000000, 1580.000000, 8176.000000, 8176.000000, 8159.000000
1989, 5578752.000000, 1665.000000, 8174.000000, 8175.000000, 8158.000000
1990, 5578912.000000, 1962.000000, 8175.000000, 8172.000000, 8154.000000
1991, 5579072.000000, 2408.000000, 8176.000000, 8170.000000, 8151.000000
1992, 5579232.000000, 2886.000000, 8174.000000, 8170.000000, 8151.000000
1993, 5579392.000000, 3248.000000, 8178.000000, 8175.000000, 8161.000000
1994, 5579552.000000, 3434.000000, 8185.000000, 8183.000000, 8176.000000
1995, 5579712.000000, 3468.000000, 8184.000000, 8183.000000, 8179.000000
1996, 5579872.000000, 3406.000000, 8201.000000, 8188.000000, 8189.000000
1997, 5580032.000000, 3300.000000, 8183.000000, 8173.000000, 8158.000000
1998, 5580192.000000, 3144.500000, 8173.000000, 8166.000000, 8143.000000
1999, 5580352.000000, 2943.000000, 8174.000000, 8167.000000, 8144.000000
2000, 5580512.000000, 2720.000000, 8180.000000, 8167.000000, 8146.000000
2001, 5580672.000000, 2532.000000, 8203.000000, 8197.000000, 8184.000000
2002, 5580832.000000, 2413.000000, 8480.000000, 8140.000000, 8273.000000
2003, 5580992.000000, 2360.000000, 8152.000000, 8056.000000, 8068.000000
2004, 5581152.000000, 2328.500000, 8165.000000, 8154.000000, 8133.000000
2005, 5581312.000000, 2283.000000, 8171.000000, 8175.000000, 8148.000000
2006, 5581472.000000, 2202.500000, 8175.000000, 8177.000000, 8151.000000
2007, 5581632.000000, 2092.000000, 8183.000000, 8181.000000, 8160.000000
2008, 5581792.000000, 1966.500000, 8191.000000, 8186.000000, 8167.000000
2009, 5581952.000000, 1842.000000, 8199.000000, 8186.000000, 8174.000000
2010, 5582112.000000, 1728.000000, 8211.000000, 8189.000000, 8181.000000
2011, 5582272.000000, 1629.000000, 8224.000000, 8189.000000, 8186.000000
2012, 5582432.000000, 1547.000000, 8246.000000, 8190.000000, 8195.000000
2013, 5582592.000000, 1479.000000, 8268.000000, 8196.000000, 8210.000000
2014, 5582752.000000, 1430.500000, 8275.000000, 8197.000000, 8217.000000
2015, 5582912.000000, 1396.000000, 8262.000000, 8199.000000, 8217.000000
2016, 5583072.000000, 1379.000000, 8224.000000, 8196.000000, 8204.000000
2017, 5583232.000000, 1373.000000, 8186.000000, 8190.000000, 8185.000000
2018, 5583392.000000, 1367.000000, 8166.000000, 8184.000000, 8170.000000
2019, 5583552.000000, 1351.000000, 8162.000000, 8183.000000, 8168.000000
2020, 5583712.000000, 1317.000000, 8163.000000, 8180.000000, 8166.000000
2021, 5583872.000000, 1272.000000, 8165.000000, 8180.000000, 8167.000000
2022, 5584032.000000, 1219.000000, 8162.000000, 8181.000000, 8166.000000
2023, 5584192.000000, 1168.000000, 8166.000000, 8179.000000, 8165.000000
2024, 5584352.000000, 1125.500000, 8166.000000, 8178.000000, 8164.000000
2025, 5584512.000000, 1126.000000, 8165.000000, 8178.000000, 8163.000000
2026, 5584672.000000, 1243.000000, 8164.000000, 8178.000000, 8161.000000
2027, 5584832.000000, 1552.000000, 8165.000000, 8177.000000, 8160.000000
2028, 5584992.000000, 2032.500000, 8165.000000, 8178.000000, 8161.000000
2029, 5585152.000000, 2550.000000, 8166.000000, 8177.000000, 8161.000000
2030, 5585312.000000, 2951.500000, 8167.000000, 8177.000000, 8160.000000
2031, 5585472.000000, 3181.000000, 8167.000000, 8179.000000, 8164.000000
2032, 5585632.000000, 3241.000000, 8176.000000, 8188.000000, 8183.000000
2033, 5585792.000000, 3200.000000, 8176.000000, 8189.000000, 8186.000000
2034, 5585952.000000, 3107.000000, 8196.000000, 8195.000000, 8199.000000
2035, 5586112.000000, 2975.000000, 8177.000000, 8178.000000, 8163.000000
2036, 5586272.000000, 2795.500000, 8166.000000, 8172.000000, 8150.000000
2037, 5586432.000000, 2591.000000, 8165.000000, 8170.000000, 8147.000000
2038, 5586592.000000, 2411.500000, 8168.000000, 8171.000000, 8148.000000
2039, 5586752.000000, 2290.000000, 8185.000000, 8198.000000, 8179.000000
2040, 5586912.000000, 2234.500000, 8497.000000, 8150.000000, 8292.000000
2041, 5587072.000000, 2209.000000, 8151.000000, 8057.000000, 8075.000000
2042, 5587232.000000, 2171.500000, 8154.000000, 8155.000000, 8135.000000
2043, 5587392.000000, 2105.000000, 8159.000000, 8180.000000, 8151.000000
2044, 5587552.000000, 2007.000000, 8165.000000, 8186.000000, 8161.000000
2045, 5587712.000000, 1889.000000, 8172.000000, 8188.000000, 8164.000000
2046, 5587872.000000, 1769.000000, 8178.000000, 8188.000000, 8168.000000
2047, 5588032.000000, 1656.000000, 8184.000000, 8191.000000, 8173.000000
2048, 5588192.000000, 1557.500000, 8195.000000, 8193.000000, 8180.000000
2049, 5588352.000000, 1477.000000, 8213.000000, 8197.000000, 8190.000000
2050, 5588512.000000, 1414.000000, 8231.000000, 8197.000000, 8198.000000
2051, 5588672.000000, 1366.000000, 8253.000000, 8198.000000, 8206.000000
2052, 5588832.000000, 1331.500000, 8264.000000, 8201.000000, 8216.000000
2053, 5588992.000000, 1309.000000, 8256.000000, 8202.000000, 8218.000000
2054, 5589152.000000, 1298.500000, 8216.000000, 8205.000000, 8210.000000
2055, 5589312.000000, 1293.000000, 8180.000000, 8198.000000, 8189.000000
2056, 5589472.000000, 1282.000000, 8158.000000, 8189.000000, 8170.000000
2057, 5589632.000000, 1262.000000, 8151.000000, 8186.000000, 8166.000000
2058, 5589792.000000, 1230.500000, 8149.000000, 8187.000000, 8166.000000
2059, 5589952.000000, 1191.000000, 8152.000000, 8189.000000, 8170.000000
2060, 5590112.000000, 1144.000000, 8156.000000, 8188.000000, 8171.000000
2061, 5590272.000000, 1097.000000, 8158.000000, 8188.000000, 8171.000000
2062, 5590432.000000, 1054.500000, 8158.000000, 8186.000000, 8169.000000
2063, 5590592.000000, 1045.000000, 8158.000000, 8186.000000, 8169.000000
2064, 5590752.000000, 1137.000000, 8159.000000, 8186.000000, 8169.000000
2065, 5590912.000000, 1415.000000, 8160.000000, 8187.000000, 8171.000000
2066, 5591072.000000, 1873.500000, 8159.000000, 8186.000000, 8167.000000
2067, 5591232.000000, 2401.000000, 8159.000000, 8186.000000, 8167.000000
2068, 5591392.000000, 2834.000000, 8158.000000, 8186.000000, 8167.000000
2069, 5591552.000000, 3104.000000, 8161.000000, 8186.000000, 8169.000000
2070, 5591712.000000, 3181.000000, 8164.000000, 8195.000000, 8184.000000
2071, 5591872.000000, 3151.000000, 8170.000000, 8197.000000, 8192.000000
2072, 5592032.000000, 3065.000000, 8183.000000, 8204.000000, 8209.000000
2073, 5592192.000000, 2938.000000, 8182.000000, 8199.000000, 8190.000000
2074, 5592352.000000, 2769.500000, 8160.000000, 8187.000000, 8163.000000
2075, 5592512.000000, 2570.000000, 8161.000000, 8184.000000, 8159.000000
2076, 5592672.000000, 2385.000000, 8158.000000, 8185.000000, 8158.000000
2077, 5592832.000000, 2252.000000, 8154.000000, 8190.000000, 8158.000000
2078, 5592992.000000, 2185.500000, 8352.000000, 8228.000000, 8288.000000
2079, 5593152.000000, 2154.000000, 8252.000000, 8116.000000, 8191.000000
2080, 5593312.000000, 2120.000000, 8134.000000, 8123.000000, 8110.000000
2081, 5593472.000000, 2054.000000, 8153.000000, 8192.000000, 8161.000000
2082, 5593632.000000, 1954.500000, 8157.000000, 8199.000000, 8169.000000
2083, 5593792.000000, 1835.000000, 8164.000000, 8201.000000, 8174.000000
2084, 5593952.000000, 1711.000000, 8171.000000, 8203.000000, 8180.000000
2085, 5594112.000000, 1597.000000, 8184.000000, 8205.000000, 8187.000000
2086, 5594272.000000, 1498.000000, 8190.000000, 8207.000000, 8191.000000
2087, 5594432.000000, 1418.000000, 8204.000000, 8211.000000, 8200.000000
2088, 5594592.000000, 1359.000000, 8221.000000, 8213.000000, 8208.000000
2089, 5594752.000000, 1317.000000, 8247.000000, 8217.000000, 8223.000000
2090, 5594912.000000, 1287.500000, 8263.000000, 8219.000000, 8231.000000
2091, 5595072.000000, 1268.000000, 8263.000000, 8220.000000, 8236.000000
2092, 5595232.000000, 1255.500000, 8237.000000, 8220.000000, 8231.000000
2093, 5595392.000000, 1247.000000, 8192.000000, 8214.000000, 8209.000000
2094, 5595552.000000, 1240.000000, 8163.000000, 8204.000000, 8188.000000
2095, 5595712.000000, 1229.000000, 8151.000000, 8198.000000, 8176.000000
2096, 5595872.000000, 1210.000000, 8149.000000, 8196.000000, 8173.000000
2097, 5596032.000000, 1180.000000, 8151.000000, 8195.000000, 8175.000000
2098, 5596192.000000, 1143.500000, 8153.000000, 8195.000000, 8176.000000
2099, 5596352.000000, 1104.000000, 8158.000000, 8194.000000, 8177.000000
2100, 5596512.000000, 1068.000000, 8158.000000, 8193.000000, 8176.000000
2101, 5596672.000000, 1038.000000, 8156.000000, 8191.000000, 8172.000000
2102, 5596832.000000, 1057.500000, 8156.000000, 8188.000000, 8169.000000
2103, 5596992.000000, 1198.000000, 8155.000000, 8188.000000, 8169.000000
2104, 5597152.000000, 1526.500000, 8159.000000, 8188.000000, 8171.000000
2105, 5597312.000000, 1997.000000, 8159.000000, 8187.000000, 8170.000000
2106, 5597472.000000, 2476.500000, 8162.000000, 8188.000000, 8171.000000
2107, 5597632.000000, 2845.000000, 8162.000000, 8187.000000, 8170.000000
2108, 5597792.000000, 3030.500000, 8163.000000, 8188.000000, 8172.000000
2109, 5597952.000000, 3074.000000, 8171.000000, 8195.000000, 8190.000000
2110, 5598112.000000, 3021.000000, 8172.000000, 8198.000000, 8194.000000
2111, 5598272.000000, 2925.000000, 8190.000000, 8203.000000, 8211.000000
2112, 5598432.000000, 2789.000000, 8184.000000, 8193.000000, 8187.000000
2113, 5598592.000000, 2616.000000, 8165.000000, 8181.000000, 8160.000000
2114, 5598752.000000, 2430.500000, 8164.000000, 8180.000000, 8157.000000
2115, 5598912.000000, 2275.000000, 8166.000000, 8181.000000, 8159.000000
2116, 5599072.000000, 2181.000000, 8153.000000, 8186.000000, 8155.000000
2117, 5599232.000000, 2138.000000, 8394.000000, 8213.000000, 8295.000000
2118, 5599392.000000, 2118.500000, 8241.000000, 8098.000000, 8174.000000
2119, 5599552.000000, 2090.000000, 8150.000000, 8130.000000, 8127.000000
2120, 5599712.000000, 2030.000000, 8159.000000, 8184.000000, 8157.000000
2121, 5599872.000000, 1940.000000, 8161.000000, 8189.000000, 8162.000000
2122, 5600032.000000, 1833.000000, 8168.000000, 8189.000000, 8168.000000
2123, 5600192.000000, 1722.000000, 8175.000000, 8192.000000, 8174.000000
2124, 5600352.000000, 1621.000000, 8183.000000, 8195.000000, 8180.000000
2125, 5600512.000000, 1535.000000, 8195.000000, 8194.000000, 8183.000000
2126, 5600672.000000, 1464.500000, 8208.000000, 8195.000000, 8189.000000
2127, 5600832.000000, 1409.000000, 8226.000000, 8196.000000, 8196.000000
2128, 5600992.000000, 1366.500000, 8250.000000, 8198.000000, 8208.000000
2129, 5601152.000000, 1336.000000, 8266.000000, 8201.000000, 8219.000000
2130, 5601312.000000, 1316.500000, 8266.000000, 8204.000000, 8226.000000
2131, 5601472.000000, 1303.000000, 8241.000000, 8206.000000, 8222.000000
2132, 5601632.000000, 1293.500000, 8195.000000, 8204.000000, 8203.000000
2133, 5601792.000000, 1283.000000, 8166.000000, 8199.000000, 8187.000000
2134, 5601952.000000, 1266.500000, 8156.000000, 8197.000000, 8182.000000
2135, 5602112.000000, 1245.000000, 8157.000000, 8196.000000, 8180.000000
2136, 5602272.000000, 1214.000000, 8158.000000, 8196.000000, 8179.000000
2137, 5602432.000000, 1175.000000, 8159.000000, 8194.000000, 8179.000000
2138, 5602592.000000, 1133.000000, 8163.000000, 8193.000000, 8179.000000
2139, 5602752.000000, 1095.000000, 8162.000000, 8193.000000, 8180.000000
2140, 5602912.000000, 1066.000000, 8163.000000, 8192.000000, 8178.000000
2141, 5603072.000000, 1072.000000, 8163.000000, 8191.000000, 8175.000000
2142, 5603232.000000, 1205.500000, 8161.000000, 8190.000000, 8173.000000
2143, 5603392.000000, 1506.000000, 8161.000000, 8187.000000, 8170.000000
2144, 5603552.000000, 1962.000000, 8162.000000, 8189.000000, 8174.000000
2145, 5603712.000000, 2438.000000, 8164.000000, 8188.000000, 8173.000000
2146, 5603872.000000, 2808.500000, 8165.000000, 8183.000000, 8168.000000
2147, 5604032.000000, 3015.000000, 8165.000000, 8184.000000, 8169.000000
2148, 5604192.000000, 3060.500000, 8169.000000, 8187.000000, 8177.000000
2149, 5604352.000000, 3010.000000, 8173.000000, 8194.000000, 8191.000000
2150, 5604512.000000, 2900.500000, 8176.000000, 8195.000000, 8195.000000
2151, 5604672.000000, 2753.000000, 8193.000000, 8198.000000, 8200.000000
2152, 5604832.000000, 2573.500000, 8173.000000, 8182.000000, 8167.000000
2153, 5604992.000000, 2385.000000, 8165.000000, 8178.000000, 8157.000000
2154, 5605152.000000, 2230.500000, 8166.000000, 8177.000000, 8155.000000
2155, 5605312.000000, 2133.000000, 8170.000000, 8180.000000, 8159.000000
2156, 5605472.000000, 2093.000000, 8212.000000, 8214.000000, 8205.000000
2157, 5605632.000000, 2075.000000, 8442.000000, 8146.000000, 8278.000000
2158, 5605792.000000, 2048.000000, 8155.000000, 8079.000000, 8093.000000
2159, 5605952.000000, 1993.000000, 8160.000000, 8175.000000, 8151.000000
2160, 5606112.000000, 1910.000000, 8162.000000, 8190.000000, 8163.000000
2161, 5606272.000000, 1807.000000, 8168.000000, 8192.000000, 8167.000000
2162, 5606432.000000, 1699.000000, 8177.000000, 8196.000000, 8177.000000
2163, 5606592.000000, 1598.000000, 8182.000000, 8199.000000, 8182.000000
2164, 5606752.000000, 1511.000000, 8194.000000, 8200.000000, 8189.000000
2165, 5606912.000000, 1438.000000, 8206.000000, 8201.000000, 8194.000000
2166, 5607072.000000, 1382.000000, 8222.000000, 8202.000000, 8201.000000
2167, 5607232.000000, 1342.000000, 8244.000000, 8205.000000, 8211.000000
2168, 5607392.000000, 1314.500000, 8263.000000, 8208.000000, 8224.000000
2169, 5607552.000000, 1295.000000, 8271.000000, 8212.000000, 8234.000000
2170, 5607712.000000, 1281.500000, 8257.000000, 8215.000000, 8235.000000
2171, 5607872.000000, 1272.000000, 8217.000000, 8213.000000, 8221.000000
2172, 5608032.000000, 1264.000000, 8179.000000, 8207.000000, 8200.000000
2173, 5608192.000000, 1254.000000, 8159.000000, 8202.000000, 8189.000000
2174, 5608352.000000, 1239.000000, 8155.000000, 8202.000000, 8187.000000
2175, 5608512.000000, 1215.000000, 8157.000000, 8206.000000, 8194.000000
2176, 5608672.000000, 1182.500000, 8161.000000, 8207.000000, 8196.000000
2177, 5608832.000000, 1144.000000, 8159.000000, 8207.000000, 8196.000000
2178, 5608992.000000, 1104.000000, 8157.000000, 8210.000000, 8198.000000
2179, 5609152.000000, 1065.000000, 8158.000000, 8213.000000, 8202.000000
2180, 5609312.000000, 1048.000000, 8158.000000, 8214.000000, 8201.000000
2181, 5609472.000000, 1085.000000, 8156.000000, 8218.000000, 8205.000000
2182, 5609632.000000, 1271.500000, 8157.000000, 8219.000000, 8205.000000
2183, 5609792.000000, 1616.000000, 8156.000000, 8221.000000, 8206.000000
2184, 5609952.000000, 2075.000000, 8157.000000, 8224.000000, 8210.000000
2185, 5610112.000000, 2504.000000, 8158.000000, 8229.000000, 8214.000000
2186, 5610272.000000, 2800.500000, 8159.000000, 8231.000000, 8218.000000
2187, 5610432.000000, 2933.000000, 8164.000000, 8237.000000, 8228.000000
2188, 5610592.000000, 2927.500000, 8168.000000, 8245.000000, 8244.000000
2189, 5610752.000000, 2849.000000, 8170.000000, 8246.000000, 8246.000000
2190, 5610912.000000, 2716.000000, 8190.000000, 8255.000000, 8261.000000
2191, 5611072.000000, 2547.000000, 8167.000000, 8242.000000, 8229.000000
2192, 5611232.000000, 2356.000000, 8158.000000, 8239.000000, 8220.000000
2193, 5611392.000000, 2187.000000, 8157.000000, 8239.000000, 8219.000000
2194, 5611552.000000, 2071.000000, 8159.000000, 8243.000000, 8224.000000
2195, 5611712.000000, 2018.000000, 8192.000000, 8280.000000, 8271.000000
2196, 5611872.000000, 2004.000000, 8441.000000, 8216.000000, 8353.000000
2197, 5612032.000000, 2000.000000, 8140.000000, 8142.000000, 8160.000000
2198, 5612192.000000, 1974.000000, 8146.000000, 8240.000000, 8219.000000
2199, 5612352.000000, 1915.000000, 8146.000000, 8255.000000, 8228.000000
2200, 5612512.000000, 1824.000000, 8149.000000, 8262.000000, 8235.000000
2201, 5612672.000000, 1718.000000, 8155.000000, 8264.000000, 8241.000000
2202, 5612832.000000, 1612.000000, 8164.000000, 8266.000000, 8245.000000
2203, 5612992.000000, 1513.000000, 8170.000000, 8267.000000, 8250.000000
2204, 5613152.000000, 1429.500000, 8181.000000, 8270.000000, 8256.000000
2205, 5613312.000000, 1360.000000, 8195.000000, 8272.000000, 8263.000000
2206, 5613472.000000, 1305.000000, 8217.000000, 8271.000000, 8269.000000
2207, 5613632.000000, 1268.000000, 8232.000000, 8275.000000, 8279.000000
2208, 5613792.000000, 1242.000000, 8246.000000, 8277.000000, 8288.000000
2209, 5613952.000000, 1227.000000, 8231.000000, 8277.000000, 8286.000000
2210, 5614112.000000, 1219.500000, 8194.000000, 8277.000000, 8274.000000
2211, 5614272.000000, 1213.000000, 8155.000000, 8264.000000, 8245.000000
2212, 5614432.000000, 1207.500000, 8136.000000, 8257.000000, 8229.000000
2213, 5614592.000000, 1195.000000, 8131.000000, 8252.000000, 8221.000000
2214, 5614752.000000, 1175.500000, 8134.000000, 8251.000000, 8222.000000
2215, 5614912.000000, 1149.000000, 8138.000000, 8249.000000, 8222.000000
2216, 5615072.000000, 1112.000000, 8136.000000, 8246.000000, 8218.000000
2217, 5615232.000000, 1072.000000, 8135.000000, 8243.000000, 8214.000000
2218, 5615392.000000, 1034.500000, 8137.000000, 8240.000000, 8209.000000
2219, 5615552.000000, 1006.000000, 8135.000000, 8238.000000, 8207.000000
2220, 5615712.000000, 1024.500000, 8133.000000, 8235.000000, 8203.000000
2221, 5615872.000000, 1143.000000, 8132.000000, 8234.000000, 8201.000000
2222, 5616032.000000, 1441.000000, 8133.000000, 8232.000000, 8200.000000
2223, 5616192.000000, 1866.000000, 8135.000000, 8231.000000, 8200.000000
2224, 5616352.000000, 2308.500000, 8139.000000, 8230.000000, 8198.000000
2225, 5616512.000000, 2643.000000, 8139.000000, 8231.000000, 8201.000000
2226, 5616672.000000, 2821.000000, 8143.000000, 8233.000000, 8208.000000
2227, 5616832.000000, 2852.000000, 8151.000000, 8234.000000, 8216.000000
2228, 5616992.000000, 2783.500000, 8154.000000, 8236.000000, 8222.000000
2229, 5617152.000000, 2662.000000, 8171.000000, 8235.000000, 8224.000000
2230, 5617312.000000, 2494.500000, 8151.000000, 8218.000000, 8190.000000
2231, 5617472.000000, 2304.000000, 8144.000000, 8208.000000, 8175.000000
2232, 5617632.000000, 2126.000000, 8142.000000, 8205.000000, 8173.000000
2233, 5617792.000000, 2002.000000, 8145.000000, 8203.000000, 8175.000000
2234, 5617952.000000, 1943.000000, 8205.000000, 8244.000000, 8236.000000
2235, 5618112.000000, 1932.000000, 8364.000000, 8185.000000, 8289.000000
2236, 5618272.000000, 1938.000000, 8113.000000, 8108.000000, 8108.000000
2237, 5618432.000000, 1927.000000, 8131.000000, 8192.000000, 8161.000000
2238, 5618592.000000, 1879.500000, 8137.000000, 8205.000000, 8172.000000
2239, 5618752.000000, 1800.000000, 8149.000000, 8207.000000, 8178.000000
2240, 5618912.000000, 1701.500000, 8157.000000, 8212.000000, 8186.000000
2241, 5619072.000000, 1600.000000, 8163.000000, 8195.000000, 8173.000000
2242, 5619232.000000, 1499.500000, 8172.000000, 8197.000000, 8177.000000
2243, 5619392.000000, 1415.000000, 8185.000000, 8200.000000, 8185.000000
2244, 5619552.000000, 1345.500000, 8203.000000, 8200.000000, 8193.000000
2245, 5619712.000000, 1295.000000, 8226.000000, 8202.000000, 8202.000000
2246, 5619872.000000, 1259.000000, 8246.000000, 8203.000000, 8212.000000
2247, 5620032.000000, 1235.000000, 8250.000000, 8205.000000, 8217.000000
2248, 5620192.000000, 1218.500000, 8241.000000, 8207.000000, 8221.000000
2249, 5620352.000000, 1208.000000, 8203.000000, 8212.000000, 8214.000000
2250, 5620512.000000, 1202.000000, 8164.000000, 8208.000000, 8197.000000
2251, 5620672.000000, 1197.000000, 8144.000000, 8200.000000, 8183.000000
2252, 5620832.000000, 1186.000000, 8141.000000, 8198.000000, 8179.000000
2253, 5620992.000000, 1170.000000, 8147.000000, 8197.000000, 8180.000000
2254, 5621152.000000, 1144.500000, 8149.000000, 8196.000000, 8181.000000
2255, 5621312.000000, 1114.000000, 8152.000000, 8193.000000, 8180.000000
2256, 5621472.000000, 1075.500000, 8151.000000, 8192.000000, 8178.000000
2257, 5621632.000000, 1033.000000, 8152.000000, 8189.000000, 8174.000000
2258, 5621792.000000, 996.500000, 8151.000000, 8187.000000, 8173.000000
2259, 5621952.000000, 992.000000, 8151.000000, 8186.000000, 8170.000000
2260, 5622112.000000, 1093.000000, 8149.000000, 8186.000000, 8171.000000
2261, 5622272.000000, 1347.000000, 8157.000000, 8185.000000, 8171.000000
2262, 5622432.000000, 1764.500000, 8153.000000, 8182.000000, 8169.000000
2263, 5622592.000000, 2210.000000, 8158.000000, 8178.000000, 8165.000000
2264, 5622752.000000, 2566.500000, 8163.000000, 8181.000000, 8179.000000
2265, 5622912.000000, 2763.000000, 8169.000000, 8179.000000, 8181.000000
2266, 5623072.000000, 2807.000000, 8178.000000, 8184.000000, 8192.000000
2267, 5623232.000000, 2749.000000, 8186.000000, 8178.000000, 8183.000000
2268, 5623392.000000, 2625.500000, 8169.000000, 8168.000000, 8156.000000
2269, 5623552.000000, 2461.000000, 8164.000000, 8161.000000, 8146.000000
2270, 5623712.000000, 2268.000000, 8164.000000, 8154.000000, 8137.000000
2271, 5623872.000000, 2086.000000, 8159.000000, 8154.000000, 8137.000000
2272, 5624032.000000, 1961.500000, 8288.000000, 8190.000000, 8225.000000
2273, 5624192.000000, 1910.000000, 8283.000000, 8139.000000, 8225.000000
2274, 5624352.000000, 1913.500000, 8122.000000, 8071.000000, 8071.000000
2275, 5624512.000000, 1933.000000, 8157.000000, 8158.000000, 8142.000000
2276, 5624672.000000, 1931.000000, 8168.000000, 8168.000000, 8155.000000
2277, 5624832.000000, 1896.000000, 8175.000000, 8172.000000, 8164.000000
2278, 5624992.000000, 1822.000000, 8183.000000, 8176.000000, 8171.000000
2279, 5625152.000000, 1728.000000, 8193.000000, 8178.000000, 8180.000000
2280, 5625312.000000, 1626.000000, 8204.000000, 8179.000000, 8184.000000
2281, 5625472.000000, 1529.000000, 8217.000000, 8180.000000, 8190.000000
2282, 5625632.000000, 1443.000000, 8239.000000, 8180.000000, 8196.000000
2283, 5625792.000000, 1371.000000, 8262.000000, 8179.000000, 8205.000000
2284, 5625952.000000, 1316.500000, 8286.000000, 8178.000000, 8212.000000
2285, 5626112.000000, 1278.000000, 8286.000000, 8180.000000, 8218.000000
2286, 5626272.000000, 1256.500000, 8269.000000, 8187.000000, 8221.000000
2287, 5626432.000000, 1248.000000, 8225.000000, 8184.000000, 8207.000000
2288, 5626592.000000, 1250.000000, 8189.000000, 8179.000000, 8188.000000
2289, 5626752.000000, 1256.000000, 8178.000000, 8176.000000, 8180.000000
2290, 5626912.000000, 1259.000000, 8172.000000, 8176.000000, 8178.000000
2291, 5627072.000000, 1253.000000, 8177.000000, 8175.000000, 8178.000000
2292, 5627232.000000, 1234.000000, 8179.000000, 8174.000000, 8178.000000
2293, 5627392.000000, 1203.000000, 8185.000000, 8172.000000, 8178.000000
2294, 5627552.000000, 1158.500000, 8184.000000, 8171.000000, 8175.000000
2295, 5627712.000000, 1114.000000, 8185.000000, 8170.000000, 8178.000000
2296, 5627872.000000, 1072.500000, 8186.000000, 8169.000000, 8174.000000
2297, 5628032.000000, 1066.000000, 8188.000000, 8168.000000, 8174.000000
2298, 5628192.000000, 1155.000000, 8186.000000, 8166.000000, 8171.000000
2299, 5628352.000000, 1410.000000, 8191.000000, 8166.000000, 8172.000000
2300, 5628512.000000, 1826.500000, 8196.000000, 8172.000000, 8184.000000
2301, 5628672.000000, 2287.000000, 8201.000000, 8178.000000, 8195.000000
2302, 5628832.000000, 2651.000000, 8205.000000, 8178.000000, 8202.000000
2303, 5628992.000000, 2862.000000, 8215.000000, 8173.000000, 8199.000000
2304, 5629152.000000, 2917.500000, 8195.000000, 8160.000000, 8167.000000
2305, 5629312.000000, 2870.000000, 8193.000000, 8155.000000, 8157.000000
2306, 5629472.000000, 2760.000000, 8195.000000, 8154.000000, 8155.000000
2307, 5629632.000000, 2600.000000, 8191.000000, 8156.000000, 8156.000000
2308, 5629792.000000, 2402.500000, 8262.000000, 8192.000000, 8216.000000
2309, 5629952.000000, 2211.000000, 8399.000000, 8135.000000, 8258.000000
2310, 5630112.000000, 2079.500000, 8157.000000, 8058.000000, 8078.000000
2311, 5630272.000000, 2023.000000, 8187.000000, 8149.000000, 8145.000000
2312, 5630432.000000, 2026.500000, 8195.000000, 8162.000000, 8159.000000
2313, 5630592.000000, 2044.000000, 8203.000000, 8165.000000, 8167.000000
2314, 5630752.000000, 2044.500000, 8207.000000, 8169.000000, 8174.000000
2315, 5630912.000000, 2009.000000, 8215.000000, 8172.000000, 8180.000000
2316, 5631072.000000, 1940.500000, 8226.000000, 8174.000000, 8184.000000
2317, 5631232.000000, 1850.000000, 8237.000000, 8173.000000, 8188.000000
2318, 5631392.000000, 1750.500000, 8254.000000, 8173.000000, 8193.000000
2319, 5631552.000000, 1656.000000, 8277.000000, 8176.000000, 8204.000000
2320, 5631712.000000, 1570.000000, 8298.000000, 8179.000000, 8215.000000
2321, 5631872.000000, 1496.000000, 8304.000000, 8179.000000, 8219.000000
2322, 5632032.000000, 1439.500000, 8287.000000, 8181.000000, 8221.000000
2323, 5632192.000000, 1401.000000, 8239.000000, 8182.000000, 8208.000000
2324, 5632352.000000, 1384.500000, 8205.000000, 8177.000000, 8189.000000
2325, 5632512.000000, 1381.000000, 8185.000000, 8171.000000, 8175.000000
2326, 5632672.000000, 1381.000000, 8181.000000, 8169.000000, 8171.000000
2327, 5632832.000000, 1376.000000, 8184.000000, 8169.000000, 8171.000000
2328, 5632992.000000, 1357.000000, 8185.000000, 8167.000000, 8171.000000
2329, 5633152.000000, 1325.000000, 8190.000000, 8168.000000, 8172.000000
2330, 5633312.000000, 1285.500000, 8189.000000, 8168.000000, 8171.000000
2331, 5633472.000000, 1244.000000, 8188.000000, 8166.000000, 8168.000000
2332, 5633632.000000, 1205.000000, 8186.000000, 8167.000000, 8166.000000
2333, 5633792.000000, 1188.000000, 8188.000000, 8164.000000, 8166.000000
2334, 5633952.000000, 1258.500000, 8186.000000, 8165.000000, 8164.000000
2335, 5634112.000000, 1476.000000, 8189.000000, 8167.000000, 8168.000000
2336, 5634272.000000, 1864.000000, 8190.000000, 8168.000000, 8168.000000
2337, 5634432.000000, 2321.000000, 8194.000000, 8173.000000, 8181.000000
2338, 5634592.000000, 2718.500000, 8199.000000, 8178.000000, 8188.000000
2339, 5634752.000000, 2969.000000, 8205.000000, 8183.000000, 8201.000000
2340, 5634912.000000, 3053.500000, 8213.000000, 8178.000000, 8189.000000
2341, 5635072.000000, 3032.000000, 8194.000000, 8167.000000, 8160.000000
2342, 5635232.000000, 2938.500000, 8188.000000, 8161.000000, 8150.000000
2343, 5635392.000000, 2798.000000, 8192.000000, 8161.000000, 8154.000000
2344, 5635552.000000, 2611.000000, 8189.000000, 8166.000000, 8155.000000
2345, 5635712.000000, 2413.000000, 8338.000000, 8210.000000, 8264.000000
2346, 5635872.000000, 2250.500000, 8301.000000, 8130.000000, 8222.000000
2347, 5636032.000000, 2157.000000, 8155.000000, 8082.000000, 8082.000000
2348, 5636192.000000, 2132.000000, 8180.000000, 8164.000000, 8149.000000
2349, 5636352.000000, 2135.000000, 8186.000000, 8174.000000, 8161.000000
2350, 5636512.000000, 2126.500000, 8193.000000, 8179.000000, 8169.000000
2351, 5636672.000000, 2090.000000, 8200.000000, 8180.000000, 8173.000000
2352, 5636832.000000, 2017.500000, 8209.000000, 8180.000000, 8177.000000
2353, 5636992.000000, 1921.000000, 8217.000000, 8183.000000, 8183.000000
2354, 5637152.000000, 1816.500000, 8232.000000, 8186.000000, 8190.000000
2355, 5637312.000000, 1714.000000, 8245.000000, 8187.000000, 8197.000000
2356, 5637472.000000, 1624.500000, 8271.000000, 8190.000000, 8208.000000
2357, 5637632.000000, 1545.000000, 8286.000000, 8191.000000, 8215.000000
2358, 5637792.000000, 1481.500000, 8290.000000, 8192.000000, 8220.000000
2359, 5637952.000000, 1434.000000, 8263.000000, 8196.000000, 8220.000000
2360, 5638112.000000, 1408.500000, 8220.000000, 8192.000000, 8202.000000
2361, 5638272.000000, 1401.000000, 8189.000000, 8186.000000, 8185.000000
2362, 5638432.000000, 1403.500000, 8174.000000, 8179.000000, 8170.000000
2363, 5638592.000000, 1402.000000, 8172.000000, 8177.000000, 8167.000000
2364, 5638752.000000, 1388.000000, 8174.000000, 8177.000000, 8170.000000
2365, 5638912.000000, 1361.000000, 8176.000000, 8179.000000, 8172.000000
2366, 5639072.000000, 1322.000000, 8176.000000, 8179.000000, 8172.000000
2367, 5639232.000000, 1276.000000, 8179.000000, 8177.000000, 8170.000000
2368, 5639392.000000, 1228.000000, 8176.000000, 8177.000000, 8170.000000
2369, 5639552.000000, 1190.000000, 8174.000000, 8176.000000, 8167.000000
2370, 5639712.000000, 1200.500000, 8175.000000, 8175.000000, 8167.000000
2371, 5639872.000000, 1333.000000, 8178.000000, 8176.000000, 8168.000000
2372, 5640032.000000, 1661.000000, 8176.000000, 8175.000000, 8166.000000
2373, 5640192.000000, 2128.000000, 8174.000000, 8176.000000, 8165.000000
2374, 5640352.000000, 2609.500000, 8177.000000, 8177.000000, 8170.000000
2375, 5640512.000000, 2979.000000, 8186.000000, 8185.000000, 8190.000000
2376, 5640672.000000, 3166.500000, 8187.000000, 8188.000000, 8192.000000
2377, 5640832.000000, 3200.000000, 8204.000000, 8194.000000, 8207.000000
2378, 5640992.000000, 3137.500000, 8187.000000, 8180.000000, 8172.000000
2379, 5641152.000000, 3030.000000, 8173.000000, 8173.000000, 8156.000000
2380, 5641312.000000, 2879.000000, 8173.000000, 8172.000000, 8153.000000
2381, 5641472.000000, 2693.000000, 8174.000000, 8171.000000, 8154.000000
2382, 5641632.000000, 2497.500000, 8177.000000, 8193.000000, 8174.000000
2383, 5641792.000000, 2337.000000, 8503.000000, 8165.000000, 8309.000000
2384, 5641952.000000, 2243.000000, 8167.000000, 8061.000000, 8095.000000
2385, 5642112.000000, 2203.000000, 8159.000000, 8154.000000, 8141.000000
2386, 5642272.000000, 2185.000000, 8167.000000, 8181.000000, 8158.000000
2387, 5642432.000000, 2153.000000, 8170.000000, 8187.000000, 8164.000000
2388, 5642592.000000, 2089.500000, 8177.000000, 8188.000000, 8171.000000
2389, 5642752.000000, 1998.000000, 8185.000000, 8191.000000, 8178.000000
2390, 5642912.000000, 1887.000000, 8193.000000, 8192.000000, 8182.000000
2391, 5643072.000000, 1775.000000, 8205.000000, 8194.000000, 8190.000000
2392, 5643232.000000, 1670.000000, 8220.000000, 8196.000000, 8196.000000
2393, 5643392.000000, 1579.000000, 8242.000000, 8198.000000, 8206.000000
2394, 5643552.000000, 1499.500000, 8265.000000, 8202.000000, 8220.000000
2395, 5643712.000000, 1435.000000, 8275.000000, 8204.000000, 8228.000000
2396, 5643872.000000, 1387.000000, 8269.000000, 8205.000000, 8231.000000
2397, 5644032.000000, 1354.000000, 8231.000000, 8204.000000, 8219.000000
2398, 5644192.000000, 1340.000000, 8190.000000, 8198.000000, 8198.000000
2399, 5644352.000000, 1338.000000, 8167.000000, 8191.000000, 8182.000000
2400, 5644512.000000, 1340.000000, 8162.000000, 8189.000000, 8178.000000
2401, 5644672.000000, 1333.000000, 8164.000000, 8189.000000, 8178.000000
2402, 5644832.000000, 1310.000000, 8168.000000, 8191.000000, 8184.000000
2403, 5644992.000000, 1277.000000, 8169.000000, 8191.000000, 8183.000000
2404, 5645152.000000, 1235.000000, 8169.000000, 8192.000000, 8184.000000
2405, 5645312.000000, 1190.000000, 8172.000000, 8192.000000, 8186.000000
2406, 5645472.000000, 1147.500000, 8170.000000, 8192.000000, 8185.000000
2407, 5645632.000000, 1125.000000, 8170.000000, 8192.000000, 8185.000000
2408, 5645792.000000, 1178.500000, 8170.000000, 8192.000000, 8185.000000
2409, 5645952.000000, 1394.000000, 8173.000000, 8194.000000, 8189.000000
2410, 5646112.000000, 1888.000000, 8173.000000, 8196.000000, 8191.000000
2411, 5646272.000000, 2486.000000, 8173.000000, 8197.000000, 8192.000000
2412, 5646432.000000, 2878.000000, 8175.000000, 8198.000000, 8196.000000
2413, 5646592.000000, 3127.000000, 8182.000000, 8207.000000, 8215.000000
2414, 5646752.000000, 3143.500000, 8181.000000, 8208.000000, 8216.000000
2415, 5646912.000000, 3020.000000, 8201.000000, 8214.000000, 8231.000000
2416, 5647072.000000, 2872.000000, 8182.000000, 8202.000000, 8199.000000
2417, 5647232.000000, 2683.000000, 8172.000000, 8195.000000, 8185.000000
2418, 5647392.000000, 2493.000000, 8172.000000, 8192.000000, 8182.000000
2419, 5647552.000000, 2332.000000, 8174.000000, 8194.000000, 8185.000000
2420, 5647712.000000, 2229.500000, 8193.000000, 8223.000000, 8221.000000
2421, 5647872.000000, 2179.000000, 8506.000000, 8172.000000, 8336.000000
2422, 5648032.000000, 2153.000000, 8170.000000, 8076.000000, 8114.000000
2423, 5648192.000000, 2119.000000, 8169.000000, 8187.000000, 8185.000000
2424, 5648352.000000, 2058.000000, 8170.000000, 8209.000000, 8198.000000
2425, 5648512.000000, 1968.000000, 8177.000000, 8212.000000, 8207.000000
2426, 5648672.000000, 1861.500000, 8186.000000, 8217.000000, 8216.000000
2427, 5648832.000000, 1749.000000, 8191.000000, 8220.000000, 8222.000000
2428, 5648992.000000, 1649.000000, 8200.000000, 8224.000000, 8230.000000
2429, 5649152.000000, 1562.000000, 8212.000000, 8226.000000, 8236.000000
2430, 5649312.000000, 1488.500000, 8229.000000, 8230.000000, 8246.000000
2431, 5649472.000000, 1432.000000, 8250.000000, 8233.000000, 8257.000000
2432, 5649632.000000, 1389.500000, 8272.000000, 8237.000000, 8271.000000
2433, 5649792.000000, 1362.000000, 8282.000000, 8239.000000, 8278.000000
2434, 5649952.000000, 1343.500000, 8272.000000, 8241.000000, 8281.000000
2435, 5650112.000000, 1335.000000, 8233.000000, 8240.000000, 8268.000000
2436, 5650272.000000, 1329.500000, 8196.000000, 8232.000000, 8246.000000
2437, 5650432.000000, 1319.000000, 8175.000000, 8224.000000, 8228.000000
2438, 5650592.000000, 1301.500000, 8169.000000, 8220.000000, 8222.000000
2439, 5650752.000000, 1274.000000, 8171.000000, 8219.000000, 8222.000000
2440, 5650912.000000, 1235.500000, 8175.000000, 8221.000000, 8227.000000
2441, 5651072.000000, 1191.000000, 8177.000000, 8218.000000, 8225.000000
2442, 5651232.000000, 1145.000000, 8177.000000, 8218.000000, 8225.000000
2443, 5651392.000000, 1106.000000, 8176.000000, 8215.000000, 8221.000000
2444, 5651552.000000, 1118.500000, 8177.000000, 8213.000000, 8218.000000
2445, 5651712.000000, 1244.000000, 8177.000000, 8213.000000, 8220.000000
2446, 5651872.000000, 1569.000000, 8178.000000, 8211.000000, 8217.000000
2447, 5652032.000000, 2028.000000, 8178.000000, 8211.000000, 8217.000000
2448, 5652192.000000, 2508.500000, 8178.000000, 8209.000000, 8215.000000
2449, 5652352.000000, 2873.000000, 8178.000000, 8209.000000, 8215.000000
2450, 5652512.000000, 3066.500000, 8182.000000, 8210.000000, 8220.000000
2451, 5652672.000000, 3110.000000, 8190.000000, 8218.000000, 8238.000000
2452, 5652832.000000, 3052.500000, 8191.000000, 8219.000000, 8241.000000
2453, 5652992.000000, 2954.000000, 8212.000000, 8225.000000, 8257.000000
2454, 5653152.000000, 2817.000000, 8197.000000, 8212.000000, 8226.000000
2455, 5653312.000000, 2649.000000, 8184.000000, 8204.000000, 8208.000000
2456, 5653472.000000, 2464.000000, 8183.000000, 8206.000000, 8207.000000
2457, 5653632.000000, 2309.000000, 8186.000000, 8206.000000, 8209.000000
2458, 5653792.000000, 2209.000000, 8182.000000, 8223.000000, 8220.000000
2459, 5653952.000000, 2160.000000, 8512.000000, 8220.000000, 8378.000000
2460, 5654112.000000, 2135.000000, 8223.000000, 8106.000000, 8184.000000
2461, 5654272.000000, 2104.000000, 8181.000000, 8193.000000, 8207.000000
2462, 5654432.000000, 2041.500000, 8188.000000, 8227.000000, 8224.000000
2463, 5654592.000000, 1953.000000, 8191.000000, 8234.000000, 8231.000000
2464, 5654752.000000, 1845.500000, 8200.000000, 8240.000000, 8242.000000
2465, 5654912.000000, 1735.000000, 8210.000000, 8247.000000, 8252.000000
2466, 5655072.000000, 1630.500000, 8218.000000, 8254.000000, 8262.000000
2467, 5655232.000000, 1540.000000, 8230.000000, 8257.000000, 8269.000000
2468, 5655392.000000, 1465.500000, 8245.000000, 8265.000000, 8281.000000
2469, 5655552.000000, 1406.000000, 8268.000000, 8270.000000, 8292.000000
2470, 5655712.000000, 1362.500000, 8292.000000, 8277.000000, 8309.000000
2471, 5655872.000000, 1332.000000, 8306.000000, 8284.000000, 8321.000000
2472, 5656032.000000, 1311.000000, 8305.000000, 8289.000000, 8329.000000
2473, 5656192.000000, 1301.000000, 8272.000000, 8291.000000, 8321.000000
2474, 5656352.000000, 1294.000000, 8229.000000, 8286.000000, 8300.000000
2475, 5656512.000000, 1285.000000, 8206.000000, 8281.000000, 8285.000000
2476, 5656672.000000, 1266.000000, 8200.000000, 8280.000000, 8282.000000
2477, 5656832.000000, 1236.000000, 8204.000000, 8284.000000, 8287.000000
2478, 5656992.000000, 1197.500000, 8207.000000, 8286.000000, 8289.000000
2479, 5657152.000000, 1155.000000, 8210.000000, 8290.000000, 8293.000000
2480, 5657312.000000, 1115.500000, 8214.000000, 8294.000000, 8296.000000
2481, 5657472.000000, 1080.000000, 8216.000000, 8299.000000, 8302.000000
2482, 5657632.000000, 1068.500000, 8217.000000, 8298.000000, 8298.000000
2483, 5657792.000000, 1140.000000, 8218.000000, 8296.000000, 8296.000000
2484, 5657952.000000, 1382.000000, 8215.000000, 8296.000000, 8291.000000
2485, 5658112.000000, 1781.000000, 8215.000000, 8297.000000, 8290.000000
2486, 5658272.000000, 2257.500000, 8219.000000, 8297.000000, 8292.000000
2487, 5658432.000000, 2670.000000, 8220.000000, 8295.000000, 8287.000000
2488, 5658592.000000, 2923.500000, 8220.000000, 8293.000000, 8283.000000
2489, 5658752.000000, 3014.000000, 8224.000000, 8300.000000, 8295.000000
2490, 5658912.000000, 2987.500000, 8227.000000, 8303.000000, 8303.000000
2491, 5659072.000000, 2896.000000, 8230.000000, 8301.000000, 8303.000000
2492, 5659232.000000, 2760.000000, 8238.000000, 8298.000000, 8294.000000
2493, 5659392.000000, 2589.000000, 8215.000000, 8277.000000, 8254.000000
2494, 5659552.000000, 2397.000000, 8207.000000, 8272.000000, 8243.000000
2495, 5659712.000000, 2225.000000, 8206.000000, 8268.000000, 8237.000000
2496, 5659872.000000, 2110.500000, 8203.000000, 8269.000000, 8234.000000
2497, 5660032.000000, 2055.000000, 8312.000000, 8307.000000, 8314.000000
2498, 5660192.000000, 2031.500000, 8393.000000, 8222.000000, 8325.000000
2499, 5660352.000000, 2011.000000, 8171.000000, 8174.000000, 8155.000000
2500, 5660512.000000, 1967.500000, 8181.000000, 8255.000000, 8209.000000
2501, 5660672.000000, 1896.000000, 8181.000000, 8260.000000, 8212.000000
2502, 5660832.000000, 1798.000000, 8183.000000, 8258.000000, 8211.000000
2503, 5660992.000000, 1689.000000, 8187.000000, 8254.000000, 8208.000000
2504, 5661152.000000, 1584.000000, 8191.000000, 8253.000000, 8210.000000
2505, 5661312.000000, 1490.000000, 8200.000000, 8252.000000, 8211.000000
2506, 5661472.000000, 1412.500000, 8210.000000, 8250.000000, 8215.000000
2507, 5661632.000000, 1354.000000, 8223.000000, 8248.000000, 8216.000000
2508, 5661792.000000, 1312.500000, 8242.000000, 8246.000000, 8219.000000
2509, 5661952.000000, 1283.000000, 8257.000000, 8244.000000, 8223.000000
2510, 5662112.000000, 1264.500000, 8260.000000, 8242.000000, 8225.000000
2511, 5662272.000000, 1254.000000, 8239.000000, 8242.000000, 8223.000000
2512, 5662432.000000, 1249.500000, 8193.000000, 8236.000000, 8202.000000
2513, 5662592.000000, 1245.000000, 8154.000000, 8221.000000, 8171.000000
2514, 5662752.000000, 1231.000000, 8134.000000, 8212.000000, 8155.000000
2515, 5662912.000000, 1208.000000, 8130.000000, 8205.000000, 8149.000000
2516, 5663072.000000, 1178.000000, 8129.000000, 8203.000000, 8148.000000
2517, 5663232.000000, 1140.000000, 8131.000000, 8196.000000, 8143.000000
2518, 5663392.000000, 1100.000000, 8128.000000, 8191.000000, 8138.000000
2519, 5663552.000000, 1061.000000, 8125.000000, 8186.000000, 8133.000000
2520, 5663712.000000, 1029.500000, 8121.000000, 8182.000000, 8130.000000
2521, 5663872.000000, 1040.000000, 8123.000000, 8180.000000, 8131.000000
2522, 5664032.000000, 1158.500000, 8119.000000, 8175.000000, 8124.000000
2523, 5664192.000000, 1440.000000, 8120.000000, 8173.000000, 8124.000000
2524, 5664352.000000, 1866.500000, 8119.000000, 8169.000000, 8120.000000
2525, 5664512.000000, 2317.000000, 8121.000000, 8170.000000, 8124.000000
2526, 5664672.000000, 2658.000000, 8121.000000, 8167.000000, 8123.000000
2527, 5664832.000000, 2847.000000, 8123.000000, 8167.000000, 8126.000000
2528, 5664992.000000, 2881.500000, 8131.000000, 8172.000000, 8143.000000
2529, 5665152.000000, 2823.000000, 8130.000000, 8171.000000, 8143.000000
2530, 5665312.000000, 2707.000000, 8156.000000, 8180.000000, 8167.000000
2531, 5665472.000000, 2551.000000, 8140.000000, 8166.000000, 8137.000000
2532, 5665632.000000, 2367.500000, 8127.000000, 8159.000000, 8121.000000
2533, 5665792.000000, 2188.000000, 8128.000000, 8156.000000, 8119.000000
2534, 5665952.000000, 2058.500000, 8129.000000, 8155.000000, 8122.000000
2535, 5666112.000000, 1989.000000, 8123.000000, 8172.000000, 8135.000000
2536, 5666272.000000, 1974.500000, 8450.000000, 8165.000000, 8294.000000
2537, 5666432.000000, 1973.000000, 8161.000000, 8063.000000, 8121.000000
2538, 5666592.000000, 1957.000000, 8114.000000, 8130.000000, 8123.000000
2539, 5666752.000000, 1910.000000, 8120.000000, 8160.000000, 8139.000000
2540, 5666912.000000, 1831.000000, 8123.000000, 8167.000000, 8148.000000
2541, 5667072.000000, 1732.000000, 8133.000000, 8171.000000, 8159.000000
2542, 5667232.000000, 1626.500000, 8143.000000, 8174.000000, 8167.000000
2543, 5667392.000000, 1527.000000, 8156.000000, 8174.000000, 8173.000000
2544, 5667552.000000, 1441.500000, 8169.000000, 8177.000000, 8181.000000
2545, 5667712.000000, 1372.000000, 8189.000000, 8180.000000, 8193.000000
2546, 5667872.000000, 1320.000000, 8214.000000, 8185.000000, 8207.000000
2547, 5668032.000000, 1281.000000, 8242.000000, 8190.000000, 8224.000000
2548, 5668192.000000, 1255.000000, 8260.000000, 8192.000000, 8234.000000
2549, 5668352.000000, 1240.000000, 8260.000000, 8196.000000, 8242.000000
2550, 5668512.000000, 1232.000000, 8232.000000, 8200.000000, 8240.000000
2551, 5668672.000000, 1229.000000, 8190.000000, 8196.000000, 8220.000000
2552, 5668832.000000, 1226.500000, 8167.000000, 8189.000000, 8203.000000
2553, 5668992.000000, 1217.000000, 8163.000000, 8186.000000, 8198.000000
2554, 5669152.000000, 1197.500000, 8166.000000, 8188.000000, 8200.000000
2555, 5669312.000000, 1167.000000, 8175.000000, 8188.000000, 8204.000000
2556, 5669472.000000, 1132.500000, 8182.000000, 8190.000000, 8208.000000
2557, 5669632.000000, 1097.000000, 8188.000000, 8190.000000, 8212.000000
2558, 5669792.000000, 1065.000000, 8189.000000, 8188.000000, 8209.000000
2559, 5669952.000000, 1042.000000, 8191.000000, 8189.000000, 8211.000000
2560, 5670112.000000, 1070.000000, 8192.000000, 8188.000000, 8209.000000
2561, 5670272.000000, 1226.000000, 8190.000000, 8188.000000, 8206.000000
2562, 5670432.000000, 1546.000000, 8193.000000, 8190.000000, 8208.000000
2563, 5670592.000000, 1984.000000, 8196.000000, 8188.000000, 8206.000000
2564, 5670752.000000, 2408.500000, 8196.000000, 8188.000000, 8208.000000
2565, 5670912.000000, 2720.000000, 8196.000000, 8189.000000, 8209.000000
2566, 5671072.000000, 2860.500000, 8205.000000, 8196.000000, 8224.000000
2567, 5671232.000000, 2872.000000, 8206.000000, 8202.000000, 8234.000000
2568, 5671392.000000, 2792.500000, 8212.000000, 8202.000000, 8236.000000
2569, 5671552.000000, 2657.000000, 8227.000000, 8203.000000, 8237.000000
2570, 5671712.000000, 2483.000000, 8206.000000, 8190.000000, 8208.000000
2571, 5671872.000000, 2285.000000, 8205.000000, 8186.000000, 8198.000000
2572, 5672032.000000, 2114.500000, 8204.000000, 8186.000000, 8195.000000
2573, 5672192.000000, 2000.000000, 8205.000000, 8184.000000, 8192.000000
2574, 5672352.000000, 1953.500000, 8301.000000, 8222.000000, 8262.000000
2575, 5672512.000000, 1946.000000, 8406.000000, 8159.000000, 8303.000000
2576, 5672672.000000, 1947.000000, 8177.000000, 8094.000000, 8117.000000
2577, 5672832.000000, 1925.000000, 8196.000000, 8178.000000, 8174.000000
2578, 5672992.000000, 1869.500000, 8198.000000, 8185.000000, 8178.000000
2579, 5673152.000000, 1788.000000, 8207.000000, 8188.000000, 8187.000000
2580, 5673312.000000, 1691.000000, 8212.000000, 8190.000000, 8192.000000
2581, 5673472.000000, 1590.000000, 8222.000000, 8192.000000, 8199.000000
2582, 5673632.000000, 1496.500000, 8231.000000, 8197.000000, 8208.000000
2583, 5673792.000000, 1417.000000, 8241.000000, 8199.000000, 8213.000000
2584, 5673952.000000, 1352.500000, 8257.000000, 8200.000000, 8220.000000
2585, 5674112.000000, 1304.000000, 8280.000000, 8204.000000, 8232.000000
2586, 5674272.000000, 1270.000000, 8298.000000, 8209.000000, 8247.000000
2587, 5674432.000000, 1246.000000, 8303.000000, 8212.000000, 8251.000000
2588, 5674592.000000, 1235.000000, 8286.000000, 8218.000000, 8256.000000
2589, 5674752.000000, 1233.000000, 8240.000000, 8216.000000, 8237.000000
2590, 5674912.000000, 1233.000000, 8199.000000, 8209.000000, 8215.000000
2591, 5675072.000000, 1232.000000, 8182.000000, 8206.000000, 8203.000000
2592, 5675232.000000, 1218.500000, 8179.000000, 8205.000000, 8200.000000
2593, 5675392.000000, 1197.000000, 8174.000000, 8205.000000, 8198.000000
2594, 5675552.000000, 1163.500000, 8174.000000, 8205.000000, 8196.000000
2595, 5675712.000000, 1123.000000, 8170.000000, 8206.000000, 8193.000000
2596, 5675872.000000, 1079.500000, 8168.000000, 8205.000000, 8190.000000
2597, 5676032.000000, 1041.000000, 8163.000000, 8209.000000, 8193.000000
2598, 5676192.000000, 1023.500000, 8159.000000, 8205.000000, 8186.000000
2599, 5676352.000000, 1076.000000, 8157.000000, 8206.000000, 8186.000000
2600, 5676512.000000, 1277.500000, 8152.000000, 8205.000000, 8182.000000
2601, 5676672.000000, 1637.000000, 8144.000000, 8204.000000, 8181.000000
2602, 5676832.000000, 2079.000000, 8147.000000, 8204.000000, 8181.000000
2603, 5676992.000000, 2477.000000, 8145.000000, 8200.000000, 8178.000000
2604, 5677152.000000, 2730.500000, 8148.000000, 8204.000000, 8186.000000
2605, 5677312.000000, 2836.000000, 8144.000000, 8200.000000, 8187.000000
2606, 5677472.000000, 2811.000000, 8157.000000, 8206.000000, 8204.000000
2607, 5677632.000000, 2714.000000, 8157.000000, 8205.000000, 8195.000000
2608, 5677792.000000, 2563.000000, 8134.000000, 8194.000000, 8169.000000
2609, 5677952.000000, 2374.000000, 8126.000000, 8189.000000, 8160.000000
2610, 5678112.000000, 2180.000000, 8125.000000, 8187.000000, 8156.000000
2611, 5678272.000000, 2025.000000, 8119.000000, 8187.000000, 8154.000000
2612, 5678432.000000, 1939.500000, 8308.000000, 8226.000000, 8276.000000
2613, 5678592.000000, 1912.000000, 8186.000000, 8169.000000, 8232.000000
2614, 5678752.000000, 1915.500000, 8084.000000, 8115.000000, 8098.000000
2615, 5678912.000000, 1912.000000, 8106.000000, 8160.000000, 8124.000000
2616, 5679072.000000, 1880.000000, 8111.000000, 8169.000000, 8132.000000
2617, 5679232.000000, 1814.000000, 8113.000000, 8171.000000, 8136.000000
2618, 5679392.000000, 1722.000000, 8118.000000, 8173.000000, 8141.000000
2619, 5679552.000000, 1621.000000, 8126.000000, 8176.000000, 8145.000000
2620, 5679712.000000, 1523.000000, 8134.000000, 8174.000000, 8147.000000
2621, 5679872.000000, 1433.000000, 8149.000000, 8175.000000, 8152.000000
2622, 5680032.000000, 1358.500000, 8167.000000, 8170.000000, 8159.000000
2623, 5680192.000000, 1300.000000, 8191.000000, 8172.000000, 8167.000000
2624, 5680352.000000, 1257.000000, 8206.000000, 8172.000000, 8174.000000
2625, 5680512.000000, 1232.000000, 8209.000000, 8174.000000, 8182.000000
2626, 5680672.000000, 1222.500000, 8183.000000, 8178.000000, 8183.000000
2627, 5680832.000000, 1224.000000, 8139.000000, 8178.000000, 8168.000000
2628, 5680992.000000, 1227.500000, 8104.000000, 8173.000000, 8152.000000
2629, 5681152.000000, 1228.000000, 8087.000000, 8165.000000, 8140.000000
2630, 5681312.000000, 1219.500000, 8084.000000, 8162.000000, 8137.000000
2631, 5681472.000000, 1199.000000, 8091.000000, 8160.000000, 8138.000000
2632, 5681632.000000, 1166.500000, 8090.000000, 8158.000000, 8139.000000
2633, 5681792.000000, 1123.000000, 8089.000000, 8156.000000, 8139.000000
2634, 5681952.000000, 1080.500000, 8092.000000, 8154.000000, 8137.000000
2635, 5682112.000000, 1041.000000, 8090.000000, 8152.000000, 8135.000000
2636, 5682272.000000, 1021.500000, 8090.000000, 8150.000000, 8135.000000
2637, 5682432.000000, 1059.000000, 8091.000000, 8152.000000, 8134.000000
2638, 5682592.000000, 1246.500000, 8093.000000, 8145.000000, 8132.000000
2639, 5682752.000000, 1590.000000, 8094.000000, 8144.000000, 8130.000000
2640, 5682912.000000, 2035.500000, 8095.000000, 8143.000000, 8130.000000
2641, 5683072.000000, 2442.000000, 8109.000000, 8140.000000, 8136.000000
2642, 5683232.000000, 2714.500000, 8113.000000, 8137.000000, 8139.000000
2643, 5683392.000000, 2828.000000, 8130.000000, 8140.000000, 8156.000000
2644, 5683552.000000, 2811.500000, 8125.000000, 8124.000000, 8126.000000
2645, 5683712.000000, 2720.000000, 8111.000000, 8112.000000, 8101.000000
2646, 5683872.000000, 2566.500000, 8103.000000, 8116.000000, 8102.000000
2647, 5684032.000000, 2375.000000, 8105.000000, 8119.000000, 8106.000000
2648, 5684192.000000, 2172.500000, 8107.000000, 8130.000000, 8111.000000
2649, 5684352.000000, 2017.000000, 8369.000000, 8149.000000, 8254.000000
2650, 5684512.000000, 1937.500000, 8097.000000, 8078.000000, 8122.000000
2651, 5684672.000000, 1924.000000, 8081.000000, 8078.000000, 8071.000000
2652, 5684832.000000, 1941.500000, 8106.000000, 8130.000000, 8110.000000
2653, 5684992.000000, 1953.000000, 8102.000000, 8135.000000, 8116.000000
2654, 5685152.000000, 1927.500000, 8112.000000, 8139.000000, 8123.000000
2655, 5685312.000000, 1869.000000, 8124.000000, 8145.000000, 8133.000000
2656, 5685472.000000, 1781.000000, 8132.000000, 8146.000000, 8139.000000
2657, 5685632.000000, 1682.000000, 8143.000000, 8150.000000, 8143.000000
2658, 5685792.000000, 1585.000000, 8159.000000, 8151.000000, 8148.000000
2659, 5685952.000000, 1496.000000, 8177.000000, 8151.000000, 8154.000000
2660, 5686112.000000, 1420.500000, 8202.000000, 8153.000000, 8165.000000
2661, 5686272.000000, 1359.000000, 8224.000000, 8155.000000, 8175.000000
2662, 5686432.000000, 1316.500000, 8220.000000, 8159.000000, 8181.000000
2663, 5686592.000000, 1293.000000, 8188.000000, 8163.000000, 8179.000000
2664, 5686752.000000, 1289.500000, 8147.000000, 8164.000000, 8163.000000
2665, 5686912.000000, 1299.000000, 8118.000000, 8156.000000, 8144.000000
2666, 5687072.000000, 1308.500000, 8107.000000, 8158.000000, 8139.000000
2667, 5687232.000000, 1312.000000, 8111.000000, 8156.000000, 8141.000000
2668, 5687392.000000, 1300.000000, 8117.000000, 8157.000000, 8142.000000
2669, 5687552.000000, 1273.000000, 8122.000000, 8157.000000, 8144.000000
2670, 5687712.000000, 1234.500000, 8121.000000, 8155.000000, 8143.000000
2671, 5687872.000000, 1190.000000, 8122.000000, 8153.000000, 8142.000000
2672, 5688032.000000, 1149.500000, 8126.000000, 8155.000000, 8144.000000
2673, 5688192.000000, 1128.000000, 8125.000000, 8156.000000, 8143.000000
2674, 5688352.000000, 1181.000000, 8126.000000, 8150.000000, 8135.000000
2675, 5688512.000000, 1385.000000, 8127.000000, 8154.000000, 8138.000000
2676, 5688672.000000, 1769.000000, 8128.000000, 8154.000000, 8143.000000
2677, 5688832.000000, 2234.000000, 8142.000000, 8164.000000, 8160.000000
2678, 5688992.000000, 2634.000000, 8137.000000, 8165.000000, 8171.000000
2679, 5689152.000000, 2893.000000, 8157.000000, 8165.000000, 8177.000000
2680, 5689312.000000, 2987.000000, 8141.000000, 8151.000000, 8142.000000
2681, 5689472.000000, 2965.000000, 8133.000000, 8143.000000, 8129.000000
2682, 5689632.000000, 2871.000000, 8129.000000, 8138.000000, 8123.000000
2683, 5689792.000000, 2725.000000, 8129.000000, 8138.000000, 8123.000000
2684, 5689952.000000, 2530.500000, 8159.000000, 8169.000000, 8160.000000
2685, 5690112.000000, 2324.000000, 8435.000000, 8118.000000, 8253.000000
2686, 5690272.000000, 2162.500000, 8101.000000, 8037.000000, 8055.000000
2687, 5690432.000000, 2069.000000, 8123.000000, 8126.000000, 8113.000000
2688, 5690592.000000, 2047.000000, 8135.000000, 8145.000000, 8128.000000
2689, 5690752.000000, 2052.000000, 8143.000000, 8149.000000, 8134.000000
2690, 5690912.000000, 2045.000000, 8150.000000, 8155.000000, 8140.000000
2691, 5691072.000000, 2006.000000, 8162.000000, 8156.000000, 8149.000000
2692, 5691232.000000, 1932.500000, 8174.000000, 8160.000000, 8155.000000
2693, 5691392.000000, 1840.000000, 8190.000000, 8161.000000, 8161.000000
2694, 5691552.000000, 1737.500000, 8204.000000, 8158.000000, 8167.000000
2695, 5691712.000000, 1637.000000, 8226.000000, 8163.000000, 8177.000000
2696, 5691872.000000, 1545.500000, 8254.000000, 8167.000000, 8191.000000
2697, 5692032.000000, 1465.000000, 8262.000000, 8169.000000, 8199.000000
2698, 5692192.000000, 1405.500000, 8256.000000, 8175.000000, 8205.000000
2699, 5692352.000000, 1368.000000, 8215.000000, 8176.000000, 8194.000000
2700, 5692512.000000, 1353.000000, 8178.000000, 8169.000000, 8175.000000
2701, 5692672.000000, 1356.000000, 8155.000000, 8164.000000, 8161.000000
2702, 5692832.000000, 1361.000000, 8152.000000, 8160.000000, 8155.000000
2703, 5692992.000000, 1359.000000, 8158.000000, 8160.000000, 8157.000000
2704, 5693152.000000, 1342.500000, 8159.000000, 8162.000000, 8161.000000
2705, 5693312.000000, 1308.000000, 8159.000000, 8160.000000, 8157.000000
2706, 5693472.000000, 1266.000000, 8166.000000, 8161.000000, 8161.000000
2707, 5693632.000000, 1219.000000, 8169.000000, 8157.000000, 8159.000000
2708, 5693792.000000, 1179.000000, 8171.000000, 8160.000000, 8161.000000
2709, 5693952.000000, 1168.000000, 8168.000000, 8156.000000, 8155.000000
2710, 5694112.000000, 1269.500000, 8175.000000, 8156.000000, 8156.000000
2711, 5694272.000000, 1535.000000, 8176.000000, 8157.000000, 8159.000000
2712, 5694432.000000, 1966.000000, 8182.000000, 8165.000000, 8171.000000
2713, 5694592.000000, 2429.000000, 8188.000000, 8169.000000, 8183.000000
2714, 5694752.000000, 2799.000000, 8196.000000, 8169.000000, 8187.000000
2715, 5694912.000000, 3008.000000, 8206.000000, 8171.000000, 8193.000000
2716, 5695072.000000, 3063.500000, 8191.000000, 8159.000000, 8161.000000
2717, 5695232.000000, 3025.000000, 8181.000000, 8154.000000, 8148.000000
2718, 5695392.000000, 2920.000000, 8185.000000, 8153.000000, 8148.000000
2719, 5695552.000000, 2767.000000, 8186.000000, 8152.000000, 8147.000000
2720, 5695712.000000, 2569.500000, 8243.000000, 8195.000000, 8208.000000
2721, 5695872.000000, 2364.000000, 8405.000000, 8134.000000, 8253.000000
2722, 5696032.000000, 2206.000000, 8145.000000, 8055.000000, 8065.000000
2723, 5696192.000000, 2119.000000, 8177.000000, 8151.000000, 8138.000000
2724, 5696352.000000, 2091.500000, 8181.000000, 8163.000000, 8151.000000
2725, 5696512.000000, 2081.000000, 8189.000000, 8169.000000, 8158.000000
2726, 5696672.000000, 2054.500000, 8197.000000, 8174.000000, 8165.000000
2727, 5696832.000000, 2001.000000, 8200.000000, 8175.000000, 8170.000000
2728, 5696992.000000, 1919.500000, 8216.000000, 8178.000000, 8177.000000
2729, 5697152.000000, 1820.000000, 8225.000000, 8178.000000, 8181.000000
2730, 5697312.000000, 1714.500000, 8245.000000, 8182.000000, 8192.000000
2731, 5697472.000000, 1614.000000, 8271.000000, 8184.000000, 8202.000000
2732, 5697632.000000, 1523.500000, 8290.000000, 8187.000000, 8215.000000
2733, 5697792.000000, 1451.000000, 8299.000000, 8190.000000, 8224.000000
2734, 5697952.000000, 1398.000000, 8281.000000, 8192.000000, 8222.000000
2735, 5698112.000000, 1365.000000, 8237.000000, 8193.000000, 8210.000000
2736, 5698272.000000, 1352.000000, 8200.000000, 8184.000000, 8190.000000
2737, 5698432.000000, 1350.000000, 8187.000000, 8178.000000, 8176.000000
2738, 5698592.000000, 1350.000000, 8178.000000, 8176.000000, 8170.000000
2739, 5698752.000000, 1341.000000, 8182.000000, 8176.000000, 8169.000000
2740, 5698912.000000, 1317.000000, 8181.000000, 8177.000000, 8169.000000
2741, 5699072.000000, 1277.000000, 8185.000000, 8174.000000, 8169.000000
2742, 5699232.000000, 1228.000000, 8185.000000, 8178.000000, 8171.000000
2743, 5699392.000000, 1178.000000, 8183.000000, 8176.000000, 8169.000000
2744, 5699552.000000, 1138.000000, 8182.000000, 8178.000000, 8171.000000
2745, 5699712.000000, 1155.000000, 8183.000000, 8176.000000, 8169.000000
2746, 5699872.000000, 1305.000000, 8181.000000, 8176.000000, 8170.000000
2747, 5700032.000000, 1641.000000, 8184.000000, 8179.000000, 8171.000000
2748, 5700192.000000, 2116.000000, 8184.000000, 8182.000000, 8178.000000
2749, 5700352.000000, 2588.000000, 8191.000000, 8189.000000, 8195.000000
2750, 5700512.000000, 2923.500000, 8194.000000, 8191.000000, 8201.000000
2751, 5700672.000000, 3095.000000, 8212.000000, 8193.000000, 8209.000000
2752, 5700832.000000, 3123.000000, 8195.000000, 8183.000000, 8178.000000
2753, 5700992.000000, 3069.000000, 8192.000000, 8177.000000, 8168.000000
2754, 5701152.000000, 2967.500000, 8190.000000, 8177.000000, 8167.000000
2755, 5701312.000000, 2815.000000, 8192.000000, 8179.000000, 8170.000000
2756, 5701472.000000, 2616.000000, 8238.000000, 8219.000000, 8227.000000
2757, 5701632.000000, 2413.000000, 8449.000000, 8157.000000, 8289.000000
2758, 5701792.000000, 2259.000000, 8160.000000, 8077.000000, 8095.000000
2759, 5701952.000000, 2169.000000, 8177.000000, 8176.000000, 8167.000000
2760, 5702112.000000, 2135.000000, 8187.000000, 8194.000000, 8182.000000
2761, 5702272.000000, 2114.000000, 8196.000000, 8199.000000, 8191.000000
2762, 5702432.000000, 2074.000000, 8203.000000, 8199.000000, 8196.000000
2763, 5702592.000000, 2004.000000, 8208.000000, 8205.000000, 8203.000000
2764, 5702752.000000, 1907.000000, 8217.000000, 8208.000000, 8208.000000
2765, 5702912.000000, 1799.000000, 8227.000000, 8209.000000, 8215.000000
2766, 5703072.000000, 1691.000000, 8245.000000, 8213.000000, 8225.000000
2767, 5703232.000000, 1592.000000, 8267.000000, 8218.000000, 8237.000000
2768, 5703392.000000, 1505.000000, 8291.000000, 8219.000000, 8248.000000
2769, 5703552.000000, 1432.000000, 8298.000000, 8220.000000, 8254.000000
2770, 5703712.000000, 1377.500000, 8283.000000, 8222.000000, 8256.000000
2771, 5703872.000000, 1345.000000, 8240.000000, 8223.000000, 8244.000000
2772, 5704032.000000, 1332.000000, 8205.000000, 8214.000000, 8222.000000
2773, 5704192.000000, 1332.000000, 8188.000000, 8209.000000, 8211.000000
2774, 5704352.000000, 1329.000000, 8183.000000, 8205.000000, 8204.000000
2775, 5704512.000000, 1317.000000, 8180.000000, 8206.000000, 8205.000000
2776, 5704672.000000, 1288.500000, 8185.000000, 8208.000000, 8210.000000
2777, 5704832.000000, 1246.000000, 8187.000000, 8206.000000, 8208.000000
2778, 5704992.000000, 1199.500000, 8187.000000, 8207.000000, 8209.000000
2779, 5705152.000000, 1150.000000, 8189.000000, 8204.000000, 8207.000000
2780, 5705312.000000, 1110.500000, 8187.000000, 8202.000000, 8204.000000
2781, 5705472.000000, 1115.000000, 8188.000000, 8204.000000, 8206.000000
2782, 5705632.000000, 1256.500000, 8187.000000, 8202.000000, 8202.000000
2783, 5705792.000000, 1574.000000, 8188.000000, 8202.000000, 8202.000000
2784, 5705952.000000, 2044.500000, 8189.000000, 8200.000000, 8201.000000
2785, 5706112.000000, 2519.000000, 8192.000000, 8200.000000, 8205.000000
2786, 5706272.000000, 2875.500000, 8197.000000, 8208.000000, 8222.000000
2787, 5706432.000000, 3066.000000, 8197.000000, 8209.000000, 8225.000000
2788, 5706592.000000, 3102.500000, 8215.000000, 8214.000000, 8232.000000
2789, 5706752.000000, 3058.000000, 8194.000000, 8204.000000, 8204.000000
2790, 5706912.000000, 2961.500000, 8187.000000, 8196.000000, 8190.000000
2791, 5707072.000000, 2821.000000, 8186.000000, 8196.000000, 8189.000000
2792, 5707232.000000, 2630.500000, 8189.000000, 8196.000000, 8189.000000
2793, 5707392.000000, 2427.000000, 8234.000000, 8232.000000, 8241.000000
2794, 5707552.000000, 2259.500000, 8455.000000, 8163.000000, 8299.000000
2795, 5707712.000000, 2160.000000, 8159.000000, 8081.000000, 8098.000000
2796, 5707872.000000, 2117.000000, 8174.000000, 8183.000000, 8172.000000
2797, 5708032.000000, 2096.000000, 8180.000000, 8197.000000, 8184.000000
2798, 5708192.000000, 2062.000000, 8187.000000, 8202.000000, 8192.000000
2799, 5708352.000000, 1999.000000, 8190.000000, 8202.000000, 8192.000000
2800, 5708512.000000, 1907.500000, 8197.000000, 8205.000000, 8198.000000
2801, 5708672.000000, 1801.000000, 8203.000000, 8207.000000, 8202.000000
2802, 5708832.000000, 1691.000000, 8214.000000, 8209.000000, 8207.000000
2803, 5708992.000000, 1592.000000, 8231.000000, 8210.000000, 8215.000000
2804, 5709152.000000, 1505.000000, 8249.000000, 8212.000000, 8223.000000
2805, 5709312.000000, 1432.000000, 8274.000000, 8212.000000, 8232.000000
2806, 5709472.000000, 1371.500000, 8283.000000, 8213.000000, 8239.000000
2807, 5709632.000000, 1327.000000, 8269.000000, 8214.000000, 8238.000000
2808, 5709792.000000, 1296.500000, 8227.000000, 8214.000000, 8228.000000
2809, 5709952.000000, 1281.000000, 8188.000000, 8205.000000, 8202.000000
2810, 5710112.000000, 1276.000000, 8170.000000, 8197.000000, 8188.000000
2811, 5710272.000000, 1269.000000, 8168.000000, 8193.000000, 8184.000000
2812, 5710432.000000, 1250.000000, 8168.000000, 8194.000000, 8185.000000
2813, 5710592.000000, 1220.000000, 8168.000000, 8195.000000, 8186.000000
2814, 5710752.000000, 1174.000000, 8173.000000, 8194.000000, 8185.000000
2815, 5710912.000000, 1124.000000, 8172.000000, 8192.000000, 8182.000000
2816, 5711072.000000, 1074.500000, 8174.000000, 8191.000000, 8184.000000
2817, 5711232.000000, 1036.000000, 8175.000000, 8190.000000, 8182.000000
2818, 5711392.000000, 1045.000000, 8173.000000, 8189.000000, 8180.000000
2819, 5711552.000000, 1177.000000, 8174.000000, 8189.000000, 8180.000000
2820, 5711712.000000, 1505.500000, 8173.000000, 8188.000000, 8177.000000
2821, 5711872.000000, 1974.000000, 8175.000000, 8186.000000, 8176.000000
2822, 5712032.000000, 2457.000000, 8173.000000, 8188.000000, 8179.000000
2823, 5712192.000000, 2828.000000, 8185.000000, 8196.000000, 8200.000000
2824, 5712352.000000, 3022.000000, 8181.000000, 8197.000000, 8199.000000
2825, 5712512.000000, 3070.000000, 8198.000000, 8203.000000, 8212.000000
2826, 5712672.000000, 3026.000000, 8184.000000, 8188.000000, 8178.000000
2827, 5712832.000000, 2936.000000, 8168.000000, 8182.000000, 8163.000000
2828, 5712992.000000, 2799.000000, 8166.000000, 8181.000000, 8161.000000
2829, 5713152.000000, 2620.000000, 8168.000000, 8180.000000, 8161.000000
2830, 5713312.000000, 2419.000000, 8177.000000, 8207.000000, 8188.000000
2831, 5713472.000000, 2248.000000, 8497.000000, 8159.000000, 8303.000000
2832, 5713632.000000, 2140.000000, 8152.000000, 8067.000000, 8091.000000
2833, 5713792.000000, 2087.000000, 8147.000000, 8166.000000, 8145.000000
2834, 5713952.000000, 2058.500000, 8153.000000, 8188.000000, 8157.000000
2835, 5714112.000000, 2020.000000, 8156.000000, 8194.000000, 8165.000000
2836, 5714272.000000, 1949.000000, 8164.000000, 8196.000000, 8171.000000
2837, 5714432.000000, 1854.000000, 8169.000000, 8198.000000, 8174.000000
2838, 5714592.000000, 1741.500000, 8174.000000, 8202.000000, 8179.000000
2839, 5714752.000000, 1632.000000, 8182.000000, 8203.000000, 8182.000000
2840, 5714912.000000, 1531.000000, 8194.000000, 8205.000000, 8188.000000
2841, 5715072.000000, 1443.000000, 8214.000000, 8207.000000, 8197.000000
2842, 5715232.000000, 1372.000000, 8236.000000, 8212.000000, 8212.000000
2843, 5715392.000000, 1313.000000, 8244.000000, 8215.000000, 8219.000000
2844, 5715552.000000, 1270.000000, 8234.000000, 8214.000000, 8217.000000
2845, 5715712.000000, 1243.000000, 8193.000000, 8214.000000, 8204.000000
2846, 5715872.000000, 1231.500000, 8151.000000, 8208.000000, 8182.000000
2847, 5716032.000000, 1225.000000, 8128.000000, 8202.000000, 8167.000000
2848, 5716192.000000, 1217.500000, 8119.000000, 8200.000000, 8161.000000
2849, 5716352.000000, 1201.000000, 8119.000000, 8199.000000, 8160.000000
2850, 5716512.000000, 1172.000000, 8119.000000, 8197.000000, 8158.000000
2851, 5716672.000000, 1129.000000, 8119.000000, 8198.000000, 8159.000000
2852, 5716832.000000, 1081.500000, 8118.000000, 8196.000000, 8156.000000
2853, 5716992.000000, 1031.000000, 8116.000000, 8194.000000, 8153.000000
