3292, 115366048.000000, 2506.000000, 8152.000000, 8198.000000, 8181.000000
3293, 115366208.000000, 2489.000000, 8153.000000, 8197.000000, 8176.000000
3294, 115366368.000000, 2480.000000, 8151.000000, 8195.000000, 8175.000000
3295, 115366528.000000, 2470.000000, 8162.000000, 8197.000000, 8180.000000
3296, 115366688.000000, 2458.000000, 8162.000000, 8195.000000, 8182.000000
3297, 115366848.000000, 2443.000000, 8169.000000, 8196.000000, 8184.000000
3298, 115367008.000000, 2421.500000, 8159.000000, 8198.000000, 8183.000000
3299, 115367168.000000, 2398.000000, 8171.000000, 8210.000000, 8207.000000
3300, 115367328.000000, 2373.500000, 8174.000000, 8203.000000, 8202.000000
3301, 115367488.000000, 2347.000000, 8185.000000, 8196.000000, 8193.000000
3302, 115367648.000000, 2317.000000, 8161.000000, 8185.000000, 8164.000000
3303, 115367808.000000, 2290.000000, 8158.000000, 8182.000000, 8157.000000
3304, 115367968.000000, 2285.500000, 8163.000000, 8182.000000, 8160.000000
3305, 115368128.000000, 2331.000000, 8160.000000, 8182.000000, 8160.000000
3306, 115368288.000000, 2432.000000, 8174.000000, 8238.000000, 8225.000000
3307, 115368448.000000, 2559.000000, 8497.000000, 8054.000000, 8192.000000
3308, 115368608.000000, 2660.500000, 8041.000000, 8069.000000, 8030.000000
3309, 115368768.000000, 2728.000000, 8145.000000, 8154.000000, 8146.000000
3310, 115368928.000000, 2765.500000, 8172.000000, 8194.000000, 8178.000000
3311, 115369088.000000, 2782.000000, 8180.000000, 8198.000000, 8185.000000
3312, 115369248.000000, 2775.500000, 8192.000000, 8199.000000, 8192.000000
3313, 115369408.000000, 2730.000000, 8206.000000, 8199.000000, 8199.000000
3314, 115369568.000000, 2643.000000, 8225.000000, 8201.000000, 8206.000000
3315, 115369728.000000, 2535.000000, 8243.000000, 8198.000000, 8207.000000
3316, 115369888.000000, 2432.500000, 8256.000000, 8200.000000, 8212.000000
3317, 115370048.000000, 2350.000000, 8244.000000, 8208.000000, 8218.000000
3318, 115370208.000000, 2292.500000, 8217.000000, 8222.000000, 8224.000000
3319, 115370368.000000, 2253.000000, 8179.000000, 8218.000000, 8213.000000
3320, 115370528.000000, 2223.500000, 8161.000000, 8206.000000, 8193.000000
3321, 115370688.000000, 2205.000000, 8153.000000, 8200.000000, 8185.000000
3322, 115370848.000000, 2191.000000, 8154.000000, 8204.000000, 8188.000000
3323, 115371008.000000, 2175.000000, 8156.000000, 8203.000000, 8190.000000
3324, 115371168.000000, 2149.000000, 8166.000000, 8208.000000, 8198.000000
3325, 115371328.000000, 2107.000000, 8174.000000, 8202.000000, 8195.000000
3326, 115371488.000000, 2055.000000, 8179.000000, 8200.000000, 8195.000000
3327, 115371648.000000, 2003.000000, 8170.000000, 8206.000000, 8201.000000
3328, 115371808.000000, 1953.000000, 8177.000000, 8219.000000, 8226.000000
3329, 115371968.000000, 1903.000000, 8186.000000, 8211.000000, 8216.000000
3330, 115372128.000000, 1843.000000, 8183.000000, 8197.000000, 8192.000000
3331, 115372288.000000, 1778.000000, 8163.000000, 8185.000000, 8169.000000
3332, 115372448.000000, 1731.000000, 8165.000000, 8186.000000, 8171.000000
3333, 115372608.000000, 1741.000000, 8167.000000, 8187.000000, 8172.000000
3334, 115372768.000000, 1855.500000, 8156.000000, 8215.000000, 8200.000000
3335, 115372928.000000, 2056.000000, 8342.000000, 8180.000000, 8237.000000
3336, 115373088.000000, 2281.000000, 8199.000000, 8105.000000, 8139.000000
3337, 115373248.000000, 2477.000000, 8082.000000, 8092.000000, 8064.000000
3338, 115373408.000000, 2615.500000, 8168.000000, 8191.000000, 8180.000000
3339, 115373568.000000, 2693.000000, 8183.000000, 8203.000000, 8192.000000
3340, 115373728.000000, 2695.000000, 8186.000000, 8205.000000, 8194.000000
3341, 115373888.000000, 2632.000000, 8195.000000, 8207.000000, 8198.000000
3342, 115374048.000000, 2503.000000, 8209.000000, 8207.000000, 8207.000000
3343, 115374208.000000, 2336.000000, 8231.000000, 8207.000000, 8214.000000
3344, 115374368.000000, 2163.000000, 8253.000000, 8208.000000, 8224.000000
3345, 115374528.000000, 2015.000000, 8253.000000, 8210.000000, 8224.000000
3346, 115374688.000000, 1910.000000, 8236.000000, 8220.000000, 8230.000000
3347, 115374848.000000, 1838.000000, 8194.000000, 8230.000000, 8230.000000
3348, 115375008.000000, 1791.000000, 8168.000000, 8224.000000, 8215.000000
3349, 115375168.000000, 1756.000000, 8153.000000, 8214.000000, 8201.000000
3350, 115375328.000000, 1725.000000, 8155.000000, 8209.000000, 8194.000000
3351, 115375488.000000, 1687.000000, 8156.000000, 8209.000000, 8192.000000
3352, 115375648.000000, 1642.500000, 8164.000000, 8211.000000, 8198.000000
3353, 115375808.000000, 1594.000000, 8170.000000, 8213.000000, 8206.000000
3354, 115375968.000000, 1542.500000, 8176.000000, 8210.000000, 8205.000000
3355, 115376128.000000, 1488.000000, 8170.000000, 8204.000000, 8199.000000
3356, 115376288.000000, 1434.500000, 8174.000000, 8212.000000, 8213.000000
3357, 115376448.000000, 1375.000000, 8180.000000, 8217.000000, 8222.000000
3358, 115376608.000000, 1307.500000, 8193.000000, 8212.000000, 8220.000000
3359, 115376768.000000, 1235.000000, 8176.000000, 8197.000000, 8190.000000
3360, 115376928.000000, 1170.500000, 8164.000000, 8189.000000, 8174.000000
3361, 115377088.000000, 1138.000000, 8171.000000, 8184.000000, 8171.000000
3362, 115377248.000000, 1199.000000, 8176.000000, 8185.000000, 8176.000000
3363, 115377408.000000, 1367.000000, 8160.000000, 8230.000000, 8220.000000
3364, 115377568.000000, 1613.500000, 8411.000000, 8149.000000, 8232.000000
3365, 115377728.000000, 1863.000000, 8111.000000, 8135.000000, 8136.000000
3366, 115377888.000000, 2068.500000, 8095.000000, 8098.000000, 8069.000000
3367, 115378048.000000, 2208.000000, 8179.000000, 8186.000000, 8177.000000
3368, 115378208.000000, 2274.000000, 8191.000000, 8199.000000, 8190.000000
3369, 115378368.000000, 2260.000000, 8199.000000, 8202.000000, 8198.000000
3370, 115378528.000000, 2166.500000, 8215.000000, 8202.000000, 8199.000000
3371, 115378688.000000, 2023.000000, 8229.000000, 8199.000000, 8203.000000
3372, 115378848.000000, 1856.000000, 8246.000000, 8198.000000, 8209.000000
3373, 115379008.000000, 1692.000000, 8261.000000, 8203.000000, 8220.000000
3374, 115379168.000000, 1550.500000, 8259.000000, 8211.000000, 8227.000000
3375, 115379328.000000, 1444.000000, 8238.000000, 8222.000000, 8230.000000
3376, 115379488.000000, 1381.000000, 8201.000000, 8232.000000, 8233.000000
3377, 115379648.000000, 1357.000000, 8176.000000, 8221.000000, 8218.000000
3378, 115379808.000000, 1355.000000, 8163.000000, 8213.000000, 8201.000000
3379, 115379968.000000, 1353.000000, 8162.000000, 8213.000000, 8202.000000
3380, 115380128.000000, 1341.000000, 8167.000000, 8209.000000, 8196.000000
3381, 115380288.000000, 1321.000000, 8175.000000, 8209.000000, 8201.000000
3382, 115380448.000000, 1298.500000, 8181.000000, 8210.000000, 8206.000000
3383, 115380608.000000, 1268.000000, 8185.000000, 8212.000000, 8209.000000
3384, 115380768.000000, 1231.000000, 8182.000000, 8207.000000, 8204.000000
3385, 115380928.000000, 1189.000000, 8186.000000, 8219.000000, 8224.000000
3386, 115381088.000000, 1141.500000, 8196.000000, 8220.000000, 8230.000000
3387, 115381248.000000, 1089.000000, 8199.000000, 8215.000000, 8221.000000
3388, 115381408.000000, 1032.000000, 8176.000000, 8198.000000, 8189.000000
3389, 115381568.000000, 980.000000, 8170.000000, 8195.000000, 8182.000000
3390, 115381728.000000, 957.500000, 8169.000000, 8194.000000, 8180.000000
3391, 115381888.000000, 1015.000000, 8173.000000, 8197.000000, 8186.000000
3392, 115382048.000000, 1182.500000, 8198.000000, 8254.000000, 8259.000000
3393, 115382208.000000, 1439.000000, 8439.000000, 8092.000000, 8192.000000
3394, 115382368.000000, 1713.000000, 8051.000000, 8136.000000, 8117.000000
3395, 115382528.000000, 1948.000000, 8127.000000, 8138.000000, 8122.000000
3396, 115382688.000000, 2108.000000, 8184.000000, 8200.000000, 8192.000000
3397, 115382848.000000, 2190.000000, 8193.000000, 8205.000000, 8199.000000
3398, 115383008.000000, 2184.500000, 8205.000000, 8208.000000, 8204.000000
3399, 115383168.000000, 2094.000000, 8216.000000, 8207.000000, 8208.000000
3400, 115383328.000000, 1932.000000, 8227.000000, 8207.000000, 8209.000000
3401, 115383488.000000, 1736.000000, 8238.000000, 8205.000000, 8211.000000
3402, 115383648.000000, 1552.000000, 8249.000000, 8210.000000, 8221.000000
3403, 115383808.000000, 1406.000000, 8251.000000, 8219.000000, 8231.000000
3404, 115383968.000000, 1310.000000, 8230.000000, 8237.000000, 8245.000000
3405, 115384128.000000, 1254.000000, 8193.000000, 8235.000000, 8233.000000
3406, 115384288.000000, 1231.000000, 8165.000000, 8224.000000, 8213.000000
3407, 115384448.000000, 1227.000000, 8154.000000, 8218.000000, 8202.000000
3408, 115384608.000000, 1231.000000, 8158.000000, 8216.000000, 8203.000000
3409, 115384768.000000, 1227.000000, 8167.000000, 8213.000000, 8202.000000
3410, 115384928.000000, 1207.500000, 8177.000000, 8209.000000, 8202.000000
3411, 115385088.000000, 1175.000000, 8178.000000, 8215.000000, 8209.000000
3412, 115385248.000000, 1135.500000, 8178.000000, 8210.000000, 8204.000000
3413, 115385408.000000, 1097.000000, 8177.000000, 8212.000000, 8207.000000
3414, 115385568.000000, 1064.500000, 8183.000000, 8223.000000, 8228.000000
3415, 115385728.000000, 1025.000000, 8200.000000, 8212.000000, 8218.000000
3416, 115385888.000000, 977.000000, 8192.000000, 8205.000000, 8206.000000
3417, 115386048.000000, 927.000000, 8170.000000, 8193.000000, 8178.000000
3418, 115386208.000000, 884.500000, 8164.000000, 8194.000000, 8179.000000
3419, 115386368.000000, 874.000000, 8166.000000, 8194.000000, 8180.000000
3420, 115386528.000000, 951.000000, 8166.000000, 8201.000000, 8189.000000
3421, 115386688.000000, 1137.000000, 8278.000000, 8224.000000, 8256.000000
3422, 115386848.000000, 1402.000000, 8286.000000, 8096.000000, 8146.000000
3423, 115387008.000000, 1666.000000, 8057.000000, 8083.000000, 8052.000000
3424, 115387168.000000, 1884.500000, 8160.000000, 8168.000000, 8158.000000
3425, 115387328.000000, 2040.000000, 8178.000000, 8198.000000, 8184.000000
3426, 115387488.000000, 2116.000000, 8191.000000, 8202.000000, 8189.000000
3427, 115387648.000000, 2108.000000, 8203.000000, 8200.000000, 8193.000000
3428, 115387808.000000, 1999.500000, 8215.000000, 8200.000000, 8200.000000
3429, 115387968.000000, 1838.000000, 8226.000000, 8201.000000, 8201.000000
3430, 115388128.000000, 1658.000000, 8242.000000, 8200.000000, 8206.000000
3431, 115388288.000000, 1492.000000, 8250.000000, 8207.000000, 8215.000000
3432, 115388448.000000, 1356.500000, 8241.000000, 8222.000000, 8230.000000
3433, 115388608.000000, 1260.000000, 8209.000000, 8233.000000, 8235.000000
3434, 115388768.000000, 1214.000000, 8178.000000, 8225.000000, 8217.000000
3435, 115388928.000000, 1201.000000, 8160.000000, 8209.000000, 8195.000000
3436, 115389088.000000, 1207.500000, 8156.000000, 8204.000000, 8187.000000
3437, 115389248.000000, 1215.000000, 8162.000000, 8201.000000, 8188.000000
3438, 115389408.000000, 1209.000000, 8171.000000, 8204.000000, 8195.000000
3439, 115389568.000000, 1191.000000, 8178.000000, 8205.000000, 8195.000000
3440, 115389728.000000, 1158.000000, 8176.000000, 8204.000000, 8195.000000
3441, 115389888.000000, 1113.000000, 8176.000000, 8200.000000, 8191.000000
3442, 115390048.000000, 1062.500000, 8178.000000, 8203.000000, 8197.000000
3443, 115390208.000000, 1010.000000, 8188.000000, 8216.000000, 8224.000000
3444, 115390368.000000, 952.000000, 8195.000000, 8205.000000, 8210.000000
3445, 115390528.000000, 890.000000, 8192.000000, 8196.000000, 8197.000000
3446, 115390688.000000, 827.500000, 8168.000000, 8183.000000, 8168.000000
3447, 115390848.000000, 783.000000, 8165.000000, 8183.000000, 8168.000000
3448, 115391008.000000, 810.000000, 8170.000000, 8184.000000, 8169.000000
3449, 115391168.000000, 960.000000, 8174.000000, 8190.000000, 8179.000000
3450, 115391328.000000, 1227.000000, 8250.000000, 8235.000000, 8257.000000
3451, 115391488.000000, 1529.000000, 8346.000000, 8030.000000, 8102.000000
3452, 115391648.000000, 1795.500000, 8062.000000, 8051.000000, 8012.000000
3453, 115391808.000000, 1998.000000, 8167.000000, 8176.000000, 8169.000000
3454, 115391968.000000, 2116.000000, 8191.000000, 8195.000000, 8188.000000
3455, 115392128.000000, 2140.000000, 8197.000000, 8198.000000, 8191.000000
3456, 115392288.000000, 2067.500000, 8201.000000, 8199.000000, 8194.000000
3457, 115392448.000000, 1912.000000, 8212.000000, 8198.000000, 8200.000000
3458, 115392608.000000, 1712.000000, 8232.000000, 8205.000000, 8213.000000
3459, 115392768.000000, 1511.000000, 8254.000000, 8203.000000, 8219.000000
3460, 115392928.000000, 1346.000000, 8257.000000, 8207.000000, 8223.000000
3461, 115393088.000000, 1219.000000, 8245.000000, 8218.000000, 8232.000000
3462, 115393248.000000, 1138.000000, 8212.000000, 8226.000000, 8230.000000
3463, 115393408.000000, 1100.000000, 8182.000000, 8219.000000, 8214.000000
3464, 115393568.000000, 1091.000000, 8163.000000, 8204.000000, 8192.000000
3465, 115393728.000000, 1092.000000, 8160.000000, 8197.000000, 8183.000000
3466, 115393888.000000, 1085.500000, 8162.000000, 8196.000000, 8183.000000
3467, 115394048.000000, 1068.000000, 8165.000000, 8197.000000, 8184.000000
3468, 115394208.000000, 1036.000000, 8171.000000, 8201.000000, 8192.000000
3469, 115394368.000000, 996.000000, 8178.000000, 8198.000000, 8192.000000
3470, 115394528.000000, 946.500000, 8173.000000, 8196.000000, 8187.000000
3471, 115394688.000000, 892.000000, 8171.000000, 8193.000000, 8186.000000
3472, 115394848.000000, 842.500000, 8177.000000, 8198.000000, 8193.000000
3473, 115395008.000000, 794.000000, 8187.000000, 8211.000000, 8221.000000
3474, 115395168.000000, 744.500000, 8192.000000, 8200.000000, 8205.000000
3475, 115395328.000000, 700.000000, 8190.000000, 8190.000000, 8190.000000
3476, 115395488.000000, 687.000000, 8167.000000, 8180.000000, 8163.000000
3477, 115395648.000000, 771.000000, 8167.000000, 8175.000000, 8158.000000
3478, 115395808.000000, 1007.500000, 8169.000000, 8178.000000, 8162.000000
3479, 115395968.000000, 1353.000000, 8168.000000, 8184.000000, 8171.000000
3480, 115396128.000000, 1715.000000, 8224.000000, 8236.000000, 8250.000000
3481, 115396288.000000, 2021.000000, 8417.000000, 8012.000000, 8115.000000
3482, 115396448.000000, 2232.500000, 8053.000000, 8040.000000, 7999.000000
3483, 115396608.000000, 2348.000000, 8163.000000, 8176.000000, 8168.000000
3484, 115396768.000000, 2348.000000, 8185.000000, 8197.000000, 8186.000000
3485, 115396928.000000, 2259.000000, 8193.000000, 8194.000000, 8184.000000
3486, 115397088.000000, 2088.500000, 8196.000000, 8199.000000, 8191.000000
3487, 115397248.000000, 1875.000000, 8205.000000, 8198.000000, 8198.000000
3488, 115397408.000000, 1661.000000, 8222.000000, 8200.000000, 8205.000000
3489, 115397568.000000, 1472.000000, 8248.000000, 8197.000000, 8213.000000
3490, 115397728.000000, 1326.500000, 8264.000000, 8192.000000, 8213.000000
3491, 115397888.000000, 1224.000000, 8255.000000, 8201.000000, 8220.000000
3492, 115398048.000000, 1169.500000, 8212.000000, 8215.000000, 8223.000000
3493, 115398208.000000, 1150.000000, 8173.000000, 8210.000000, 8203.000000
3494, 115398368.000000, 1151.500000, 8155.000000, 8205.000000, 8190.000000
3495, 115398528.000000, 1146.000000, 8147.000000, 8193.000000, 8176.000000
3496, 115398688.000000, 1125.500000, 8150.000000, 8195.000000, 8178.000000
3497, 115398848.000000, 1093.000000, 8151.000000, 8195.000000, 8181.000000
3498, 115399008.000000, 1050.500000, 8158.000000, 8196.000000, 8185.000000
3499, 115399168.000000, 1001.000000, 8162.000000, 8199.000000, 8188.000000
3500, 115399328.000000, 949.000000, 8166.000000, 8192.000000, 8184.000000
3501, 115399488.000000, 901.000000, 8167.000000, 8191.000000, 8184.000000
3502, 115399648.000000, 863.000000, 8171.000000, 8189.000000, 8184.000000
3503, 115399808.000000, 827.000000, 8169.000000, 8190.000000, 8182.000000
3504, 115399968.000000, 786.000000, 8164.000000, 8188.000000, 8179.000000
3505, 115400128.000000, 739.000000, 8173.000000, 8202.000000, 8208.000000
3506, 115400288.000000, 727.000000, 8182.000000, 8197.000000, 8201.000000
3507, 115400448.000000, 816.000000, 8186.000000, 8191.000000, 8196.000000
3508, 115400608.000000, 1080.000000, 8166.000000, 8179.000000, 8167.000000
3509, 115400768.000000, 1459.000000, 8162.000000, 8177.000000, 8162.000000
3510, 115400928.000000, 1864.500000, 8166.000000, 8174.000000, 8160.000000
3511, 115401088.000000, 2203.000000, 8164.000000, 8179.000000, 8166.000000
3512, 115401248.000000, 2431.500000, 8162.000000, 8241.000000, 8234.000000
3513, 115401408.000000, 2536.000000, 8516.000000, 8024.000000, 8159.000000
3514, 115401568.000000, 2515.000000, 8045.000000, 8047.000000, 8012.000000
3515, 115401728.000000, 2401.000000, 8140.000000, 8147.000000, 8138.000000
3516, 115401888.000000, 2207.500000, 8181.000000, 8190.000000, 8180.000000
3517, 115402048.000000, 1975.000000, 8186.000000, 8196.000000, 8187.000000
3518, 115402208.000000, 1741.500000, 8193.000000, 8200.000000, 8194.000000
3519, 115402368.000000, 1539.000000, 8205.000000, 8197.000000, 8197.000000
3520, 115402528.000000, 1384.500000, 8223.000000, 8198.000000, 8204.000000
3521, 115402688.000000, 1280.000000, 8246.000000, 8197.000000, 8212.000000
3522, 115402848.000000, 1222.000000, 8265.000000, 8199.000000, 8221.000000
3523, 115403008.000000, 1193.000000, 8255.000000, 8205.000000, 8226.000000
3524, 115403168.000000, 1182.000000, 8234.000000, 8215.000000, 8224.000000
3525, 115403328.000000, 1170.000000, 8183.000000, 8217.000000, 8212.000000
3526, 115403488.000000, 1144.500000, 8163.000000, 8208.000000, 8196.000000
3527, 115403648.000000, 1105.000000, 8154.000000, 8200.000000, 8186.000000
3528, 115403808.000000, 1062.500000, 8154.000000, 8200.000000, 8186.000000
3529, 115403968.000000, 1015.000000, 8154.000000, 8197.000000, 8181.000000
3530, 115404128.000000, 962.500000, 8160.000000, 8196.000000, 8184.000000
3531, 115404288.000000, 904.000000, 8170.000000, 8197.000000, 8188.000000
3532, 115404448.000000, 842.500000, 8173.000000, 8199.000000, 8192.000000
3533, 115404608.000000, 780.000000, 8169.000000, 8197.000000, 8191.000000
3534, 115404768.000000, 722.500000, 8170.000000, 8193.000000, 8182.000000
3535, 115404928.000000, 672.000000, 8172.000000, 8188.000000, 8180.000000
3536, 115405088.000000, 624.000000, 8172.000000, 8188.000000, 8178.000000
3537, 115405248.000000, 577.000000, 8169.000000, 8188.000000, 8178.000000
3538, 115405408.000000, 548.500000, 8172.000000, 8191.000000, 8185.000000
3539, 115405568.000000, 592.000000, 8182.000000, 8203.000000, 8211.000000
3540, 115405728.000000, 804.500000, 8187.000000, 8193.000000, 8197.000000
3541, 115405888.000000, 1164.000000, 8189.000000, 8189.000000, 8190.000000
3542, 115406048.000000, 1592.000000, 8170.000000, 8184.000000, 8171.000000
3543, 115406208.000000, 1978.000000, 8168.000000, 8181.000000, 8168.000000
3544, 115406368.000000, 2267.000000, 8175.000000, 8180.000000, 8168.000000
3545, 115406528.000000, 2437.000000, 8171.000000, 8181.000000, 8172.000000
3546, 115406688.000000, 2467.500000, 8191.000000, 8241.000000, 8243.000000
3547, 115406848.000000, 2383.000000, 8499.000000, 8031.000000, 8163.000000
3548, 115407008.000000, 2192.500000, 8053.000000, 8052.000000, 8019.000000
3549, 115407168.000000, 1946.000000, 8156.000000, 8165.000000, 8160.000000
3550, 115407328.000000, 1688.000000, 8186.000000, 8195.000000, 8188.000000
3551, 115407488.000000, 1460.000000, 8192.000000, 8200.000000, 8193.000000
3552, 115407648.000000, 1283.500000, 8201.000000, 8206.000000, 8203.000000
3553, 115407808.000000, 1158.000000, 8213.000000, 8203.000000, 8206.000000
3554, 115407968.000000, 1084.000000, 8230.000000, 8203.000000, 8213.000000
3555, 115408128.000000, 1052.000000, 8248.000000, 8200.000000, 8216.000000
3556, 115408288.000000, 1047.500000, 8261.000000, 8204.000000, 8223.000000
3557, 115408448.000000, 1046.000000, 8253.000000, 8211.000000, 8229.000000
3558, 115408608.000000, 1037.000000, 8225.000000, 8220.000000, 8231.000000
3559, 115408768.000000, 1020.000000, 8188.000000, 8220.000000, 8220.000000
3560, 115408928.000000, 993.000000, 8166.000000, 8210.000000, 8198.000000
3561, 115409088.000000, 952.000000, 8154.000000, 8201.000000, 8183.000000
3562, 115409248.000000, 894.000000, 8157.000000, 8200.000000, 8186.000000
3563, 115409408.000000, 812.000000, 8159.000000, 8202.000000, 8189.000000
3564, 115409568.000000, 734.500000, 8164.000000, 8201.000000, 8190.000000
3565, 115409728.000000, 669.000000, 8169.000000, 8198.000000, 8192.000000
3566, 115409888.000000, 609.500000, 8172.000000, 8198.000000, 8194.000000
3567, 115410048.000000, 557.000000, 8171.000000, 8197.000000, 8190.000000
3568, 115410208.000000, 511.000000, 8174.000000, 8197.000000, 8192.000000
3569, 115410368.000000, 472.000000, 8175.000000, 8194.000000, 8186.000000
3570, 115410528.000000, 433.000000, 8170.000000, 8192.000000, 8181.000000
3571, 115410688.000000, 424.000000, 8168.000000, 8191.000000, 8180.000000
3572, 115410848.000000, 532.500000, 8169.000000, 8191.000000, 8181.000000
3573, 115411008.000000, 797.000000, 8178.000000, 8201.000000, 8205.000000
3574, 115411168.000000, 1193.500000, 8181.000000, 8202.000000, 8204.000000
3575, 115411328.000000, 1604.000000, 8192.000000, 8202.000000, 8205.000000
3576, 115411488.000000, 1942.000000, 8171.000000, 8186.000000, 8173.000000
3577, 115411648.000000, 2171.000000, 8161.000000, 8186.000000, 8169.000000
3578, 115411808.000000, 2275.000000, 8165.000000, 8185.000000, 8170.000000
3579, 115411968.000000, 2265.000000, 8173.000000, 8182.000000, 8169.000000
3580, 115412128.000000, 2134.500000, 8157.000000, 8226.000000, 8216.000000
3581, 115412288.000000, 1923.000000, 8412.000000, 8118.000000, 8206.000000
3582, 115412448.000000, 1665.500000, 8108.000000, 8082.000000, 8081.000000
3583, 115412608.000000, 1416.000000, 8108.000000, 8118.000000, 8103.000000
3584, 115412768.000000, 1212.000000, 8179.000000, 8191.000000, 8184.000000
3585, 115412928.000000, 1062.000000, 8189.000000, 8197.000000, 8190.000000
3586, 115413088.000000, 963.000000, 8197.000000, 8200.000000, 8195.000000
3587, 115413248.000000, 907.000000, 8208.000000, 8201.000000, 8203.000000
3588, 115413408.000000, 890.000000, 8222.000000, 8205.000000, 8210.000000
3589, 115413568.000000, 892.000000, 8238.000000, 8202.000000, 8214.000000
3590, 115413728.000000, 898.500000, 8253.000000, 8201.000000, 8217.000000
3591, 115413888.000000, 897.000000, 8251.000000, 8205.000000, 8221.000000
3592, 115414048.000000, 880.500000, 8235.000000, 8216.000000, 8228.000000
3593, 115414208.000000, 850.000000, 8199.000000, 8224.000000, 8226.000000
3594, 115414368.000000, 806.500000, 8170.000000, 8216.000000, 8209.000000
3595, 115414528.000000, 755.000000, 8156.000000, 8207.000000, 8194.000000
3596, 115414688.000000, 696.000000, 8156.000000, 8204.000000, 8191.000000
3597, 115414848.000000, 634.000000, 8161.000000, 8205.000000, 8194.000000
3598, 115415008.000000, 578.000000, 8166.000000, 8206.000000, 8200.000000
3599, 115415168.000000, 532.000000, 8171.000000, 8204.000000, 8199.000000
3600, 115415328.000000, 489.500000, 8177.000000, 8200.000000, 8197.000000
3601, 115415488.000000, 454.000000, 8174.000000, 8199.000000, 8196.000000
3602, 115415648.000000, 427.000000, 8172.000000, 8199.000000, 8195.000000
3603, 115415808.000000, 411.000000, 8172.000000, 8197.000000, 8191.000000
3604, 115415968.000000, 393.500000, 8174.000000, 8190.000000, 8185.000000
3605, 115416128.000000, 372.000000, 8172.000000, 8190.000000, 8182.000000
3606, 115416288.000000, 378.000000, 8176.000000, 8202.000000, 8206.000000
3607, 115416448.000000, 491.000000, 8179.000000, 8206.000000, 8210.000000
3608, 115416608.000000, 756.000000, 8191.000000, 8204.000000, 8212.000000
3609, 115416768.000000, 1132.000000, 8179.000000, 8188.000000, 8181.000000
3610, 115416928.000000, 1511.000000, 8171.000000, 8178.000000, 8167.000000
3611, 115417088.000000, 1830.000000, 8175.000000, 8182.000000, 8172.000000
3612, 115417248.000000, 2040.500000, 8172.000000, 8183.000000, 8173.000000
3613, 115417408.000000, 2146.000000, 8165.000000, 8217.000000, 8210.000000
3614, 115417568.000000, 2136.500000, 8356.000000, 8170.000000, 8234.000000
3615, 115417728.000000, 2023.000000, 8155.000000, 8115.000000, 8131.000000
3616, 115417888.000000, 1833.500000, 8092.000000, 8090.000000, 8063.000000
3617, 115418048.000000, 1604.000000, 8181.000000, 8182.000000, 8178.000000
3618, 115418208.000000, 1384.500000, 8188.000000, 8194.000000, 8189.000000
3619, 115418368.000000, 1209.000000, 8195.000000, 8197.000000, 8192.000000
3620, 115418528.000000, 1099.500000, 8210.000000, 8199.000000, 8198.000000
3621, 115418688.000000, 1043.000000, 8220.000000, 8198.000000, 8204.000000
3622, 115418848.000000, 1022.500000, 8243.000000, 8200.000000, 8215.000000
3623, 115419008.000000, 1024.000000, 8256.000000, 8202.000000, 8222.000000
3624, 115419168.000000, 1027.500000, 8255.000000, 8210.000000, 8229.000000
3625, 115419328.000000, 1027.000000, 8239.000000, 8219.000000, 8235.000000
3626, 115419488.000000, 1021.000000, 8213.000000, 8232.000000, 8239.000000
3627, 115419648.000000, 1010.000000, 8183.000000, 8222.000000, 8225.000000
3628, 115419808.000000, 990.500000, 8165.000000, 8211.000000, 8206.000000
3629, 115419968.000000, 968.000000, 8166.000000, 8210.000000, 8200.000000
3630, 115420128.000000, 945.000000, 8169.000000, 8209.000000, 8201.000000
3631, 115420288.000000, 922.000000, 8174.000000, 8207.000000, 8204.000000
3632, 115420448.000000, 890.500000, 8183.000000, 8208.000000, 8209.000000
3633, 115420608.000000, 854.000000, 8184.000000, 8209.000000, 8211.000000
3634, 115420768.000000, 817.500000, 8180.000000, 8205.000000, 8204.000000
3635, 115420928.000000, 789.000000, 8177.000000, 8203.000000, 8198.000000
3636, 115421088.000000, 764.500000, 8180.000000, 8198.000000, 8195.000000
3637, 115421248.000000, 734.000000, 8188.000000, 8196.000000, 8196.000000
3638, 115421408.000000, 696.000000, 8186.000000, 8203.000000, 8208.000000
3639, 115421568.000000, 661.000000, 8184.000000, 8211.000000, 8219.000000
3640, 115421728.000000, 668.500000, 8192.000000, 8207.000000, 8216.000000
3641, 115421888.000000, 783.000000, 8184.000000, 8195.000000, 8193.000000
3642, 115422048.000000, 1047.500000, 8172.000000, 8188.000000, 8176.000000
3643, 115422208.000000, 1392.000000, 8176.000000, 8186.000000, 8177.000000
3644, 115422368.000000, 1715.500000, 8176.000000, 8184.000000, 8173.000000
3645, 115422528.000000, 1970.000000, 8173.000000, 8200.000000, 8193.000000
3646, 115422688.000000, 2129.500000, 8289.000000, 8215.000000, 8253.000000
3647, 115422848.000000, 2199.000000, 8250.000000, 8106.000000, 8148.000000
3648, 115423008.000000, 2168.000000, 8071.000000, 8076.000000, 8045.000000
3649, 115423168.000000, 2041.000000, 8173.000000, 8171.000000, 8166.000000
3650, 115423328.000000, 1845.000000, 8194.000000, 8195.000000, 8188.000000
3651, 115423488.000000, 1629.000000, 8192.000000, 8200.000000, 8195.000000
3652, 115423648.000000, 1431.000000, 8199.000000, 8206.000000, 8202.000000
3653, 115423808.000000, 1279.000000, 8218.000000, 8207.000000, 8209.000000
3654, 115423968.000000, 1185.500000, 8231.000000, 8205.000000, 8212.000000
3655, 115424128.000000, 1138.000000, 8249.000000, 8205.000000, 8218.000000
3656, 115424288.000000, 1126.500000, 8251.000000, 8212.000000, 8228.000000
3657, 115424448.000000, 1142.000000, 8241.000000, 8223.000000, 8235.000000
3658, 115424608.000000, 1168.000000, 8209.000000, 8236.000000, 8240.000000
3659, 115424768.000000, 1194.000000, 8177.000000, 8227.000000, 8222.000000
3660, 115424928.000000, 1202.000000, 8163.000000, 8210.000000, 8200.000000
3661, 115425088.000000, 1199.000000, 8162.000000, 8204.000000, 8193.000000
3662, 115425248.000000, 1184.500000, 8160.000000, 8206.000000, 8196.000000
3663, 115425408.000000, 1162.000000, 8167.000000, 8208.000000, 8199.000000
3664, 115425568.000000, 1131.000000, 8172.000000, 8206.000000, 8200.000000
3665, 115425728.000000, 1098.000000, 8176.000000, 8203.000000, 8194.000000
3666, 115425888.000000, 1060.500000, 8174.000000, 8202.000000, 8197.000000
3667, 115426048.000000, 1025.000000, 8170.000000, 8201.000000, 8194.000000
3668, 115426208.000000, 988.500000, 8179.000000, 8200.000000, 8195.000000
3669, 115426368.000000, 952.000000, 8181.000000, 8204.000000, 8206.000000
3670, 115426528.000000, 912.000000, 8181.000000, 8210.000000, 8216.000000
3671, 115426688.000000, 876.000000, 8198.000000, 8204.000000, 8213.000000
3672, 115426848.000000, 867.500000, 8172.000000, 8191.000000, 8185.000000
3673, 115427008.000000, 944.000000, 8164.000000, 8186.000000, 8171.000000
3674, 115427168.000000, 1168.500000, 8169.000000, 8183.000000, 8169.000000
3675, 115427328.000000, 1499.000000, 8178.000000, 8181.000000, 8171.000000
3676, 115427488.000000, 1849.000000, 8177.000000, 8211.000000, 8208.000000
3677, 115427648.000000, 2139.000000, 8340.000000, 8181.000000, 8239.000000
3678, 115427808.000000, 2336.000000, 8173.000000, 8121.000000, 8141.000000
3679, 115427968.000000, 2439.000000, 8079.000000, 8087.000000, 8055.000000
3680, 115428128.000000, 2449.000000, 8177.000000, 8179.000000, 8170.000000
3681, 115428288.000000, 2366.000000, 8192.000000, 8196.000000, 8189.000000
3682, 115428448.000000, 2192.500000, 8198.000000, 8200.000000, 8197.000000
3683, 115428608.000000, 1973.000000, 8208.000000, 8201.000000, 8199.000000
3684, 115428768.000000, 1761.000000, 8217.000000, 8202.000000, 8204.000000
3685, 115428928.000000, 1584.000000, 8235.000000, 8202.000000, 8210.000000
3686, 115429088.000000, 1458.500000, 8248.000000, 8202.000000, 8218.000000
3687, 115429248.000000, 1377.000000, 8257.000000, 8215.000000, 8231.000000
3688, 115429408.000000, 1333.000000, 8241.000000, 8224.000000, 8236.000000
3689, 115429568.000000, 1310.000000, 8207.000000, 8235.000000, 8238.000000
3690, 115429728.000000, 1297.500000, 8172.000000, 8225.000000, 8219.000000
3691, 115429888.000000, 1290.000000, 8159.000000, 8209.000000, 8198.000000
3692, 115430048.000000, 1284.000000, 8161.000000, 8205.000000, 8194.000000
3693, 115430208.000000, 1278.000000, 8165.000000, 8205.000000, 8196.000000
3694, 115430368.000000, 1264.000000, 8177.000000, 8206.000000, 8199.000000
3695, 115430528.000000, 1240.000000, 8175.000000, 8203.000000, 8197.000000
3696, 115430688.000000, 1205.000000, 8171.000000, 8202.000000, 8199.000000
3697, 115430848.000000, 1170.000000, 8178.000000, 8204.000000, 8200.000000
3698, 115431008.000000, 1137.000000, 8176.000000, 8197.000000, 8190.000000
3699, 115431168.000000, 1103.000000, 8179.000000, 8196.000000, 8193.000000
3700, 115431328.000000, 1063.000000, 8188.000000, 8210.000000, 8218.000000
3701, 115431488.000000, 1020.000000, 8195.000000, 8204.000000, 8211.000000
3702, 115431648.000000, 982.500000, 8185.000000, 8195.000000, 8195.000000
3703, 115431808.000000, 974.000000, 8164.000000, 8187.000000, 8170.000000
3704, 115431968.000000, 1065.000000, 8166.000000, 8183.000000, 8167.000000
3705, 115432128.000000, 1301.000000, 8175.000000, 8182.000000, 8170.000000
3706, 115432288.000000, 1656.500000, 8175.000000, 8185.000000, 8177.000000
3707, 115432448.000000, 2030.000000, 8246.000000, 8236.000000, 8257.000000
3708, 115432608.000000, 2334.000000, 8346.000000, 8073.000000, 8141.000000
3709, 115432768.000000, 2548.000000, 8054.000000, 8077.000000, 8048.000000
3710, 115432928.000000, 2650.500000, 8158.000000, 8153.000000, 8146.000000
3711, 115433088.000000, 2649.000000, 8192.000000, 8189.000000, 8184.000000
3712, 115433248.000000, 2545.000000, 8199.000000, 8196.000000, 8190.000000
3713, 115433408.000000, 2357.000000, 8205.000000, 8199.000000, 8193.000000
3714, 115433568.000000, 2122.000000, 8212.000000, 8198.000000, 8195.000000
3715, 115433728.000000, 1890.000000, 8227.000000, 8196.000000, 8200.000000
3716, 115433888.000000, 1699.500000, 8244.000000, 8199.000000, 8207.000000
3717, 115434048.000000, 1565.000000, 8252.000000, 8207.000000, 8220.000000
3718, 115434208.000000, 1496.500000, 8246.000000, 8219.000000, 8230.000000
3719, 115434368.000000, 1471.000000, 8213.000000, 8227.000000, 8230.000000
3720, 115434528.000000, 1474.000000, 8177.000000, 8223.000000, 8216.000000
3721, 115434688.000000, 1488.000000, 8165.000000, 8207.000000, 8196.000000
3722, 115434848.000000, 1499.500000, 8159.000000, 8198.000000, 8185.000000
3723, 115435008.000000, 1504.000000, 8162.000000, 8199.000000, 8186.000000
3724, 115435168.000000, 1495.500000, 8170.000000, 8198.000000, 8183.000000
3725, 115435328.000000, 1479.000000, 8174.000000, 8197.000000, 8188.000000
3726, 115435488.000000, 1451.500000, 8178.000000, 8198.000000, 8190.000000
3727, 115435648.000000, 1417.000000, 8178.000000, 8197.000000, 8191.000000
3728, 115435808.000000, 1374.500000, 8174.000000, 8194.000000, 8185.000000
3729, 115435968.000000, 1326.000000, 8177.000000, 8189.000000, 8180.000000
3730, 115436128.000000, 1275.000000, 8184.000000, 8200.000000, 8206.000000
3731, 115436288.000000, 1225.000000, 8189.000000, 8199.000000, 8208.000000
3732, 115436448.000000, 1173.000000, 8197.000000, 8196.000000, 8202.000000
3733, 115436608.000000, 1143.000000, 8168.000000, 8180.000000, 8167.000000
3734, 115436768.000000, 1201.500000, 8170.000000, 8177.000000, 8160.000000
3735, 115436928.000000, 1422.000000, 8172.000000, 8174.000000, 8160.000000
3736, 115437088.000000, 1783.000000, 8173.000000, 8175.000000, 8164.000000
3737, 115437248.000000, 2196.000000, 8181.000000, 8246.000000, 8248.000000
3738, 115437408.000000, 2553.500000, 8446.000000, 8056.000000, 8158.000000
3739, 115437568.000000, 2814.000000, 8051.000000, 8055.000000, 8026.000000
3740, 115437728.000000, 2940.000000, 8142.000000, 8131.000000, 8123.000000
3741, 115437888.000000, 2947.000000, 8190.000000, 8189.000000, 8183.000000
3742, 115438048.000000, 2834.000000, 8192.000000, 8194.000000, 8189.000000
3743, 115438208.000000, 2623.000000, 8200.000000, 8199.000000, 8194.000000
3744, 115438368.000000, 2356.000000, 8209.000000, 8197.000000, 8194.000000
3745, 115438528.000000, 2084.000000, 8228.000000, 8196.000000, 8201.000000
3746, 115438688.000000, 1854.000000, 8246.000000, 8200.000000, 8213.000000
3747, 115438848.000000, 1686.000000, 8256.000000, 8208.000000, 8224.000000
3748, 115439008.000000, 1589.500000, 8254.000000, 8215.000000, 8229.000000
3749, 115439168.000000, 1539.000000, 8229.000000, 8223.000000, 8231.000000
3750, 115439328.000000, 1519.500000, 8192.000000, 8219.000000, 8218.000000
3751, 115439488.000000, 1513.000000, 8166.000000, 8208.000000, 8198.000000
3752, 115439648.000000, 1508.000000, 8163.000000, 8199.000000, 8187.000000
3753, 115439808.000000, 1494.000000, 8162.000000, 8193.000000, 8180.000000
3754, 115439968.000000, 1474.500000, 8165.000000, 8194.000000, 8181.000000
3755, 115440128.000000, 1449.000000, 8171.000000, 8196.000000, 8185.000000
3756, 115440288.000000, 1419.500000, 8175.000000, 8195.000000, 8189.000000
3757, 115440448.000000, 1380.000000, 8176.000000, 8195.000000, 8190.000000
3758, 115440608.000000, 1332.000000, 8173.000000, 8195.000000, 8188.000000
3759, 115440768.000000, 1286.000000, 8170.000000, 8189.000000, 8180.000000
3760, 115440928.000000, 1246.000000, 8182.000000, 8202.000000, 8206.000000
3761, 115441088.000000, 1200.000000, 8188.000000, 8202.000000, 8212.000000
3762, 115441248.000000, 1144.000000, 8196.000000, 8199.000000, 8207.000000
3763, 115441408.000000, 1109.000000, 8176.000000, 8179.000000, 8170.000000
3764, 115441568.000000, 1201.000000, 8167.000000, 8175.000000, 8158.000000
3765, 115441728.000000, 1471.000000, 8171.000000, 8174.000000, 8159.000000
3766, 115441888.000000, 1902.000000, 8176.000000, 8171.000000, 8162.000000
3767, 115442048.000000, 2375.000000, 8165.000000, 8217.000000, 8210.000000
3768, 115442208.000000, 2785.500000, 8373.000000, 8130.000000, 8204.000000
3769, 115442368.000000, 3084.000000, 8118.000000, 8041.000000, 8033.000000
3770, 115442528.000000, 3243.000000, 8111.000000, 8098.000000, 8079.000000
3771, 115442688.000000, 3274.000000, 8186.000000, 8184.000000, 8177.000000
3772, 115442848.000000, 3163.000000, 8198.000000, 8192.000000, 8187.000000
3773, 115443008.000000, 2949.000000, 8202.000000, 8196.000000, 8192.000000
3774, 115443168.000000, 2657.500000, 8210.000000, 8197.000000, 8194.000000
3775, 115443328.000000, 2349.000000, 8221.000000, 8199.000000, 8201.000000
3776, 115443488.000000, 2076.000000, 8239.000000, 8198.000000, 8210.000000
3777, 115443648.000000, 1861.000000, 8262.000000, 8202.000000, 8222.000000
3778, 115443808.000000, 1712.000000, 8259.000000, 8208.000000, 8228.000000
3779, 115443968.000000, 1617.000000, 8240.000000, 8221.000000, 8232.000000
3780, 115444128.000000, 1577.500000, 8198.000000, 8220.000000, 8221.000000
3781, 115444288.000000, 1569.000000, 8175.000000, 8209.000000, 8201.000000
3782, 115444448.000000, 1571.500000, 8165.000000, 8199.000000, 8188.000000
3783, 115444608.000000, 1566.000000, 8158.000000, 8195.000000, 8178.000000
3784, 115444768.000000, 1552.000000, 8160.000000, 8191.000000, 8177.000000
3785, 115444928.000000, 1528.000000, 8167.000000, 8194.000000, 8183.000000
3786, 115445088.000000, 1494.500000, 8176.000000, 8195.000000, 8188.000000
3787, 115445248.000000, 1456.000000, 8175.000000, 8196.000000, 8192.000000
3788, 115445408.000000, 1413.000000, 8175.000000, 8195.000000, 8189.000000
3789, 115445568.000000, 1365.000000, 8172.000000, 8190.000000, 8182.000000
3790, 115445728.000000, 1310.500000, 8174.000000, 8186.000000, 8179.000000
3791, 115445888.000000, 1252.000000, 8175.000000, 8196.000000, 8198.000000
3792, 115446048.000000, 1186.500000, 8184.000000, 8206.000000, 8214.000000
3793, 115446208.000000, 1137.000000, 8192.000000, 8197.000000, 8204.000000
3794, 115446368.000000, 1196.000000, 8182.000000, 8184.000000, 8177.000000
3795, 115446528.000000, 1432.000000, 8166.000000, 8174.000000, 8158.000000
3796, 115446688.000000, 1872.500000, 8172.000000, 8176.000000, 8162.000000
3797, 115446848.000000, 2379.000000, 8171.000000, 8177.000000, 8166.000000
3798, 115447008.000000, 2832.000000, 8167.000000, 8185.000000, 8174.000000
3799, 115447168.000000, 3161.000000, 8249.000000, 8226.000000, 8249.000000
3800, 115447328.000000, 3347.000000, 8359.000000, 8038.000000, 8120.000000
3801, 115447488.000000, 3385.000000, 8065.000000, 8055.000000, 8020.000000
3802, 115447648.000000, 3267.500000, 8170.000000, 8181.000000, 8176.000000
3803, 115447808.000000, 3039.000000, 8189.000000, 8197.000000, 8190.000000
3804, 115447968.000000, 2729.500000, 8194.000000, 8200.000000, 8195.000000
3805, 115448128.000000, 2398.000000, 8204.000000, 8202.000000, 8199.000000
3806, 115448288.000000, 2095.500000, 8218.000000, 8202.000000, 8206.000000
3807, 115448448.000000, 1850.000000, 8233.000000, 8203.000000, 8215.000000
3808, 115448608.000000, 1678.000000, 8254.000000, 8203.000000, 8223.000000
3809, 115448768.000000, 1577.000000, 8255.000000, 8208.000000, 8227.000000
3810, 115448928.000000, 1535.000000, 8243.000000, 8213.000000, 8228.000000
3811, 115449088.000000, 1527.000000, 8219.000000, 8223.000000, 8232.000000
3812, 115449248.000000, 1531.500000, 8179.000000, 8215.000000, 8212.000000
3813, 115449408.000000, 1532.000000, 8162.000000, 8205.000000, 8192.000000
3814, 115449568.000000, 1521.500000, 8155.000000, 8196.000000, 8181.000000
3815, 115449728.000000, 1497.000000, 8159.000000, 8196.000000, 8181.000000
3816, 115449888.000000, 1458.000000, 8160.000000, 8194.000000, 8184.000000
3817, 115450048.000000, 1407.000000, 8172.000000, 8199.000000, 8193.000000
3818, 115450208.000000, 1348.500000, 8174.000000, 8195.000000, 8192.000000
3819, 115450368.000000, 1295.000000, 8171.000000, 8192.000000, 8185.000000
3820, 115450528.000000, 1249.500000, 8172.000000, 8190.000000, 8186.000000
3821, 115450688.000000, 1205.000000, 8172.000000, 8187.000000, 8179.000000
3822, 115450848.000000, 1157.500000, 8175.000000, 8189.000000, 8179.000000
3823, 115451008.000000, 1102.000000, 8180.000000, 8198.000000, 8205.000000
3824, 115451168.000000, 1048.000000, 8183.000000, 8199.000000, 8202.000000
3825, 115451328.000000, 1050.000000, 8193.000000, 8192.000000, 8198.000000
3826, 115451488.000000, 1228.500000, 8172.000000, 8179.000000, 8167.000000
3827, 115451648.000000, 1598.000000, 8165.000000, 8175.000000, 8160.000000
3828, 115451808.000000, 2097.000000, 8171.000000, 8174.000000, 8159.000000
3829, 115451968.000000, 2575.000000, 8172.000000, 8173.000000, 8159.000000
3830, 115452128.000000, 2942.500000, 8154.000000, 8213.000000, 8199.000000
3831, 115452288.000000, 3173.000000, 8386.000000, 8125.000000, 8203.000000
3832, 115452448.000000, 3251.000000, 8125.000000, 8073.000000, 8077.000000
3833, 115452608.000000, 3180.000000, 8104.000000, 8099.000000, 8078.000000
3834, 115452768.000000, 2970.000000, 8177.000000, 8183.000000, 8172.000000
3835, 115452928.000000, 2679.000000, 8189.000000, 8186.000000, 8179.000000
3836, 115453088.000000, 2353.000000, 8195.000000, 8193.000000, 8188.000000
3837, 115453248.000000, 2045.000000, 8202.000000, 8193.000000, 8191.000000
3838, 115453408.000000, 1785.000000, 8211.000000, 8194.000000, 8196.000000
3839, 115453568.000000, 1592.000000, 8233.000000, 8195.000000, 8205.000000
3840, 115453728.000000, 1474.500000, 8254.000000, 8193.000000, 8211.000000
3841, 115453888.000000, 1417.000000, 8253.000000, 8200.000000, 8218.000000
3842, 115454048.000000, 1400.500000, 8232.000000, 8208.000000, 8220.000000
3843, 115454208.000000, 1401.000000, 8194.000000, 8214.000000, 8214.000000
3844, 115454368.000000, 1404.500000, 8165.000000, 8202.000000, 8191.000000
3845, 115454528.000000, 1405.000000, 8158.000000, 8193.000000, 8178.000000
3846, 115454688.000000, 1397.000000, 8152.000000, 8189.000000, 8174.000000
3847, 115454848.000000, 1375.000000, 8153.000000, 8186.000000, 8171.000000
3848, 115455008.000000, 1340.500000, 8163.000000, 8192.000000, 8180.000000
3849, 115455168.000000, 1294.000000, 8167.000000, 8192.000000, 8181.000000
3850, 115455328.000000, 1241.500000, 8170.000000, 8193.000000, 8184.000000
3851, 115455488.000000, 1193.000000, 8170.000000, 8190.000000, 8185.000000
3852, 115455648.000000, 1149.500000, 8169.000000, 8192.000000, 8184.000000
3853, 115455808.000000, 1104.000000, 8169.000000, 8188.000000, 8178.000000
3854, 115455968.000000, 1052.500000, 8166.000000, 8179.000000, 8169.000000
3855, 115456128.000000, 996.000000, 8175.000000, 8195.000000, 8199.000000
3856, 115456288.000000, 952.500000, 8174.000000, 8197.000000, 8200.000000
3857, 115456448.000000, 977.000000, 8191.000000, 8197.000000, 8203.000000
3858, 115456608.000000, 1163.000000, 8165.000000, 8176.000000, 8163.000000
3859, 115456768.000000, 1520.000000, 8162.000000, 8173.000000, 8156.000000
3860, 115456928.000000, 1991.000000, 8166.000000, 8172.000000, 8158.000000
3861, 115457088.000000, 2440.000000, 8167.000000, 8174.000000, 8163.000000
3862, 115457248.000000, 2780.000000, 8154.000000, 8221.000000, 8209.000000
3863, 115457408.000000, 2982.000000, 8402.000000, 8124.000000, 8209.000000
3864, 115457568.000000, 3042.000000, 8117.000000, 8084.000000, 8087.000000
3865, 115457728.000000, 2970.000000, 8103.000000, 8101.000000, 8083.000000
3866, 115457888.000000, 2769.500000, 8178.000000, 8183.000000, 8177.000000
3867, 115458048.000000, 2487.000000, 8191.000000, 8193.000000, 8190.000000
3868, 115458208.000000, 2169.500000, 8195.000000, 8193.000000, 8190.000000
3869, 115458368.000000, 1869.000000, 8206.000000, 8197.000000, 8194.000000
3870, 115458528.000000, 1627.500000, 8221.000000, 8194.000000, 8200.000000
3871, 115458688.000000, 1454.000000, 8238.000000, 8196.000000, 8210.000000
3872, 115458848.000000, 1355.500000, 8254.000000, 8197.000000, 8217.000000
3873, 115459008.000000, 1319.000000, 8248.000000, 8199.000000, 8217.000000
3874, 115459168.000000, 1329.000000, 8235.000000, 8209.000000, 8219.000000
3875, 115459328.000000, 1354.000000, 8201.000000, 8217.000000, 8220.000000
3876, 115459488.000000, 1370.500000, 8171.000000, 8208.000000, 8203.000000
3877, 115459648.000000, 1377.000000, 8159.000000, 8198.000000, 8187.000000
3878, 115459808.000000, 1363.000000, 8155.000000, 8197.000000, 8182.000000
3879, 115459968.000000, 1334.000000, 8159.000000, 8197.000000, 8182.000000
3880, 115460128.000000, 1290.000000, 8168.000000, 8196.000000, 8189.000000
3881, 115460288.000000, 1235.000000, 8172.000000, 8196.000000, 8190.000000
3882, 115460448.000000, 1176.500000, 8178.000000, 8194.000000, 8194.000000
3883, 115460608.000000, 1123.000000, 8177.000000, 8194.000000, 8191.000000
3884, 115460768.000000, 1078.000000, 8168.000000, 8190.000000, 8185.000000
3885, 115460928.000000, 1040.000000, 8171.000000, 8189.000000, 8184.000000
3886, 115461088.000000, 1003.500000, 8176.000000, 8195.000000, 8195.000000
3887, 115461248.000000, 959.000000, 8185.000000, 8202.000000, 8214.000000
3888, 115461408.000000, 921.000000, 8191.000000, 8196.000000, 8204.000000
3889, 115461568.000000, 924.000000, 8183.000000, 8186.000000, 8185.000000
3890, 115461728.000000, 1067.500000, 8164.000000, 8182.000000, 8167.000000
3891, 115461888.000000, 1379.000000, 8169.000000, 8184.000000, 8170.000000
3892, 115462048.000000, 1828.000000, 8172.000000, 8178.000000, 8170.000000
3893, 115462208.000000, 2280.000000, 8175.000000, 8184.000000, 8176.000000
3894, 115462368.000000, 2639.500000, 8230.000000, 8229.000000, 8243.000000
3895, 115462528.000000, 2869.000000, 8425.000000, 8074.000000, 8190.000000
3896, 115462688.000000, 2965.000000, 8047.000000, 8062.000000, 8029.000000
3897, 115462848.000000, 2936.000000, 8161.000000, 8168.000000, 8168.000000
3898, 115463008.000000, 2777.000000, 8186.000000, 8194.000000, 8191.000000
3899, 115463168.000000, 2532.000000, 8202.000000, 8191.000000, 8193.000000
3900, 115463328.000000, 2239.500000, 8211.000000, 8199.000000, 8203.000000
3901, 115463488.000000, 1955.000000, 8220.000000, 8198.000000, 8212.000000
3902, 115463648.000000, 1720.500000, 8234.000000, 8203.000000, 8220.000000
3903, 115463808.000000, 1551.000000, 8251.000000, 8202.000000, 8222.000000
3904, 115463968.000000, 1446.000000, 8263.000000, 8201.000000, 8233.000000
3905, 115464128.000000, 1393.000000, 8254.000000, 8209.000000, 8233.000000
3906, 115464288.000000, 1383.500000, 8220.000000, 8219.000000, 8235.000000
3907, 115464448.000000, 1402.000000, 8187.000000, 8216.000000, 8222.000000
3908, 115464608.000000, 1431.500000, 8167.000000, 8205.000000, 8200.000000
3909, 115464768.000000, 1450.000000, 8163.000000, 8196.000000, 8190.000000
3910, 115464928.000000, 1447.000000, 8169.000000, 8198.000000, 8192.000000
3911, 115465088.000000, 1427.000000, 8180.000000, 8199.000000, 8196.000000
3912, 115465248.000000, 1400.000000, 8177.000000, 8203.000000, 8202.000000
3913, 115465408.000000, 1370.000000, 8180.000000, 8195.000000, 8198.000000
3914, 115465568.000000, 1339.000000, 8177.000000, 8191.000000, 8198.000000
3915, 115465728.000000, 1310.000000, 8181.000000, 8195.000000, 8199.000000
3916, 115465888.000000, 1278.000000, 8177.000000, 8195.000000, 8198.000000
3917, 115466048.000000, 1239.000000, 8189.000000, 8201.000000, 8208.000000
3918, 115466208.000000, 1197.000000, 8194.000000, 8206.000000, 8224.000000
3919, 115466368.000000, 1160.000000, 8201.000000, 8198.000000, 8215.000000
3920, 115466528.000000, 1141.000000, 8188.000000, 8189.000000, 8197.000000
3921, 115466688.000000, 1184.000000, 8169.000000, 8182.000000, 8176.000000
3922, 115466848.000000, 1372.500000, 8181.000000, 8181.000000, 8175.000000
3923, 115467008.000000, 1717.000000, 8187.000000, 8180.000000, 8176.000000
3924, 115467168.000000, 2167.000000, 8180.000000, 8179.000000, 8176.000000
3925, 115467328.000000, 2600.000000, 8242.000000, 8222.000000, 8244.000000
3926, 115467488.000000, 2932.000000, 8423.000000, 8080.000000, 8201.000000
3927, 115467648.000000, 3135.000000, 8057.000000, 8063.000000, 8036.000000
3928, 115467808.000000, 3213.500000, 8169.000000, 8165.000000, 8163.000000
3929, 115467968.000000, 3170.000000, 8186.000000, 8186.000000, 8183.000000
3930, 115468128.000000, 2997.500000, 8196.000000, 8192.000000, 8190.000000
3931, 115468288.000000, 2732.000000, 8209.000000, 8194.000000, 8198.000000
3932, 115468448.000000, 2420.500000, 8214.000000, 8192.000000, 8198.000000
3933, 115468608.000000, 2132.000000, 8236.000000, 8200.000000, 8210.000000
3934, 115468768.000000, 1914.500000, 8246.000000, 8195.000000, 8210.000000
3935, 115468928.000000, 1789.000000, 8260.000000, 8199.000000, 8219.000000
3936, 115469088.000000, 1743.500000, 8245.000000, 8204.000000, 8222.000000
3937, 115469248.000000, 1749.000000, 8215.000000, 8211.000000, 8221.000000
3938, 115469408.000000, 1768.000000, 8181.000000, 8205.000000, 8201.000000
3939, 115469568.000000, 1778.000000, 8164.000000, 8199.000000, 8188.000000
3940, 115469728.000000, 1772.000000, 8155.000000, 8191.000000, 8180.000000
3941, 115469888.000000, 1754.000000, 8154.000000, 8187.000000, 8175.000000
3942, 115470048.000000, 1719.000000, 8163.000000, 8189.000000, 8179.000000
3943, 115470208.000000, 1668.000000, 8174.000000, 8192.000000, 8187.000000
3944, 115470368.000000, 1619.500000, 8179.000000, 8198.000000, 8193.000000
3945, 115470528.000000, 1587.000000, 8177.000000, 8189.000000, 8184.000000
3946, 115470688.000000, 1563.000000, 8179.000000, 8192.000000, 8183.000000
3947, 115470848.000000, 1533.000000, 8170.000000, 8191.000000, 8182.000000
3948, 115471008.000000, 1476.000000, 8175.000000, 8197.000000, 8201.000000
3949, 115471168.000000, 1401.000000, 8189.000000, 8196.000000, 8199.000000
3950, 115471328.000000, 1310.500000, 8183.000000, 8185.000000, 8184.000000
3951, 115471488.000000, 1224.000000, 8163.000000, 8176.000000, 8156.000000
3952, 115471648.000000, 1201.000000, 8163.000000, 8175.000000, 8153.000000
3953, 115471808.000000, 1314.000000, 8159.000000, 8173.000000, 8152.000000
3954, 115471968.000000, 1616.000000, 8158.000000, 8172.000000, 8151.000000
3955, 115472128.000000, 2032.000000, 8195.000000, 8229.000000, 8224.000000
3956, 115472288.000000, 2447.500000, 8482.000000, 8077.000000, 8203.000000
3957, 115472448.000000, 2776.000000, 8038.000000, 8079.000000, 8036.000000
3958, 115472608.000000, 2971.500000, 8136.000000, 8150.000000, 8134.000000
3959, 115472768.000000, 3034.000000, 8168.000000, 8191.000000, 8170.000000
3960, 115472928.000000, 2967.500000, 8177.000000, 8196.000000, 8177.000000
3961, 115473088.000000, 2799.000000, 8190.000000, 8200.000000, 8184.000000
3962, 115473248.000000, 2559.500000, 8205.000000, 8196.000000, 8188.000000
3963, 115473408.000000, 2305.000000, 8220.000000, 8198.000000, 8194.000000
3964, 115473568.000000, 2091.500000, 8237.000000, 8199.000000, 8200.000000
3965, 115473728.000000, 1949.000000, 8245.000000, 8207.000000, 8211.000000
3966, 115473888.000000, 1879.000000, 8234.000000, 8210.000000, 8213.000000
3967, 115474048.000000, 1851.000000, 8207.000000, 8225.000000, 8220.000000
3968, 115474208.000000, 1844.000000, 8171.000000, 8225.000000, 8208.000000
3969, 115474368.000000, 1844.000000, 8153.000000, 8211.000000, 8186.000000
3970, 115474528.000000, 1850.000000, 8147.000000, 8201.000000, 8178.000000
3971, 115474688.000000, 1858.000000, 8150.000000, 8207.000000, 8182.000000
3972, 115474848.000000, 1849.000000, 8157.000000, 8204.000000, 8184.000000
3973, 115475008.000000, 1813.000000, 8167.000000, 8204.000000, 8187.000000
3974, 115475168.000000, 1745.500000, 8172.000000, 8201.000000, 8189.000000
3975, 115475328.000000, 1649.000000, 8175.000000, 8200.000000, 8188.000000
3976, 115475488.000000, 1531.000000, 8163.000000, 8202.000000, 8188.000000
3977, 115475648.000000, 1395.000000, 8174.000000, 8214.000000, 8211.000000
3978, 115475808.000000, 1254.500000, 8181.000000, 8210.000000, 8208.000000
3979, 115475968.000000, 1122.000000, 8198.000000, 8205.000000, 8204.000000
3980, 115476128.000000, 1001.000000, 8168.000000, 8187.000000, 8168.000000
3981, 115476288.000000, 896.000000, 8164.000000, 8189.000000, 8168.000000
3982, 115476448.000000, 829.500000, 8164.000000, 8189.000000, 8166.000000
3983, 115476608.000000, 870.000000, 8167.000000, 8187.000000, 8168.000000
3984, 115476768.000000, 1067.500000, 8175.000000, 8241.000000, 8231.000000
3985, 115476928.000000, 1397.000000, 8449.000000, 8104.000000, 8200.000000
3986, 115477088.000000, 1757.000000, 8070.000000, 8165.000000, 8145.000000
3987, 115477248.000000, 2067.000000, 8100.000000, 8118.000000, 8088.000000
3988, 115477408.000000, 2287.000000, 8177.000000, 8191.000000, 8176.000000
3989, 115477568.000000, 2417.000000, 8191.000000, 8200.000000, 8185.000000
3990, 115477728.000000, 2439.000000, 8201.000000, 8203.000000, 8194.000000
3991, 115477888.000000, 2348.000000, 8219.000000, 8204.000000, 8201.000000
3992, 115478048.000000, 2165.500000, 8233.000000, 8199.000000, 8203.000000
3993, 115478208.000000, 1934.000000, 8240.000000, 8202.000000, 8207.000000
3994, 115478368.000000, 1697.500000, 8253.000000, 8210.000000, 8218.000000
3995, 115478528.000000, 1486.000000, 8250.000000, 8216.000000, 8224.000000
3996, 115478688.000000, 1329.000000, 8234.000000, 8234.000000, 8239.000000
3997, 115478848.000000, 1229.000000, 8198.000000, 8237.000000, 8238.000000
3998, 115479008.000000, 1185.500000, 8174.000000, 8228.000000, 8221.000000
3999, 115479168.000000, 1177.000000, 8159.000000, 8220.000000, 8205.000000
4000, 115479328.000000, 1179.000000, 8154.000000, 8222.000000, 8206.000000
4001, 115479488.000000, 1176.000000, 8163.000000, 8224.000000, 8210.000000
4002, 115479648.000000, 1171.000000, 8179.000000, 8220.000000, 8213.000000
4003, 115479808.000000, 1166.000000, 8186.000000, 8219.000000, 8214.000000
4004, 115479968.000000, 1159.500000, 8174.000000, 8218.000000, 8211.000000
4005, 115480128.000000, 1148.000000, 8180.000000, 8233.000000, 8232.000000
4006, 115480288.000000, 1131.000000, 8186.000000, 8238.000000, 8241.000000
4007, 115480448.000000, 1107.000000, 8198.000000, 8228.000000, 8235.000000
4008, 115480608.000000, 1076.500000, 8177.000000, 8206.000000, 8199.000000
4009, 115480768.000000, 1039.000000, 8177.000000, 8197.000000, 8186.000000
4010, 115480928.000000, 988.000000, 8172.000000, 8198.000000, 8186.000000
4011, 115481088.000000, 929.000000, 8177.000000, 8201.000000, 8192.000000
4012, 115481248.000000, 911.000000, 8171.000000, 8229.000000, 8220.000000
4013, 115481408.000000, 1012.000000, 8345.000000, 8173.000000, 8228.000000
4014, 115481568.000000, 1291.500000, 8159.000000, 8168.000000, 8185.000000
4015, 115481728.000000, 1697.000000, 8085.000000, 8105.000000, 8079.000000
4016, 115481888.000000, 2119.000000, 8182.000000, 8181.000000, 8176.000000
4017, 115482048.000000, 2465.000000, 8199.000000, 8207.000000, 8201.000000
4018, 115482208.000000, 2683.000000, 8197.000000, 8209.000000, 8202.000000
4019, 115482368.000000, 2777.000000, 8208.000000, 8204.000000, 8202.000000
4020, 115482528.000000, 2724.000000, 8225.000000, 8202.000000, 8207.000000
4021, 115482688.000000, 2552.000000, 8236.000000, 8200.000000, 8208.000000
4022, 115482848.000000, 2290.000000, 8258.000000, 8205.000000, 8216.000000
4023, 115483008.000000, 2000.000000, 8259.000000, 8218.000000, 8228.000000
4024, 115483168.000000, 1744.000000, 8236.000000, 8226.000000, 8236.000000
4025, 115483328.000000, 1564.000000, 8212.000000, 8238.000000, 8244.000000
4026, 115483488.000000, 1487.500000, 8182.000000, 8228.000000, 8223.000000
4027, 115483648.000000, 1483.000000, 8171.000000, 8214.000000, 8205.000000
4028, 115483808.000000, 1513.500000, 8173.000000, 8204.000000, 8195.000000
4029, 115483968.000000, 1553.000000, 8174.000000, 8203.000000, 8194.000000
4030, 115484128.000000, 1590.000000, 8181.000000, 8205.000000, 8197.000000
4031, 115484288.000000, 1611.000000, 8183.000000, 8207.000000, 8202.000000
4032, 115484448.000000, 1605.500000, 8189.000000, 8213.000000, 8204.000000
4033, 115484608.000000, 1574.000000, 8196.000000, 8210.000000, 8212.000000
4034, 115484768.000000, 1527.000000, 8197.000000, 8215.000000, 8223.000000
4035, 115484928.000000, 1478.000000, 8209.000000, 8211.000000, 8219.000000
4036, 115485088.000000, 1430.500000, 8194.000000, 8196.000000, 8191.000000
4037, 115485248.000000, 1386.000000, 8180.000000, 8184.000000, 8171.000000
4038, 115485408.000000, 1342.500000, 8175.000000, 8189.000000, 8173.000000
4039, 115485568.000000, 1295.000000, 8174.000000, 8185.000000, 8172.000000
4040, 115485728.000000, 1280.500000, 8177.000000, 8208.000000, 8199.000000
4041, 115485888.000000, 1361.000000, 8324.000000, 8193.000000, 8238.000000
4042, 115486048.000000, 1601.500000, 8189.000000, 8106.000000, 8131.000000
4043, 115486208.000000, 1950.000000, 8080.000000, 8084.000000, 8051.000000
4044, 115486368.000000, 2316.000000, 8176.000000, 8180.000000, 8169.000000
4045, 115486528.000000, 2622.000000, 8197.000000, 8196.000000, 8189.000000
4046, 115486688.000000, 2822.000000, 8198.000000, 8202.000000, 8197.000000
4047, 115486848.000000, 2903.000000, 8213.000000, 8201.000000, 8198.000000
4048, 115487008.000000, 2858.000000, 8223.000000, 8199.000000, 8201.000000
4049, 115487168.000000, 2701.000000, 8234.000000, 8200.000000, 8207.000000
4050, 115487328.000000, 2453.500000, 8251.000000, 8208.000000, 8216.000000
4051, 115487488.000000, 2166.000000, 8255.000000, 8216.000000, 8229.000000
4052, 115487648.000000, 1888.500000, 8231.000000, 8227.000000, 8236.000000
4053, 115487808.000000, 1664.000000, 8201.000000, 8231.000000, 8234.000000
4054, 115487968.000000, 1519.000000, 8166.000000, 8214.000000, 8206.000000
4055, 115488128.000000, 1449.000000, 8158.000000, 8200.000000, 8187.000000
4056, 115488288.000000, 1440.000000, 8159.000000, 8197.000000, 8186.000000
4057, 115488448.000000, 1461.000000, 8169.000000, 8201.000000, 8189.000000
4058, 115488608.000000, 1492.000000, 8167.000000, 8196.000000, 8185.000000
4059, 115488768.000000, 1509.000000, 8169.000000, 8195.000000, 8187.000000
4060, 115488928.000000, 1506.000000, 8173.000000, 8197.000000, 8190.000000
4061, 115489088.000000, 1488.000000, 8181.000000, 8208.000000, 8210.000000
4062, 115489248.000000, 1462.000000, 8179.000000, 8215.000000, 8223.000000
4063, 115489408.000000, 1427.000000, 8191.000000, 8200.000000, 8206.000000
4064, 115489568.000000, 1386.000000, 8183.000000, 8185.000000, 8180.000000
4065, 115489728.000000, 1338.000000, 8168.000000, 8180.000000, 8165.000000
4066, 115489888.000000, 1280.000000, 8161.000000, 8178.000000, 8161.000000
4067, 115490048.000000, 1230.000000, 8164.000000, 8182.000000, 8163.000000
4068, 115490208.000000, 1259.500000, 8161.000000, 8195.000000, 8178.000000
4069, 115490368.000000, 1447.000000, 8277.000000, 8197.000000, 8231.000000
4070, 115490528.000000, 1818.500000, 8231.000000, 8031.000000, 8066.000000
4071, 115490688.000000, 2277.000000, 8084.000000, 8071.000000, 8040.000000
4072, 115490848.000000, 2707.500000, 8177.000000, 8185.000000, 8174.000000
4073, 115491008.000000, 3036.000000, 8190.000000, 8194.000000, 8182.000000
4074, 115491168.000000, 3209.500000, 8191.000000, 8198.000000, 8187.000000
4075, 115491328.000000, 3222.000000, 8202.000000, 8198.000000, 8194.000000
4076, 115491488.000000, 3024.000000, 8215.000000, 8203.000000, 8203.000000
4077, 115491648.000000, 2693.000000, 8227.000000, 8202.000000, 8208.000000
4078, 115491808.000000, 2285.500000, 8248.000000, 8201.000000, 8215.000000
4079, 115491968.000000, 1962.000000, 8249.000000, 8208.000000, 8223.000000
4080, 115492128.000000, 1707.000000, 8233.000000, 8221.000000, 8229.000000
4081, 115492288.000000, 1519.000000, 8195.000000, 8226.000000, 8227.000000
4082, 115492448.000000, 1435.000000, 8167.000000, 8215.000000, 8204.000000
4083, 115492608.000000, 1433.000000, 8153.000000, 8200.000000, 8185.000000
4084, 115492768.000000, 1452.000000, 8156.000000, 8192.000000, 8175.000000
4085, 115492928.000000, 1469.000000, 8164.000000, 8193.000000, 8182.000000
4086, 115493088.000000, 1467.500000, 8166.000000, 8197.000000, 8187.000000
4087, 115493248.000000, 1448.000000, 8169.000000, 8200.000000, 8192.000000
4088, 115493408.000000, 1418.000000, 8167.000000, 8200.000000, 8189.000000
4089, 115493568.000000, 1380.000000, 8174.000000, 8197.000000, 8186.000000
4090, 115493728.000000, 1338.500000, 8182.000000, 8206.000000, 8216.000000
4091, 115493888.000000, 1290.000000, 8194.000000, 8207.000000, 8217.000000
4092, 115494048.000000, 1226.500000, 8194.000000, 8200.000000, 8208.000000
4093, 115494208.000000, 1170.000000, 8172.000000, 8184.000000, 8172.000000
4094, 115494368.000000, 1181.000000, 8162.000000, 8179.000000, 8160.000000
4095, 115494528.000000, 1364.000000, 8168.000000, 8178.000000, 8161.000000
4096, 115494688.000000, 1751.500000, 8176.000000, 8177.000000, 8164.000000
4097, 115494848.000000, 2258.000000, 8162.000000, 8220.000000, 8209.000000
4098, 115495008.000000, 2747.500000, 8366.000000, 8129.000000, 8200.000000
4099, 115495168.000000, 3137.000000, 8105.000000, 8034.000000, 8029.000000
4100, 115495328.000000, 3359.000000, 8106.000000, 8105.000000, 8083.000000
4101, 115495488.000000, 3419.000000, 8180.000000, 8192.000000, 8181.000000
4102, 115495648.000000, 3313.000000, 8195.000000, 8196.000000, 8189.000000
4103, 115495808.000000, 3085.000000, 8199.000000, 8198.000000, 8190.000000
4104, 115495968.000000, 2774.000000, 8205.000000, 8198.000000, 8194.000000
4105, 115496128.000000, 2424.000000, 8212.000000, 8201.000000, 8201.000000
4106, 115496288.000000, 2090.500000, 8229.000000, 8199.000000, 8205.000000
4107, 115496448.000000, 1810.000000, 8247.000000, 8198.000000, 8208.000000
4108, 115496608.000000, 1622.500000, 8257.000000, 8208.000000, 8218.000000
4109, 115496768.000000, 1518.000000, 8230.000000, 8215.000000, 8219.000000
4110, 115496928.000000, 1478.000000, 8187.000000, 8219.000000, 8211.000000
4111, 115497088.000000, 1479.000000, 8155.000000, 8207.000000, 8188.000000
4112, 115497248.000000, 1502.500000, 8147.000000, 8191.000000, 8164.000000
4113, 115497408.000000, 1527.000000, 8145.000000, 8185.000000, 8157.000000
4114, 115497568.000000, 1537.500000, 8155.000000, 8183.000000, 8158.000000
4115, 115497728.000000, 1526.000000, 8163.000000, 8184.000000, 8160.000000
4116, 115497888.000000, 1494.500000, 8159.000000, 8187.000000, 8166.000000
4117, 115498048.000000, 1450.000000, 8159.000000, 8185.000000, 8164.000000
4118, 115498208.000000, 1395.000000, 8156.000000, 8182.000000, 8159.000000
4119, 115498368.000000, 1330.000000, 8164.000000, 8175.000000, 8152.000000
4120, 115498528.000000, 1257.500000, 8171.000000, 8173.000000, 8150.000000
4121, 115498688.000000, 1180.000000, 8172.000000, 8188.000000, 8178.000000
4122, 115498848.000000, 1122.000000, 8168.000000, 8190.000000, 8173.000000
4123, 115499008.000000, 1140.000000, 8175.000000, 8186.000000, 8172.000000
4124, 115499168.000000, 1356.000000, 8156.000000, 8163.000000, 8134.000000
4125, 115499328.000000, 1762.000000, 8157.000000, 8162.000000, 8130.000000
4126, 115499488.000000, 2278.000000, 8163.000000, 8161.000000, 8131.000000
4127, 115499648.000000, 2748.000000, 8160.000000, 8160.000000, 8130.000000
4128, 115499808.000000, 3088.500000, 8141.000000, 8208.000000, 8179.000000
4129, 115499968.000000, 3274.000000, 8360.000000, 8103.000000, 8160.000000
4130, 115500128.000000, 3287.000000, 8078.000000, 8032.000000, 8003.000000
4131, 115500288.000000, 3161.000000, 8105.000000, 8094.000000, 8059.000000
4132, 115500448.000000, 2902.000000, 8174.000000, 8177.000000, 8152.000000
4133, 115500608.000000, 2570.000000, 8180.000000, 8183.000000, 8156.000000
4134, 115500768.000000, 2217.500000, 8179.000000, 8190.000000, 8163.000000
4135, 115500928.000000, 1898.000000, 8190.000000, 8190.000000, 8168.000000
4136, 115501088.000000, 1645.000000, 8204.000000, 8190.000000, 8175.000000
4137, 115501248.000000, 1472.000000, 8222.000000, 8190.000000, 8181.000000
4138, 115501408.000000, 1383.500000, 8237.000000, 8192.000000, 8189.000000
4139, 115501568.000000, 1359.000000, 8232.000000, 8200.000000, 8194.000000
4140, 115501728.000000, 1377.500000, 8211.000000, 8213.000000, 8205.000000
4141, 115501888.000000, 1409.000000, 8177.000000, 8214.000000, 8199.000000
4142, 115502048.000000, 1433.000000, 8159.000000, 8206.000000, 8179.000000
4143, 115502208.000000, 1437.000000, 8147.000000, 8191.000000, 8164.000000
4144, 115502368.000000, 1419.000000, 8147.000000, 8189.000000, 8160.000000
4145, 115502528.000000, 1380.000000, 8147.000000, 8191.000000, 8164.000000
4146, 115502688.000000, 1330.500000, 8153.000000, 8194.000000, 8171.000000
4147, 115502848.000000, 1279.000000, 8162.000000, 8195.000000, 8174.000000
4148, 115503008.000000, 1229.000000, 8166.000000, 8186.000000, 8168.000000
4149, 115503168.000000, 1181.000000, 8165.000000, 8186.000000, 8167.000000
4150, 115503328.000000, 1137.000000, 8158.000000, 8187.000000, 8166.000000
4151, 115503488.000000, 1090.000000, 8158.000000, 8184.000000, 8165.000000
4152, 115503648.000000, 1036.500000, 8159.000000, 8182.000000, 8163.000000
4153, 115503808.000000, 989.000000, 8165.000000, 8196.000000, 8189.000000
4154, 115503968.000000, 1018.000000, 8170.000000, 8191.000000, 8184.000000
4155, 115504128.000000, 1198.000000, 8182.000000, 8191.000000, 8188.000000
4156, 115504288.000000, 1594.500000, 8164.000000, 8178.000000, 8159.000000
4157, 115504448.000000, 2091.000000, 8156.000000, 8172.000000, 8147.000000
4158, 115504608.000000, 2563.000000, 8161.000000, 8168.000000, 8147.000000
4159, 115504768.000000, 2913.000000, 8165.000000, 8171.000000, 8152.000000
4160, 115504928.000000, 3103.500000, 8154.000000, 8203.000000, 8185.000000
4161, 115505088.000000, 3129.000000, 8334.000000, 8156.000000, 8212.000000
4162, 115505248.000000, 2997.000000, 8140.000000, 8059.000000, 8061.000000
4163, 115505408.000000, 2757.000000, 8087.000000, 8083.000000, 8052.000000
4164, 115505568.000000, 2441.500000, 8174.000000, 8183.000000, 8170.000000
4165, 115505728.000000, 2110.000000, 8189.000000, 8195.000000, 8184.000000
4166, 115505888.000000, 1806.000000, 8193.000000, 8198.000000, 8190.000000
4167, 115506048.000000, 1564.000000, 8203.000000, 8198.000000, 8193.000000
4168, 115506208.000000, 1406.000000, 8213.000000, 8200.000000, 8199.000000
4169, 115506368.000000, 1323.000000, 8231.000000, 8202.000000, 8207.000000
4170, 115506528.000000, 1306.000000, 8243.000000, 8202.000000, 8215.000000
4171, 115506688.000000, 1321.000000, 8247.000000, 8211.000000, 8225.000000
4172, 115506848.000000, 1357.000000, 8222.000000, 8216.000000, 8223.000000
4173, 115507008.000000, 1388.000000, 8191.000000, 8226.000000, 8223.000000
4174, 115507168.000000, 1401.000000, 8166.000000, 8212.000000, 8202.000000
4175, 115507328.000000, 1386.000000, 8156.000000, 8201.000000, 8188.000000
4176, 115507488.000000, 1348.000000, 8152.000000, 8202.000000, 8185.000000
4177, 115507648.000000, 1302.000000, 8158.000000, 8199.000000, 8186.000000
4178, 115507808.000000, 1252.500000, 8164.000000, 8200.000000, 8191.000000
4179, 115507968.000000, 1205.000000, 8168.000000, 8200.000000, 8193.000000
4180, 115508128.000000, 1153.000000, 8170.000000, 8198.000000, 8193.000000
4181, 115508288.000000, 1103.000000, 8170.000000, 8201.000000, 8196.000000
4182, 115508448.000000, 1061.500000, 8164.000000, 8194.000000, 8185.000000
4183, 115508608.000000, 1027.000000, 8166.000000, 8189.000000, 8181.000000
4184, 115508768.000000, 992.500000, 8167.000000, 8189.000000, 8180.000000
4185, 115508928.000000, 953.000000, 8163.000000, 8186.000000, 8176.000000
4186, 115509088.000000, 937.000000, 8172.000000, 8205.000000, 8213.000000
4187, 115509248.000000, 1009.000000, 8177.000000, 8198.000000, 8205.000000
4188, 115509408.000000, 1267.000000, 8188.000000, 8193.000000, 8203.000000
4189, 115509568.000000, 1663.000000, 8171.000000, 8177.000000, 8170.000000
4190, 115509728.000000, 2106.500000, 8158.000000, 8174.000000, 8161.000000
4191, 115509888.000000, 2479.000000, 8161.000000, 8177.000000, 8166.000000
4192, 115510048.000000, 2729.000000, 8164.000000, 8179.000000, 8170.000000
4193, 115510208.000000, 2840.000000, 8156.000000, 8230.000000, 8227.000000
4194, 115510368.000000, 2801.000000, 8428.000000, 8088.000000, 8190.000000
4195, 115510528.000000, 2645.000000, 8056.000000, 8068.000000, 8053.000000
4196, 115510688.000000, 2381.500000, 8121.000000, 8120.000000, 8116.000000
4197, 115510848.000000, 2076.000000, 8177.000000, 8191.000000, 8190.000000
4198, 115511008.000000, 1786.500000, 8188.000000, 8189.000000, 8191.000000
4199, 115511168.000000, 1553.000000, 8199.000000, 8194.000000, 8196.000000
4200, 115511328.000000, 1392.500000, 8211.000000, 8196.000000, 8204.000000
4201, 115511488.000000, 1302.000000, 8225.000000, 8202.000000, 8215.000000
4202, 115511648.000000, 1281.000000, 8235.000000, 8202.000000, 8220.000000
4203, 115511808.000000, 1302.000000, 8247.000000, 8200.000000, 8220.000000
4204, 115511968.000000, 1336.500000, 8243.000000, 8205.000000, 8228.000000
4205, 115512128.000000, 1358.000000, 8227.000000, 8215.000000, 8231.000000
4206, 115512288.000000, 1354.000000, 8188.000000, 8220.000000, 8228.000000
4207, 115512448.000000, 1340.000000, 8167.000000, 8210.000000, 8210.000000
4208, 115512608.000000, 1323.500000, 8161.000000, 8200.000000, 8193.000000
4209, 115512768.000000, 1307.000000, 8154.000000, 8193.000000, 8187.000000
4210, 115512928.000000, 1284.000000, 8164.000000, 8196.000000, 8196.000000
4211, 115513088.000000, 1255.000000, 8171.000000, 8198.000000, 8201.000000
4212, 115513248.000000, 1224.500000, 8180.000000, 8198.000000, 8203.000000
4213, 115513408.000000, 1189.000000, 8180.000000, 8195.000000, 8200.000000
4214, 115513568.000000, 1154.500000, 8173.000000, 8187.000000, 8191.000000
4215, 115513728.000000, 1116.000000, 8171.000000, 8192.000000, 8193.000000
4216, 115513888.000000, 1071.500000, 8177.000000, 8188.000000, 8191.000000
4217, 115514048.000000, 1021.000000, 8178.000000, 8188.000000, 8188.000000
4218, 115514208.000000, 968.500000, 8175.000000, 8189.000000, 8191.000000
4219, 115514368.000000, 944.000000, 8180.000000, 8204.000000, 8219.000000
4220, 115514528.000000, 1025.500000, 8187.000000, 8195.000000, 8207.000000
4221, 115514688.000000, 1253.000000, 8191.000000, 8188.000000, 8198.000000
4222, 115514848.000000, 1633.500000, 8170.000000, 8178.000000, 8175.000000
4223, 115515008.000000, 2061.000000, 8172.000000, 8176.000000, 8170.000000
4224, 115515168.000000, 2438.000000, 8170.000000, 8176.000000, 8171.000000
4225, 115515328.000000, 2699.000000, 8178.000000, 8180.000000, 8180.000000
4226, 115515488.000000, 2817.500000, 8228.000000, 8236.000000, 8257.000000
4227, 115515648.000000, 2809.000000, 8411.000000, 8060.000000, 8171.000000
4228, 115515808.000000, 2664.000000, 8054.000000, 8045.000000, 8020.000000
4229, 115515968.000000, 2420.000000, 8167.000000, 8160.000000, 8166.000000
4230, 115516128.000000, 2116.500000, 8195.000000, 8193.000000, 8196.000000
4231, 115516288.000000, 1811.000000, 8205.000000, 8196.000000, 8200.000000
4232, 115516448.000000, 1553.000000, 8207.000000, 8198.000000, 8205.000000
4233, 115516608.000000, 1368.000000, 8216.000000, 8199.000000, 8210.000000
4234, 115516768.000000, 1265.000000, 8229.000000, 8201.000000, 8215.000000
4235, 115516928.000000, 1229.000000, 8250.000000, 8205.000000, 8227.000000
4236, 115517088.000000, 1241.000000, 8257.000000, 8208.000000, 8234.000000
4237, 115517248.000000, 1273.000000, 8244.000000, 8212.000000, 8232.000000
4238, 115517408.000000, 1307.000000, 8211.000000, 8218.000000, 8230.000000
4239, 115517568.000000, 1332.000000, 8183.000000, 8217.000000, 8220.000000
4240, 115517728.000000, 1344.000000, 8162.000000, 8205.000000, 8204.000000
4241, 115517888.000000, 1338.000000, 8170.000000, 8205.000000, 8198.000000
4242, 115518048.000000, 1313.000000, 8166.000000, 8194.000000, 8190.000000
4243, 115518208.000000, 1279.000000, 8170.000000, 8195.000000, 8192.000000
4244, 115518368.000000, 1237.500000, 8173.000000, 8200.000000, 8200.000000
4245, 115518528.000000, 1193.000000, 8177.000000, 8197.000000, 8198.000000
4246, 115518688.000000, 1148.500000, 8180.000000, 8197.000000, 8202.000000
4247, 115518848.000000, 1108.000000, 8176.000000, 8192.000000, 8194.000000
4248, 115519008.000000, 1072.000000, 8175.000000, 8187.000000, 8187.000000
4249, 115519168.000000, 1038.000000, 8174.000000, 8188.000000, 8187.000000
4250, 115519328.000000, 1001.000000, 8176.000000, 8188.000000, 8192.000000
4251, 115519488.000000, 961.000000, 8187.000000, 8206.000000, 8222.000000
4252, 115519648.000000, 939.500000, 8194.000000, 8196.000000, 8208.000000
4253, 115519808.000000, 1002.000000, 8188.000000, 8188.000000, 8196.000000
4254, 115519968.000000, 1219.000000, 8171.000000, 8178.000000, 8171.000000
4255, 115520128.000000, 1579.000000, 8175.000000, 8178.000000, 8172.000000
4256, 115520288.000000, 1988.500000, 8175.000000, 8176.000000, 8172.000000
4257, 115520448.000000, 2348.000000, 8177.000000, 8183.000000, 8178.000000
4258, 115520608.000000, 2587.500000, 8239.000000, 8224.000000, 8246.000000
4259, 115520768.000000, 2705.000000, 8388.000000, 8075.000000, 8175.000000
4260, 115520928.000000, 2681.500000, 8059.000000, 8059.000000, 8030.000000
4261, 115521088.000000, 2545.000000, 8168.000000, 8165.000000, 8168.000000
4262, 115521248.000000, 2311.500000, 8191.000000, 8191.000000, 8191.000000
4263, 115521408.000000, 2019.000000, 8201.000000, 8192.000000, 8193.000000
4264, 115521568.000000, 1727.500000, 8205.000000, 8196.000000, 8198.000000
4265, 115521728.000000, 1487.000000, 8216.000000, 8201.000000, 8208.000000
4266, 115521888.000000, 1325.000000, 8232.000000, 8200.000000, 8214.000000
4267, 115522048.000000, 1230.000000, 8249.000000, 8202.000000, 8223.000000
4268, 115522208.000000, 1195.000000, 8257.000000, 8202.000000, 8226.000000
4269, 115522368.000000, 1197.000000, 8247.000000, 8203.000000, 8223.000000
4270, 115522528.000000, 1224.000000, 8218.000000, 8216.000000, 8228.000000
4271, 115522688.000000, 1261.000000, 8181.000000, 8220.000000, 8222.000000
4272, 115522848.000000, 1296.500000, 8163.000000, 8207.000000, 8203.000000
4273, 115523008.000000, 1318.000000, 8160.000000, 8199.000000, 8193.000000
4274, 115523168.000000, 1315.000000, 8167.000000, 8196.000000, 8189.000000
4275, 115523328.000000, 1292.000000, 8176.000000, 8191.000000, 8188.000000
4276, 115523488.000000, 1254.000000, 8183.000000, 8199.000000, 8202.000000
4277, 115523648.000000, 1210.000000, 8177.000000, 8201.000000, 8202.000000
4278, 115523808.000000, 1169.500000, 8175.000000, 8195.000000, 8195.000000
4279, 115523968.000000, 1133.000000, 8175.000000, 8194.000000, 8192.000000
4280, 115524128.000000, 1098.500000, 8180.000000, 8188.000000, 8187.000000
4281, 115524288.000000, 1059.000000, 8181.000000, 8191.000000, 8191.000000
4282, 115524448.000000, 1012.000000, 8179.000000, 8193.000000, 8197.000000
4283, 115524608.000000, 967.000000, 8180.000000, 8203.000000, 8212.000000
4284, 115524768.000000, 951.000000, 8187.000000, 8195.000000, 8201.000000
4285, 115524928.000000, 1013.000000, 8185.000000, 8187.000000, 8191.000000
4286, 115525088.000000, 1225.000000, 8174.000000, 8180.000000, 8173.000000
4287, 115525248.000000, 1580.000000, 8175.000000, 8177.000000, 8169.000000
4288, 115525408.000000, 1984.500000, 8175.000000, 8176.000000, 8168.000000
4289, 115525568.000000, 2341.000000, 8175.000000, 8186.000000, 8180.000000
4290, 115525728.000000, 2584.000000, 8281.000000, 8219.000000, 8253.000000
4291, 115525888.000000, 2721.000000, 8320.000000, 8111.000000, 8187.000000
4292, 115526048.000000, 2726.500000, 8066.000000, 8073.000000, 8044.000000
4293, 115526208.000000, 2614.000000, 8169.000000, 8169.000000, 8167.000000
4294, 115526368.000000, 2391.500000, 8195.000000, 8191.000000, 8188.000000
4295, 115526528.000000, 2113.000000, 8201.000000, 8202.000000, 8199.000000
4296, 115526688.000000, 1829.000000, 8204.000000, 8199.000000, 8202.000000
4297, 115526848.000000, 1572.000000, 8217.000000, 8199.000000, 8203.000000
4298, 115527008.000000, 1375.500000, 8235.000000, 8196.000000, 8208.000000
4299, 115527168.000000, 1249.000000, 8255.000000, 8201.000000, 8220.000000
4300, 115527328.000000, 1190.000000, 8263.000000, 8204.000000, 8228.000000
4301, 115527488.000000, 1171.000000, 8243.000000, 8209.000000, 8226.000000
4302, 115527648.000000, 1179.000000, 8212.000000, 8220.000000, 8230.000000
4303, 115527808.000000, 1198.000000, 8177.000000, 8213.000000, 8210.000000
4304, 115527968.000000, 1220.000000, 8168.000000, 8205.000000, 8198.000000
4305, 115528128.000000, 1229.000000, 8163.000000, 8198.000000, 8190.000000
4306, 115528288.000000, 1214.000000, 8161.000000, 8199.000000, 8192.000000
4307, 115528448.000000, 1176.000000, 8167.000000, 8201.000000, 8194.000000
4308, 115528608.000000, 1126.500000, 8175.000000, 8198.000000, 8194.000000
4309, 115528768.000000, 1075.000000, 8178.000000, 8200.000000, 8200.000000
4310, 115528928.000000, 1027.000000, 8178.000000, 8198.000000, 8200.000000
4311, 115529088.000000, 986.000000, 8181.000000, 8200.000000, 8200.000000
4312, 115529248.000000, 952.500000, 8175.000000, 8190.000000, 8188.000000
4313, 115529408.000000, 922.000000, 8173.000000, 8194.000000, 8189.000000
4314, 115529568.000000, 888.000000, 8175.000000, 8197.000000, 8199.000000
4315, 115529728.000000, 853.000000, 8178.000000, 8206.000000, 8214.000000
4316, 115529888.000000, 843.000000, 8198.000000, 8204.000000, 8215.000000
4317, 115530048.000000, 923.000000, 8179.000000, 8187.000000, 8187.000000
4318, 115530208.000000, 1163.500000, 8168.000000, 8182.000000, 8171.000000
4319, 115530368.000000, 1553.000000, 8172.000000, 8182.000000, 8172.000000
4320, 115530528.000000, 1996.000000, 8175.000000, 8184.000000, 8176.000000
4321, 115530688.000000, 2381.000000, 8170.000000, 8198.000000, 8193.000000
4322, 115530848.000000, 2637.000000, 8308.000000, 8208.000000, 8252.000000
4323, 115531008.000000, 2765.000000, 8286.000000, 8127.000000, 8187.000000
4324, 115531168.000000, 2750.000000, 8070.000000, 8083.000000, 8051.000000
4325, 115531328.000000, 2621.000000, 8164.000000, 8175.000000, 8170.000000
4326, 115531488.000000, 2380.500000, 8192.000000, 8197.000000, 8194.000000
4327, 115531648.000000, 2071.000000, 8200.000000, 8197.000000, 8197.000000
4328, 115531808.000000, 1761.000000, 8213.000000, 8196.000000, 8197.000000
4329, 115531968.000000, 1501.000000, 8220.000000, 8199.000000, 8203.000000
4330, 115532128.000000, 1321.000000, 8234.000000, 8201.000000, 8214.000000
4331, 115532288.000000, 1218.000000, 8253.000000, 8201.000000, 8221.000000
4332, 115532448.000000, 1191.000000, 8258.000000, 8208.000000, 8231.000000
4333, 115532608.000000, 1203.000000, 8244.000000, 8213.000000, 8227.000000
4334, 115532768.000000, 1237.500000, 8208.000000, 8216.000000, 8224.000000
4335, 115532928.000000, 1272.000000, 8176.000000, 8213.000000, 8210.000000
4336, 115533088.000000, 1301.500000, 8163.000000, 8205.000000, 8199.000000
4337, 115533248.000000, 1319.000000, 8157.000000, 8199.000000, 8189.000000
4338, 115533408.000000, 1318.000000, 8156.000000, 8198.000000, 8185.000000
4339, 115533568.000000, 1299.000000, 8166.000000, 8200.000000, 8192.000000
4340, 115533728.000000, 1264.000000, 8174.000000, 8201.000000, 8198.000000
4341, 115533888.000000, 1228.000000, 8180.000000, 8200.000000, 8201.000000
4342, 115534048.000000, 1191.500000, 8182.000000, 8199.000000, 8199.000000
4343, 115534208.000000, 1156.000000, 8181.000000, 8200.000000, 8194.000000
4344, 115534368.000000, 1121.000000, 8174.000000, 8199.000000, 8194.000000
4345, 115534528.000000, 1084.000000, 8172.000000, 8195.000000, 8187.000000
4346, 115534688.000000, 1044.000000, 8178.000000, 8200.000000, 8208.000000
4347, 115534848.000000, 1003.000000, 8187.000000, 8203.000000, 8209.000000
4348, 115535008.000000, 995.500000, 8192.000000, 8206.000000, 8211.000000
4349, 115535168.000000, 1086.000000, 8167.000000, 8190.000000, 8177.000000
4350, 115535328.000000, 1346.500000, 8167.000000, 8186.000000, 8173.000000
4351, 115535488.000000, 1754.000000, 8169.000000, 8186.000000, 8176.000000
4352, 115535648.000000, 2197.500000, 8171.000000, 8189.000000, 8180.000000
4353, 115535808.000000, 2572.000000, 8163.000000, 8247.000000, 8241.000000
4354, 115535968.000000, 2809.000000, 8499.000000, 8098.000000, 8220.000000
4355, 115536128.000000, 2916.000000, 8064.000000, 8121.000000, 8103.000000
4356, 115536288.000000, 2885.000000, 8121.000000, 8142.000000, 8134.000000
4357, 115536448.000000, 2746.000000, 8175.000000, 8200.000000, 8190.000000
4358, 115536608.000000, 2507.000000, 8187.000000, 8202.000000, 8194.000000
4359, 115536768.000000, 2213.000000, 8195.000000, 8206.000000, 8199.000000
4360, 115536928.000000, 1920.000000, 8198.000000, 8212.000000, 8207.000000
4361, 115537088.000000, 1671.000000, 8220.000000, 8211.000000, 8217.000000
4362, 115537248.000000, 1499.500000, 8233.000000, 8211.000000, 8223.000000
4363, 115537408.000000, 1401.000000, 8249.000000, 8212.000000, 8227.000000
4364, 115537568.000000, 1368.000000, 8246.000000, 8209.000000, 8226.000000
4365, 115537728.000000, 1378.000000, 8225.000000, 8222.000000, 8233.000000
4366, 115537888.000000, 1418.500000, 8189.000000, 8228.000000, 8231.000000
4367, 115538048.000000, 1463.000000, 8162.000000, 8218.000000, 8209.000000
4368, 115538208.000000, 1495.000000, 8152.000000, 8204.000000, 8191.000000
4369, 115538368.000000, 1506.000000, 8150.000000, 8205.000000, 8192.000000
4370, 115538528.000000, 1496.000000, 8160.000000, 8207.000000, 8197.000000
4371, 115538688.000000, 1468.000000, 8169.000000, 8206.000000, 8200.000000
4372, 115538848.000000, 1421.500000, 8172.000000, 8208.000000, 8202.000000
4373, 115539008.000000, 1371.000000, 8175.000000, 8202.000000, 8198.000000
4374, 115539168.000000, 1325.500000, 8170.000000, 8200.000000, 8195.000000
4375, 115539328.000000, 1287.000000, 8169.000000, 8198.000000, 8192.000000
4376, 115539488.000000, 1246.000000, 8170.000000, 8203.000000, 8196.000000
4377, 115539648.000000, 1198.000000, 8173.000000, 8212.000000, 8216.000000
4378, 115539808.000000, 1153.500000, 8184.000000, 8211.000000, 8217.000000
4379, 115539968.000000, 1118.000000, 8192.000000, 8204.000000, 8211.000000
4380, 115540128.000000, 1143.000000, 8167.000000, 8187.000000, 8176.000000
4381, 115540288.000000, 1299.000000, 8161.000000, 8191.000000, 8176.000000
4382, 115540448.000000, 1634.000000, 8162.000000, 8189.000000, 8176.000000
4383, 115540608.000000, 2076.000000, 8166.000000, 8186.000000, 8174.000000
4384, 115540768.000000, 2509.000000, 8168.000000, 8248.000000, 8245.000000
4385, 115540928.000000, 2841.000000, 8485.000000, 8106.000000, 8224.000000
4386, 115541088.000000, 3035.000000, 8073.000000, 8128.000000, 8114.000000
4387, 115541248.000000, 3106.000000, 8117.000000, 8126.000000, 8111.000000
4388, 115541408.000000, 3039.500000, 8184.000000, 8193.000000, 8187.000000
4389, 115541568.000000, 2866.000000, 8193.000000, 8200.000000, 8196.000000
4390, 115541728.000000, 2598.000000, 8202.000000, 8203.000000, 8201.000000
4391, 115541888.000000, 2282.000000, 8215.000000, 8205.000000, 8209.000000
4392, 115542048.000000, 1972.000000, 8232.000000, 8205.000000, 8215.000000
4393, 115542208.000000, 1719.000000, 8251.000000, 8204.000000, 8220.000000
4394, 115542368.000000, 1558.000000, 8264.000000, 8207.000000, 8228.000000
4395, 115542528.000000, 1479.000000, 8257.000000, 8215.000000, 8237.000000
4396, 115542688.000000, 1463.000000, 8237.000000, 8230.000000, 8245.000000
4397, 115542848.000000, 1471.000000, 8199.000000, 8235.000000, 8237.000000
4398, 115543008.000000, 1494.500000, 8174.000000, 8222.000000, 8213.000000
4399, 115543168.000000, 1523.000000, 8160.000000, 8210.000000, 8196.000000
4400, 115543328.000000, 1547.500000, 8161.000000, 8212.000000, 8197.000000
4401, 115543488.000000, 1550.000000, 8161.000000, 8211.000000, 8200.000000
4402, 115543648.000000, 1533.500000, 8175.000000, 8212.000000, 8204.000000
4403, 115543808.000000, 1510.000000, 8180.000000, 8208.000000, 8203.000000
4404, 115543968.000000, 1480.000000, 8186.000000, 8205.000000, 8202.000000
4405, 115544128.000000, 1440.000000, 8182.000000, 8206.000000, 8206.000000
4406, 115544288.000000, 1395.000000, 8180.000000, 8207.000000, 8204.000000
4407, 115544448.000000, 1348.000000, 8177.000000, 8206.000000, 8201.000000
4408, 115544608.000000, 1298.000000, 8188.000000, 8217.000000, 8223.000000
4409, 115544768.000000, 1244.000000, 8194.000000, 8212.000000, 8218.000000
4410, 115544928.000000, 1197.500000, 8189.000000, 8205.000000, 8206.000000
4411, 115545088.000000, 1189.000000, 8172.000000, 8196.000000, 8184.000000
4412, 115545248.000000, 1312.000000, 8172.000000, 8194.000000, 8180.000000
4413, 115545408.000000, 1601.000000, 8174.000000, 8192.000000, 8179.000000
4414, 115545568.000000, 2028.500000, 8173.000000, 8192.000000, 8181.000000
4415, 115545728.000000, 2467.000000, 8203.000000, 8250.000000, 8258.000000
4416, 115545888.000000, 2821.000000, 8441.000000, 8099.000000, 8208.000000
4417, 115546048.000000, 3047.000000, 8050.000000, 8115.000000, 8090.000000
4418, 115546208.000000, 3131.000000, 8135.000000, 8149.000000, 8136.000000
4419, 115546368.000000, 3093.000000, 8179.000000, 8200.000000, 8189.000000
4420, 115546528.000000, 2922.000000, 8190.000000, 8206.000000, 8200.000000
4421, 115546688.000000, 2660.000000, 8197.000000, 8209.000000, 8202.000000
4422, 115546848.000000, 2341.500000, 8211.000000, 8205.000000, 8205.000000
4423, 115547008.000000, 2033.000000, 8232.000000, 8200.000000, 8204.000000
4424, 115547168.000000, 1784.500000, 8251.000000, 8200.000000, 8216.000000
4425, 115547328.000000, 1620.000000, 8264.000000, 8206.000000, 8225.000000
4426, 115547488.000000, 1547.000000, 8255.000000, 8218.000000, 8235.000000
4427, 115547648.000000, 1539.000000, 8224.000000, 8234.000000, 8242.000000
4428, 115547808.000000, 1566.500000, 8187.000000, 8229.000000, 8225.000000
4429, 115547968.000000, 1600.000000, 8169.000000, 8214.000000, 8204.000000
4430, 115548128.000000, 1624.500000, 8167.000000, 8205.000000, 8194.000000
4431, 115548288.000000, 1639.000000, 8166.000000, 8203.000000, 8193.000000
4432, 115548448.000000, 1638.500000, 8167.000000, 8207.000000, 8194.000000
4433, 115548608.000000, 1619.000000, 8169.000000, 8203.000000, 8193.000000
4434, 115548768.000000, 1589.000000, 8175.000000, 8202.000000, 8196.000000
4435, 115548928.000000, 1559.000000, 8183.000000, 8202.000000, 8201.000000
4436, 115549088.000000, 1529.500000, 8181.000000, 8199.000000, 8195.000000
4437, 115549248.000000, 1504.000000, 8182.000000, 8198.000000, 8193.000000
4438, 115549408.000000, 1478.000000, 8187.000000, 8206.000000, 8212.000000
4439, 115549568.000000, 1443.000000, 8193.000000, 8208.000000, 8216.000000
4440, 115549728.000000, 1399.500000, 8197.000000, 8201.000000, 8209.000000
4441, 115549888.000000, 1351.000000, 8174.000000, 8185.000000, 8174.000000
4442, 115550048.000000, 1354.500000, 8172.000000, 8182.000000, 8168.000000
4443, 115550208.000000, 1480.000000, 8172.000000, 8179.000000, 8165.000000
4444, 115550368.000000, 1798.500000, 8178.000000, 8180.000000, 8168.000000
4445, 115550528.000000, 2223.000000, 8182.000000, 8245.000000, 8245.000000
4446, 115550688.000000, 2647.500000, 8454.000000, 8080.000000, 8180.000000
4447, 115550848.000000, 2970.000000, 8062.000000, 8092.000000, 8067.000000
4448, 115551008.000000, 3156.000000, 8135.000000, 8122.000000, 8105.000000
4449, 115551168.000000, 3215.000000, 8193.000000, 8189.000000, 8181.000000
4450, 115551328.000000, 3144.000000, 8197.000000, 8200.000000, 8191.000000
4451, 115551488.000000, 2966.000000, 8202.000000, 8206.000000, 8196.000000
4452, 115551648.000000, 2692.500000, 8217.000000, 8206.000000, 8204.000000
4453, 115551808.000000, 2384.000000, 8227.000000, 8204.000000, 8208.000000
4454, 115551968.000000, 2087.000000, 8251.000000, 8208.000000, 8218.000000
4455, 115552128.000000, 1847.000000, 8269.000000, 8214.000000, 8232.000000
4456, 115552288.000000, 1688.000000, 8262.000000, 8224.000000, 8242.000000
4457, 115552448.000000, 1605.000000, 8232.000000, 8238.000000, 8248.000000
4458, 115552608.000000, 1583.000000, 8197.000000, 8236.000000, 8233.000000
4459, 115552768.000000, 1591.000000, 8173.000000, 8218.000000, 8207.000000
4460, 115552928.000000, 1612.500000, 8167.000000, 8210.000000, 8195.000000
4461, 115553088.000000, 1631.000000, 8169.000000, 8208.000000, 8194.000000
4462, 115553248.000000, 1636.000000, 8170.000000, 8208.000000, 8195.000000
4463, 115553408.000000, 1620.000000, 8174.000000, 8209.000000, 8198.000000
4464, 115553568.000000, 1590.000000, 8174.000000, 8210.000000, 8201.000000
4465, 115553728.000000, 1548.000000, 8178.000000, 8208.000000, 8202.000000
4466, 115553888.000000, 1493.000000, 8181.000000, 8208.000000, 8202.000000
4467, 115554048.000000, 1427.000000, 8184.000000, 8209.000000, 8207.000000
4468, 115554208.000000, 1348.500000, 8193.000000, 8217.000000, 8223.000000
4469, 115554368.000000, 1265.000000, 8197.000000, 8209.000000, 8217.000000
4470, 115554528.000000, 1187.500000, 8189.000000, 8204.000000, 8201.000000
4471, 115554688.000000, 1126.000000, 8171.000000, 8193.000000, 8180.000000
4472, 115554848.000000, 1119.500000, 8169.000000, 8189.000000, 8175.000000
4473, 115555008.000000, 1243.000000, 8177.000000, 8190.000000, 8177.000000
4474, 115555168.000000, 1564.500000, 8176.000000, 8196.000000, 8185.000000
4475, 115555328.000000, 2013.000000, 8241.000000, 8246.000000, 8264.000000
4476, 115555488.000000, 2475.000000, 8358.000000, 8070.000000, 8146.000000
4477, 115555648.000000, 2850.000000, 8056.000000, 8077.000000, 8046.000000
4478, 115555808.000000, 3089.000000, 8166.000000, 8163.000000, 8155.000000
4479, 115555968.000000, 3183.000000, 8190.000000, 8201.000000, 8193.000000
4480, 115556128.000000, 3141.000000, 8198.000000, 8208.000000, 8203.000000
4481, 115556288.000000, 2981.000000, 8207.000000, 8214.000000, 8211.000000
4482, 115556448.000000, 2723.000000, 8222.000000, 8211.000000, 8214.000000
4483, 115556608.000000, 2414.000000, 8234.000000, 8210.000000, 8219.000000
4484, 115556768.000000, 2101.000000, 8259.000000, 8213.000000, 8229.000000
4485, 115556928.000000, 1829.000000, 8272.000000, 8221.000000, 8243.000000
4486, 115557088.000000, 1632.500000, 8252.000000, 8235.000000, 8254.000000
4487, 115557248.000000, 1527.000000, 8218.000000, 8246.000000, 8258.000000
4488, 115557408.000000, 1503.500000, 8185.000000, 8235.000000, 8232.000000
4489, 115557568.000000, 1533.000000, 8167.000000, 8220.000000, 8211.000000
4490, 115557728.000000, 1581.000000, 8162.000000, 8214.000000, 8203.000000
4491, 115557888.000000, 1623.000000, 8169.000000, 8211.000000, 8203.000000
4492, 115558048.000000, 1640.000000, 8170.000000, 8213.000000, 8204.000000
4493, 115558208.000000, 1629.000000, 8171.000000, 8210.000000, 8203.000000
4494, 115558368.000000, 1597.500000, 8176.000000, 8211.000000, 8204.000000
4495, 115558528.000000, 1552.000000, 8176.000000, 8210.000000, 8205.000000
4496, 115558688.000000, 1495.000000, 8176.000000, 8208.000000, 8203.000000
4497, 115558848.000000, 1432.000000, 8183.000000, 8210.000000, 8215.000000
4498, 115559008.000000, 1365.000000, 8187.000000, 8217.000000, 8225.000000
4499, 115559168.000000, 1306.000000, 8194.000000, 8214.000000, 8220.000000
4500, 115559328.000000, 1257.000000, 8185.000000, 8196.000000, 8196.000000
4501, 115559488.000000, 1222.000000, 8173.000000, 8191.000000, 8180.000000
4502, 115559648.000000, 1252.500000, 8174.000000, 8186.000000, 8175.000000
4503, 115559808.000000, 1446.000000, 8177.000000, 8184.000000, 8173.000000
4504, 115559968.000000, 1827.500000, 8176.000000, 8198.000000, 8189.000000
4505, 115560128.000000, 2313.000000, 8272.000000, 8228.000000, 8262.000000
4506, 115560288.000000, 2762.500000, 8294.000000, 8074.000000, 8131.000000
4507, 115560448.000000, 3107.000000, 8066.000000, 8069.000000, 8040.000000
4508, 115560608.000000, 3300.000000, 8169.000000, 8167.000000, 8161.000000
4509, 115560768.000000, 3354.000000, 8191.000000, 8198.000000, 8191.000000
4510, 115560928.000000, 3261.500000, 8192.000000, 8204.000000, 8201.000000
4511, 115561088.000000, 3051.000000, 8198.000000, 8204.000000, 8201.000000
4512, 115561248.000000, 2754.500000, 8216.000000, 8206.000000, 8209.000000
4513, 115561408.000000, 2421.000000, 8233.000000, 8209.000000, 8215.000000
4514, 115561568.000000, 2106.000000, 8253.000000, 8206.000000, 8220.000000
4515, 115561728.000000, 1849.000000, 8259.000000, 8219.000000, 8237.000000
4516, 115561888.000000, 1684.500000, 8247.000000, 8234.000000, 8248.000000
4517, 115562048.000000, 1605.000000, 8208.000000, 8240.000000, 8246.000000
4518, 115562208.000000, 1599.500000, 8175.000000, 8227.000000, 8219.000000
4519, 115562368.000000, 1635.000000, 8159.000000, 8212.000000, 8199.000000
4520, 115562528.000000, 1681.500000, 8157.000000, 8204.000000, 8190.000000
4521, 115562688.000000, 1709.000000, 8165.000000, 8201.000000, 8190.000000
4522, 115562848.000000, 1701.000000, 8165.000000, 8202.000000, 8191.000000
4523, 115563008.000000, 1667.000000, 8169.000000, 8202.000000, 8190.000000
4524, 115563168.000000, 1615.000000, 8173.000000, 8203.000000, 8194.000000
4525, 115563328.000000, 1556.000000, 8171.000000, 8201.000000, 8192.000000
4526, 115563488.000000, 1490.500000, 8177.000000, 8201.000000, 8194.000000
4527, 115563648.000000, 1426.000000, 8176.000000, 8195.000000, 8188.000000
4528, 115563808.000000, 1366.500000, 8188.000000, 8207.000000, 8213.000000
4529, 115563968.000000, 1312.000000, 8189.000000, 8205.000000, 8212.000000
4530, 115564128.000000, 1256.000000, 8195.000000, 8199.000000, 8206.000000
4531, 115564288.000000, 1211.000000, 8174.000000, 8189.000000, 8178.000000
4532, 115564448.000000, 1252.000000, 8161.000000, 8181.000000, 8164.000000
4533, 115564608.000000, 1458.000000, 8164.000000, 8179.000000, 8160.000000
4534, 115564768.000000, 1851.500000, 8174.000000, 8178.000000, 8165.000000
4535, 115564928.000000, 2323.000000, 8173.000000, 8226.000000, 8221.000000
4536, 115565088.000000, 2754.500000, 8367.000000, 8122.000000, 8192.000000
4537, 115565248.000000, 3070.000000, 8108.000000, 8024.000000, 8015.000000
4538, 115565408.000000, 3231.000000, 8112.000000, 8109.000000, 8089.000000
4539, 115565568.000000, 3251.000000, 8179.000000, 8190.000000, 8181.000000
4540, 115565728.000000, 3124.500000, 8196.000000, 8196.000000, 8190.000000
4541, 115565888.000000, 2894.000000, 8203.000000, 8201.000000, 8196.000000
4542, 115566048.000000, 2588.500000, 8206.000000, 8205.000000, 8202.000000
4543, 115566208.000000, 2254.000000, 8216.000000, 8203.000000, 8206.000000
4544, 115566368.000000, 1941.000000, 8234.000000, 8203.000000, 8210.000000
4545, 115566528.000000, 1697.000000, 8256.000000, 8205.000000, 8223.000000
4546, 115566688.000000, 1544.000000, 8259.000000, 8212.000000, 8234.000000
4547, 115566848.000000, 1467.000000, 8242.000000, 8223.000000, 8239.000000
4548, 115567008.000000, 1443.500000, 8199.000000, 8228.000000, 8226.000000
4549, 115567168.000000, 1445.000000, 8158.000000, 8214.000000, 8201.000000
4550, 115567328.000000, 1461.500000, 8151.000000, 8205.000000, 8189.000000
4551, 115567488.000000, 1477.000000, 8159.000000, 8199.000000, 8184.000000
4552, 115567648.000000, 1481.500000, 8164.000000, 8193.000000, 8180.000000
4553, 115567808.000000, 1461.000000, 8167.000000, 8196.000000, 8183.000000
4554, 115567968.000000, 1418.500000, 8163.000000, 8197.000000, 8185.000000
4555, 115568128.000000, 1370.000000, 8170.000000, 8200.000000, 8191.000000
4556, 115568288.000000, 1320.500000, 8172.000000, 8197.000000, 8191.000000
4557, 115568448.000000, 1273.000000, 8175.000000, 8193.000000, 8185.000000
4558, 115568608.000000, 1220.000000, 8179.000000, 8190.000000, 8183.000000
4559, 115568768.000000, 1162.000000, 8172.000000, 8189.000000, 8181.000000
4560, 115568928.000000, 1106.000000, 8178.000000, 8200.000000, 8202.000000
4561, 115569088.000000, 1054.000000, 8181.000000, 8201.000000, 8207.000000
4562, 115569248.000000, 1058.000000, 8191.000000, 8201.000000, 8207.000000
4563, 115569408.000000, 1202.000000, 8181.000000, 8181.000000, 8173.000000
4564, 115569568.000000, 1571.500000, 8176.000000, 8175.000000, 8162.000000
4565, 115569728.000000, 2070.000000, 8175.000000, 8173.000000, 8163.000000
4566, 115569888.000000, 2574.000000, 8173.000000, 8179.000000, 8166.000000
4567, 115570048.000000, 2975.000000, 8172.000000, 8184.000000, 8174.000000
4568, 115570208.000000, 3229.500000, 8253.000000, 8224.000000, 8246.000000
4569, 115570368.000000, 3327.000000, 8348.000000, 8007.000000, 8082.000000
4570, 115570528.000000, 3250.000000, 8070.000000, 8046.000000, 8012.000000
4571, 115570688.000000, 3049.000000, 8177.000000, 8179.000000, 8176.000000
4572, 115570848.000000, 2751.000000, 8191.000000, 8199.000000, 8192.000000
4573, 115571008.000000, 2411.000000, 8197.000000, 8202.000000, 8195.000000
4574, 115571168.000000, 2072.500000, 8208.000000, 8203.000000, 8201.000000
4575, 115571328.000000, 1777.000000, 8220.000000, 8203.000000, 8207.000000
4576, 115571488.000000, 1562.500000, 8234.000000, 8205.000000, 8216.000000
4577, 115571648.000000, 1436.000000, 8253.000000, 8205.000000, 8223.000000
4578, 115571808.000000, 1388.000000, 8265.000000, 8211.000000, 8233.000000
4579, 115571968.000000, 1385.000000, 8258.000000, 8220.000000, 8241.000000
4580, 115572128.000000, 1406.000000, 8222.000000, 8228.000000, 8243.000000
4581, 115572288.000000, 1427.000000, 8188.000000, 8221.000000, 8221.000000
4582, 115572448.000000, 1435.000000, 8166.000000, 8207.000000, 8197.000000
4583, 115572608.000000, 1422.000000, 8159.000000, 8200.000000, 8187.000000
4584, 115572768.000000, 1388.500000, 8164.000000, 8201.000000, 8188.000000
4585, 115572928.000000, 1341.000000, 8169.000000, 8200.000000, 8188.000000
4586, 115573088.000000, 1284.000000, 8174.000000, 8201.000000, 8194.000000
4587, 115573248.000000, 1222.000000, 8175.000000, 8198.000000, 8190.000000
4588, 115573408.000000, 1161.000000, 8177.000000, 8196.000000, 8193.000000
4589, 115573568.000000, 1107.000000, 8178.000000, 8197.000000, 8191.000000
4590, 115573728.000000, 1058.500000, 8178.000000, 8194.000000, 8190.000000
4591, 115573888.000000, 1014.000000, 8180.000000, 8191.000000, 8188.000000
4592, 115574048.000000, 971.000000, 8182.000000, 8187.000000, 8182.000000
4593, 115574208.000000, 926.000000, 8178.000000, 8186.000000, 8180.000000
4594, 115574368.000000, 914.000000, 8178.000000, 8186.000000, 8178.000000
4595, 115574528.000000, 1070.000000, 8185.000000, 8200.000000, 8206.000000
4596, 115574688.000000, 1429.500000, 8187.000000, 8202.000000, 8206.000000
4597, 115574848.000000, 1931.000000, 8199.000000, 8198.000000, 8204.000000
4598, 115575008.000000, 2529.000000, 8186.000000, 8183.000000, 8176.000000
4599, 115575168.000000, 2968.000000, 8174.000000, 8180.000000, 8167.000000
4600, 115575328.000000, 3148.500000, 8176.000000, 8180.000000, 8169.000000
4601, 115575488.000000, 3182.000000, 8180.000000, 8180.000000, 8173.000000
4602, 115575648.000000, 3043.000000, 8173.000000, 8192.000000, 8185.000000
4603, 115575808.000000, 2774.000000, 8285.000000, 8206.000000, 8243.000000
4604, 115575968.000000, 2387.500000, 8282.000000, 8044.000000, 8097.000000
4605, 115576128.000000, 2047.000000, 8082.000000, 8059.000000, 8029.000000
4606, 115576288.000000, 1743.000000, 8184.000000, 8183.000000, 8181.000000
4607, 115576448.000000, 1507.000000, 8203.000000, 8196.000000, 8193.000000
4608, 115576608.000000, 1358.500000, 8205.000000, 8198.000000, 8194.000000
4609, 115576768.000000, 1293.000000, 8210.000000, 8202.000000, 8201.000000
4610, 115576928.000000, 1293.000000, 8225.000000, 8205.000000, 8210.000000
4611, 115577088.000000, 1327.000000, 8235.000000, 8205.000000, 8215.000000
4612, 115577248.000000, 1351.500000, 8260.000000, 8205.000000, 8223.000000
4613, 115577408.000000, 1361.000000, 8259.000000, 8205.000000, 8227.000000
4614, 115577568.000000, 1353.000000, 8253.000000, 8216.000000, 8234.000000
4615, 115577728.000000, 1326.000000, 8213.000000, 8227.000000, 8236.000000
4616, 115577888.000000, 1283.000000, 8184.000000, 8220.000000, 8218.000000
4617, 115578048.000000, 1224.000000, 8163.000000, 8204.000000, 8194.000000
4618, 115578208.000000, 1160.000000, 8161.000000, 8197.000000, 8184.000000
4619, 115578368.000000, 1098.000000, 8163.000000, 8198.000000, 8186.000000
4620, 115578528.000000, 1045.000000, 8166.000000, 8198.000000, 8190.000000
4621, 115578688.000000, 995.000000, 8175.000000, 8200.000000, 8196.000000
4622, 115578848.000000, 945.500000, 8181.000000, 8197.000000, 8195.000000
4623, 115579008.000000, 902.000000, 8176.000000, 8198.000000, 8195.000000
4624, 115579168.000000, 876.500000, 8173.000000, 8198.000000, 8191.000000
4625, 115579328.000000, 864.000000, 8174.000000, 8192.000000, 8189.000000
4626, 115579488.000000, 852.500000, 8177.000000, 8193.000000, 8188.000000
4627, 115579648.000000, 835.000000, 8171.000000, 8186.000000, 8181.000000
4628, 115579808.000000, 857.500000, 8175.000000, 8186.000000, 8180.000000
4629, 115579968.000000, 1005.000000, 8174.000000, 8186.000000, 8181.000000
4630, 115580128.000000, 1351.500000, 8173.000000, 8185.000000, 8182.000000
4631, 115580288.000000, 1834.000000, 8176.000000, 8188.000000, 8183.000000
4632, 115580448.000000, 2318.500000, 8183.000000, 8199.000000, 8210.000000
4633, 115580608.000000, 2701.000000, 8192.000000, 8192.000000, 8199.000000
4634, 115580768.000000, 2917.500000, 8191.000000, 8187.000000, 8193.000000
4635, 115580928.000000, 2980.000000, 8170.000000, 8181.000000, 8172.000000
4636, 115581088.000000, 2897.000000, 8172.000000, 8178.000000, 8172.000000
4637, 115581248.000000, 2707.000000, 8176.000000, 8179.000000, 8170.000000
4638, 115581408.000000, 2431.000000, 8177.000000, 8181.000000, 8174.000000
4639, 115581568.000000, 2117.000000, 8182.000000, 8242.000000, 8244.000000
4640, 115581728.000000, 1821.000000, 8481.000000, 8041.000000, 8171.000000
4641, 115581888.000000, 1575.000000, 8052.000000, 8055.000000, 8029.000000
4642, 115582048.000000, 1401.500000, 8150.000000, 8153.000000, 8152.000000
4643, 115582208.000000, 1297.000000, 8190.000000, 8192.000000, 8188.000000
4644, 115582368.000000, 1265.500000, 8190.000000, 8198.000000, 8194.000000
4645, 115582528.000000, 1272.000000, 8203.000000, 8203.000000, 8203.000000
4646, 115582688.000000, 1295.500000, 8218.000000, 8203.000000, 8209.000000
4647, 115582848.000000, 1310.000000, 8229.000000, 8202.000000, 8212.000000
4648, 115583008.000000, 1309.500000, 8242.000000, 8202.000000, 8218.000000
4649, 115583168.000000, 1294.000000, 8255.000000, 8205.000000, 8228.000000
4650, 115583328.000000, 1262.500000, 8252.000000, 8213.000000, 8234.000000
4651, 115583488.000000, 1224.000000, 8227.000000, 8222.000000, 8238.000000
4652, 115583648.000000, 1180.000000, 8191.000000, 8221.000000, 8225.000000
4653, 115583808.000000, 1136.000000, 8162.000000, 8209.000000, 8202.000000
4654, 115583968.000000, 1093.000000, 8154.000000, 8202.000000, 8188.000000
4655, 115584128.000000, 1053.000000, 8157.000000, 8196.000000, 8184.000000
4656, 115584288.000000, 1013.000000, 8157.000000, 8194.000000, 8184.000000
4657, 115584448.000000, 970.000000, 8165.000000, 8194.000000, 8187.000000
4658, 115584608.000000, 929.000000, 8172.000000, 8195.000000, 8191.000000
4659, 115584768.000000, 892.000000, 8174.000000, 8191.000000, 8188.000000
4660, 115584928.000000, 869.500000, 8173.000000, 8194.000000, 8191.000000
4661, 115585088.000000, 858.000000, 8170.000000, 8193.000000, 8188.000000
4662, 115585248.000000, 851.000000, 8172.000000, 8188.000000, 8184.000000
4663, 115585408.000000, 833.000000, 8170.000000, 8185.000000, 8178.000000
4664, 115585568.000000, 808.500000, 8169.000000, 8186.000000, 8178.000000
4665, 115585728.000000, 824.000000, 8169.000000, 8188.000000, 8180.000000
4666, 115585888.000000, 980.000000, 8170.000000, 8186.000000, 8179.000000
4667, 115586048.000000, 1301.000000, 8177.000000, 8195.000000, 8200.000000
4668, 115586208.000000, 1742.000000, 8177.000000, 8195.000000, 8200.000000
4669, 115586368.000000, 2170.000000, 8192.000000, 8196.000000, 8205.000000
4670, 115586528.000000, 2497.500000, 8177.000000, 8184.000000, 8179.000000
4671, 115586688.000000, 2698.000000, 8169.000000, 8178.000000, 8166.000000
4672, 115586848.000000, 2758.500000, 8167.000000, 8176.000000, 8165.000000
4673, 115587008.000000, 2689.000000, 8170.000000, 8178.000000, 8167.000000
4674, 115587168.000000, 2493.000000, 8168.000000, 8187.000000, 8180.000000
4675, 115587328.000000, 2218.000000, 8277.000000, 8219.000000, 8251.000000
4676, 115587488.000000, 1910.000000, 8308.000000, 8084.000000, 8152.000000
4677, 115587648.000000, 1621.000000, 8068.000000, 8068.000000, 8035.000000
4678, 115587808.000000, 1392.500000, 8163.000000, 8176.000000, 8172.000000
4679, 115587968.000000, 1241.000000, 8187.000000, 8197.000000, 8191.000000
4680, 115588128.000000, 1167.500000, 8199.000000, 8199.000000, 8199.000000
4681, 115588288.000000, 1154.000000, 8206.000000, 8202.000000, 8206.000000
4682, 115588448.000000, 1181.500000, 8216.000000, 8201.000000, 8206.000000
4683, 115588608.000000, 1222.000000, 8232.000000, 8198.000000, 8210.000000
4684, 115588768.000000, 1258.000000, 8255.000000, 8203.000000, 8224.000000
4685, 115588928.000000, 1279.000000, 8261.000000, 8208.000000, 8231.000000
4686, 115589088.000000, 1279.000000, 8245.000000, 8213.000000, 8231.000000
4687, 115589248.000000, 1258.000000, 8214.000000, 8223.000000, 8231.000000
4688, 115589408.000000, 1221.000000, 8181.000000, 8213.000000, 8211.000000
4689, 115589568.000000, 1173.000000, 8165.000000, 8200.000000, 8191.000000
4690, 115589728.000000, 1119.000000, 8159.000000, 8198.000000, 8187.000000
4691, 115589888.000000, 1067.000000, 8159.000000, 8196.000000, 8183.000000
4692, 115590048.000000, 1021.500000, 8161.000000, 8196.000000, 8185.000000
4693, 115590208.000000, 984.000000, 8167.000000, 8196.000000, 8189.000000
4694, 115590368.000000, 956.500000, 8173.000000, 8199.000000, 8192.000000
4695, 115590528.000000, 937.000000, 8173.000000, 8195.000000, 8190.000000
4696, 115590688.000000, 925.000000, 8168.000000, 8195.000000, 8186.000000
4697, 115590848.000000, 912.000000, 8163.000000, 8191.000000, 8181.000000
4698, 115591008.000000, 893.500000, 8165.000000, 8188.000000, 8179.000000
4699, 115591168.000000, 868.000000, 8169.000000, 8187.000000, 8177.000000
4700, 115591328.000000, 838.000000, 8171.000000, 8188.000000, 8179.000000
4701, 115591488.000000, 841.000000, 8172.000000, 8188.000000, 8178.000000
4702, 115591648.000000, 960.000000, 8169.000000, 8190.000000, 8182.000000
4703, 115591808.000000, 1244.000000, 8173.000000, 8197.000000, 8203.000000
4704, 115591968.000000, 1648.500000, 8184.000000, 8196.000000, 8198.000000
4705, 115592128.000000, 2060.000000, 8186.000000, 8190.000000, 8193.000000
4706, 115592288.000000, 2380.000000, 8166.000000, 8179.000000, 8165.000000
4707, 115592448.000000, 2591.000000, 8162.000000, 8174.000000, 8159.000000
4708, 115592608.000000, 2676.000000, 8166.000000, 8176.000000, 8162.000000
4709, 115592768.000000, 2649.000000, 8165.000000, 8181.000000, 8168.000000
4710, 115592928.000000, 2503.000000, 8179.000000, 8240.000000, 8235.000000
4711, 115593088.000000, 2268.000000, 8502.000000, 8055.000000, 8187.000000
4712, 115593248.000000, 1987.000000, 8053.000000, 8069.000000, 8038.000000
4713, 115593408.000000, 1711.000000, 8141.000000, 8144.000000, 8139.000000
4714, 115593568.000000, 1487.000000, 8182.000000, 8193.000000, 8182.000000
4715, 115593728.000000, 1324.000000, 8193.000000, 8197.000000, 8191.000000
4716, 115593888.000000, 1235.500000, 8197.000000, 8196.000000, 8191.000000
4717, 115594048.000000, 1206.000000, 8211.000000, 8199.000000, 8199.000000
4718, 115594208.000000, 1226.000000, 8225.000000, 8198.000000, 8205.000000
4719, 115594368.000000, 1268.000000, 8243.000000, 8202.000000, 8215.000000
4720, 115594528.000000, 1311.000000, 8257.000000, 8205.000000, 8225.000000
4721, 115594688.000000, 1345.000000, 8248.000000, 8210.000000, 8228.000000
4722, 115594848.000000, 1360.500000, 8225.000000, 8214.000000, 8223.000000
4723, 115595008.000000, 1360.000000, 8190.000000, 8214.000000, 8210.000000
4724, 115595168.000000, 1337.500000, 8165.000000, 8201.000000, 8192.000000
4725, 115595328.000000, 1292.000000, 8158.000000, 8195.000000, 8182.000000
4726, 115595488.000000, 1230.000000, 8157.000000, 8193.000000, 8179.000000
4727, 115595648.000000, 1166.000000, 8159.000000, 8192.000000, 8181.000000
4728, 115595808.000000, 1109.000000, 8167.000000, 8195.000000, 8184.000000
4729, 115595968.000000, 1066.000000, 8172.000000, 8194.000000, 8188.000000
4730, 115596128.000000, 1032.000000, 8175.000000, 8194.000000, 8190.000000
4731, 115596288.000000, 1007.000000, 8168.000000, 8191.000000, 8186.000000
4732, 115596448.000000, 986.500000, 8166.000000, 8193.000000, 8183.000000
4733, 115596608.000000, 969.000000, 8165.000000, 8191.000000, 8180.000000
4734, 115596768.000000, 952.000000, 8165.000000, 8188.000000, 8179.000000
4735, 115596928.000000, 930.000000, 8162.000000, 8186.000000, 8177.000000
4736, 115597088.000000, 917.500000, 8171.000000, 8195.000000, 8196.000000
4737, 115597248.000000, 969.000000, 8176.000000, 8202.000000, 8206.000000
4738, 115597408.000000, 1176.000000, 8191.000000, 8198.000000, 8204.000000
4739, 115597568.000000, 1530.000000, 8173.000000, 8181.000000, 8174.000000
4740, 115597728.000000, 1957.500000, 8160.000000, 8180.000000, 8166.000000
4741, 115597888.000000, 2335.000000, 8168.000000, 8179.000000, 8166.000000
4742, 115598048.000000, 2600.500000, 8171.000000, 8178.000000, 8167.000000
4743, 115598208.000000, 2743.000000, 8170.000000, 8186.000000, 8177.000000
4744, 115598368.000000, 2769.000000, 8267.000000, 8217.000000, 8246.000000
4745, 115598528.000000, 2688.000000, 8354.000000, 8098.000000, 8183.000000
4746, 115598688.000000, 2503.000000, 8063.000000, 8072.000000, 8041.000000
4747, 115598848.000000, 2245.000000, 8165.000000, 8171.000000, 8166.000000
4748, 115599008.000000, 1946.500000, 8189.000000, 8193.000000, 8188.000000
4749, 115599168.000000, 1669.000000, 8194.000000, 8199.000000, 8194.000000
4750, 115599328.000000, 1454.000000, 8206.000000, 8197.000000, 8199.000000
4751, 115599488.000000, 1321.000000, 8218.000000, 8197.000000, 8203.000000
4752, 115599648.000000, 1269.500000, 8235.000000, 8195.000000, 8205.000000
4753, 115599808.000000, 1280.000000, 8256.000000, 8196.000000, 8216.000000
4754, 115599968.000000, 1317.500000, 8265.000000, 8204.000000, 8226.000000
4755, 115600128.000000, 1367.000000, 8257.000000, 8212.000000, 8232.000000
4756, 115600288.000000, 1411.000000, 8220.000000, 8217.000000, 8225.000000
4757, 115600448.000000, 1439.000000, 8179.000000, 8210.000000, 8205.000000
4758, 115600608.000000, 1441.000000, 8162.000000, 8201.000000, 8188.000000
4759, 115600768.000000, 1411.000000, 8153.000000, 8197.000000, 8180.000000
4760, 115600928.000000, 1364.000000, 8149.000000, 8199.000000, 8182.000000
4761, 115601088.000000, 1315.000000, 8155.000000, 8195.000000, 8180.000000
4762, 115601248.000000, 1272.500000, 8166.000000, 8194.000000, 8186.000000
4763, 115601408.000000, 1228.000000, 8173.000000, 8195.000000, 8188.000000
4764, 115601568.000000, 1176.500000, 8167.000000, 8197.000000, 8188.000000
4765, 115601728.000000, 1123.000000, 8163.000000, 8198.000000, 8190.000000
4766, 115601888.000000, 1077.500000, 8162.000000, 8195.000000, 8186.000000
4767, 115602048.000000, 1035.000000, 8164.000000, 8190.000000, 8179.000000
4768, 115602208.000000, 993.000000, 8167.000000, 8189.000000, 8178.000000
4769, 115602368.000000, 947.000000, 8168.000000, 8194.000000, 8185.000000
4770, 115602528.000000, 936.500000, 8172.000000, 8206.000000, 8212.000000
4771, 115602688.000000, 1020.000000, 8181.000000, 8200.000000, 8204.000000
4772, 115602848.000000, 1288.000000, 8186.000000, 8197.000000, 8200.000000
4773, 115603008.000000, 1692.000000, 8163.000000, 8179.000000, 8165.000000
4774, 115603168.000000, 2139.500000, 8164.000000, 8179.000000, 8162.000000
4775, 115603328.000000, 2515.000000, 8172.000000, 8177.000000, 8167.000000
4776, 115603488.000000, 2765.000000, 8169.000000, 8179.000000, 8169.000000
4777, 115603648.000000, 2890.000000, 8152.000000, 8234.000000, 8223.000000
4778, 115603808.000000, 2890.000000, 8464.000000, 8098.000000, 8206.000000
4779, 115603968.000000, 2786.000000, 8069.000000, 8097.000000, 8082.000000
4780, 115604128.000000, 2574.000000, 8113.000000, 8121.000000, 8110.000000
4781, 115604288.000000, 2299.000000, 8175.000000, 8188.000000, 8180.000000
4782, 115604448.000000, 2005.500000, 8184.000000, 8188.000000, 8182.000000
4783, 115604608.000000, 1746.000000, 8193.000000, 8191.000000, 8189.000000
4784, 115604768.000000, 1544.500000, 8204.000000, 8194.000000, 8195.000000
4785, 115604928.000000, 1413.000000, 8224.000000, 8194.000000, 8202.000000
4786, 115605088.000000, 1356.000000, 8247.000000, 8194.000000, 8210.000000
4787, 115605248.000000, 1351.000000, 8265.000000, 8197.000000, 8219.000000
4788, 115605408.000000, 1375.500000, 8257.000000, 8201.000000, 8223.000000
4789, 115605568.000000, 1405.000000, 8241.000000, 8212.000000, 8230.000000
4790, 115605728.000000, 1428.000000, 8201.000000, 8219.000000, 8224.000000
4791, 115605888.000000, 1441.000000, 8169.000000, 8208.000000, 8202.000000
4792, 115606048.000000, 1435.500000, 8162.000000, 8196.000000, 8185.000000
4793, 115606208.000000, 1408.000000, 8164.000000, 8195.000000, 8182.000000
4794, 115606368.000000, 1358.500000, 8165.000000, 8194.000000, 8185.000000
4795, 115606528.000000, 1304.000000, 8173.000000, 8200.000000, 8193.000000
4796, 115606688.000000, 1261.500000, 8177.000000, 8196.000000, 8193.000000
4797, 115606848.000000, 1228.000000, 8182.000000, 8192.000000, 8192.000000
4798, 115607008.000000, 1205.500000, 8180.000000, 8197.000000, 8194.000000
4799, 115607168.000000, 1191.000000, 8180.000000, 8194.000000, 8191.000000
4800, 115607328.000000, 1188.000000, 8175.000000, 8195.000000, 8191.000000
4801, 115607488.000000, 1194.000000, 8176.000000, 8192.000000, 8183.000000
4802, 115607648.000000, 1196.500000, 8181.000000, 8201.000000, 8201.000000
4803, 115607808.000000, 1190.000000, 8178.000000, 8204.000000, 8206.000000
4804, 115607968.000000, 1213.500000, 8198.000000, 8207.000000, 8212.000000
4805, 115608128.000000, 1352.000000, 8179.000000, 8190.000000, 8183.000000
4806, 115608288.000000, 1659.500000, 8172.000000, 8184.000000, 8170.000000
4807, 115608448.000000, 2079.000000, 8172.000000, 8182.000000, 8168.000000
4808, 115608608.000000, 2491.500000, 8173.000000, 8186.000000, 8173.000000
4809, 115608768.000000, 2805.000000, 8173.000000, 8196.000000, 8187.000000
4810, 115608928.000000, 2982.000000, 8303.000000, 8219.000000, 8258.000000
4811, 115609088.000000, 3041.000000, 8270.000000, 8121.000000, 8170.000000
4812, 115609248.000000, 2980.500000, 8074.000000, 8076.000000, 8045.000000
4813, 115609408.000000, 2824.000000, 8172.000000, 8168.000000, 8164.000000
4814, 115609568.000000, 2583.500000, 8191.000000, 8195.000000, 8190.000000
4815, 115609728.000000, 2299.000000, 8196.000000, 8200.000000, 8196.000000
4816, 115609888.000000, 2020.500000, 8204.000000, 8201.000000, 8200.000000
4817, 115610048.000000, 1795.000000, 8224.000000, 8202.000000, 8206.000000
4818, 115610208.000000, 1645.000000, 8242.000000, 8205.000000, 8217.000000
4819, 115610368.000000, 1560.000000, 8258.000000, 8209.000000, 8226.000000
4820, 115610528.000000, 1528.000000, 8267.000000, 8216.000000, 8237.000000
4821, 115610688.000000, 1524.000000, 8253.000000, 8223.000000, 8239.000000
4822, 115610848.000000, 1536.500000, 8216.000000, 8233.000000, 8240.000000
4823, 115611008.000000, 1554.000000, 8183.000000, 8224.000000, 8221.000000
4824, 115611168.000000, 1567.000000, 8167.000000, 8214.000000, 8203.000000
4825, 115611328.000000, 1571.000000, 8162.000000, 8208.000000, 8197.000000
4826, 115611488.000000, 1558.500000, 8161.000000, 8205.000000, 8192.000000
4827, 115611648.000000, 1536.000000, 8171.000000, 8205.000000, 8196.000000
4828, 115611808.000000, 1502.500000, 8176.000000, 8205.000000, 8198.000000
4829, 115611968.000000, 1462.000000, 8178.000000, 8206.000000, 8200.000000
4830, 115612128.000000, 1418.500000, 8182.000000, 8208.000000, 8205.000000
4831, 115612288.000000, 1371.000000, 8182.000000, 8200.000000, 8195.000000
4832, 115612448.000000, 1329.000000, 8181.000000, 8198.000000, 8192.000000
4833, 115612608.000000, 1292.000000, 8187.000000, 8205.000000, 8207.000000
4834, 115612768.000000, 1257.500000, 8189.000000, 8209.000000, 8214.000000
4835, 115612928.000000, 1223.000000, 8205.000000, 8210.000000, 8218.000000
4836, 115613088.000000, 1202.500000, 8184.000000, 8190.000000, 8184.000000
4837, 115613248.000000, 1245.000000, 8178.000000, 8182.000000, 8168.000000
4838, 115613408.000000, 1425.500000, 8181.000000, 8184.000000, 8174.000000
4839, 115613568.000000, 1755.000000, 8177.000000, 8184.000000, 8175.000000
4840, 115613728.000000, 2149.500000, 8175.000000, 8200.000000, 8192.000000
4841, 115613888.000000, 2510.000000, 8290.000000, 8214.000000, 8252.000000
4842, 115614048.000000, 2770.000000, 8272.000000, 8123.000000, 8169.000000
4843, 115614208.000000, 2926.000000, 8077.000000, 8081.000000, 8054.000000
4844, 115614368.000000, 2964.500000, 8172.000000, 8168.000000, 8164.000000
4845, 115614528.000000, 2904.000000, 8195.000000, 8198.000000, 8195.000000
4846, 115614688.000000, 2746.000000, 8201.000000, 8202.000000, 8199.000000
4847, 115614848.000000, 2518.000000, 8205.000000, 8200.000000, 8198.000000
4848, 115615008.000000, 2253.000000, 8229.000000, 8202.000000, 8208.000000
4849, 115615168.000000, 2000.000000, 8246.000000, 8202.000000, 8215.000000
4850, 115615328.000000, 1800.500000, 8263.000000, 8206.000000, 8224.000000
4851, 115615488.000000, 1668.000000, 8263.000000, 8211.000000, 8229.000000
4852, 115615648.000000, 1614.500000, 8254.000000, 8221.000000, 8237.000000
4853, 115615808.000000, 1617.000000, 8221.000000, 8231.000000, 8241.000000
4854, 115615968.000000, 1648.000000, 8187.000000, 8224.000000, 8222.000000
4855, 115616128.000000, 1676.000000, 8164.000000, 8210.000000, 8199.000000
4856, 115616288.000000, 1688.500000, 8157.000000, 8204.000000, 8190.000000
4857, 115616448.000000, 1685.000000, 8162.000000, 8200.000000, 8187.000000
4858, 115616608.000000, 1669.500000, 8165.000000, 8199.000000, 8190.000000
4859, 115616768.000000, 1644.000000, 8171.000000, 8201.000000, 8194.000000
4860, 115616928.000000, 1600.500000, 8179.000000, 8201.000000, 8196.000000
4861, 115617088.000000, 1546.000000, 8177.000000, 8194.000000, 8191.000000
4862, 115617248.000000, 1481.500000, 8176.000000, 8194.000000, 8187.000000
4863, 115617408.000000, 1424.000000, 8177.000000, 8193.000000, 8190.000000
4864, 115617568.000000, 1377.000000, 8195.000000, 8204.000000, 8215.000000
4865, 115617728.000000, 1335.000000, 8203.000000, 8197.000000, 8207.000000
4866, 115617888.000000, 1289.000000, 8193.000000, 8186.000000, 8188.000000
4867, 115618048.000000, 1242.000000, 8168.000000, 8175.000000, 8164.000000
4868, 115618208.000000, 1247.000000, 8168.000000, 8176.000000, 8161.000000
4869, 115618368.000000, 1377.000000, 8170.000000, 8176.000000, 8163.000000
4870, 115618528.000000, 1670.500000, 8179.000000, 8180.000000, 8171.000000
4871, 115618688.000000, 2054.000000, 8209.000000, 8240.000000, 8252.000000
4872, 115618848.000000, 2414.000000, 8421.000000, 8058.000000, 8156.000000
4873, 115619008.000000, 2679.000000, 8047.000000, 8072.000000, 8047.000000
4874, 115619168.000000, 2829.000000, 8156.000000, 8144.000000, 8141.000000
4875, 115619328.000000, 2885.000000, 8190.000000, 8190.000000, 8186.000000
4876, 115619488.000000, 2838.000000, 8196.000000, 8200.000000, 8196.000000
4877, 115619648.000000, 2698.000000, 8204.000000, 8200.000000, 8199.000000
4878, 115619808.000000, 2472.500000, 8214.000000, 8204.000000, 8204.000000
4879, 115619968.000000, 2204.000000, 8230.000000, 8210.000000, 8216.000000
4880, 115620128.000000, 1944.000000, 8251.000000, 8210.000000, 8226.000000
4881, 115620288.000000, 1732.000000, 8262.000000, 8216.000000, 8234.000000
4882, 115620448.000000, 1592.000000, 8258.000000, 8227.000000, 8242.000000
4883, 115620608.000000, 1515.000000, 8228.000000, 8239.000000, 8250.000000
4884, 115620768.000000, 1498.000000, 8186.000000, 8235.000000, 8234.000000
4885, 115620928.000000, 1514.000000, 8161.000000, 8220.000000, 8211.000000
4886, 115621088.000000, 1549.000000, 8162.000000, 8207.000000, 8196.000000
4887, 115621248.000000, 1578.000000, 8168.000000, 8203.000000, 8194.000000
4888, 115621408.000000, 1589.500000, 8171.000000, 8205.000000, 8196.000000
4889, 115621568.000000, 1583.000000, 8172.000000, 8209.000000, 8203.000000
4890, 115621728.000000, 1557.500000, 8176.000000, 8213.000000, 8208.000000
4891, 115621888.000000, 1522.000000, 8172.000000, 8208.000000, 8202.000000
4892, 115622048.000000, 1473.500000, 8173.000000, 8203.000000, 8198.000000
4893, 115622208.000000, 1429.000000, 8188.000000, 8216.000000, 8222.000000
