1614, 104863960.000000, 1126.375000, 8242.500000, 8192.000000, 8207.500000
1615, 104864120.000000, 1079.000000, 8220.500000, 8199.000000, 8208.000000
1616, 104864280.000000, 1048.250000, 8190.500000, 8201.500000, 8201.500000
1617, 104864440.000000, 1023.250000, 8160.500000, 8199.500000, 8185.500000
1618, 104864600.000000, 997.875000, 8153.000000, 8193.000000, 8174.500000
1619, 104864760.000000, 969.375000, 8158.500000, 8190.500000, 8173.500000
1620, 104864920.000000, 941.500000, 8168.500000, 8190.000000, 8178.000000
1621, 104865080.000000, 917.000000, 8165.500000, 8187.000000, 8176.500000
1622, 104865240.000000, 900.750000, 8171.500000, 8195.000000, 8186.500000
1623, 104865400.000000, 884.875000, 8182.000000, 8195.500000, 8194.000000
1624, 104865560.000000, 867.625000, 8180.000000, 8203.000000, 8204.000000
1625, 104865720.000000, 836.750000, 8194.000000, 8194.000000, 8198.000000
1626, 104865880.000000, 798.375000, 8181.000000, 8187.500000, 8181.500000
1627, 104866040.000000, 772.750000, 8173.000000, 8181.000000, 8170.000000
1628, 104866200.000000, 814.875000, 8173.500000, 8180.500000, 8168.500000
1629, 104866360.000000, 966.000000, 8175.500000, 8182.000000, 8169.500000
1630, 104866520.000000, 1224.250000, 8170.000000, 8216.000000, 8210.000000
1631, 104866680.000000, 1524.875000, 8400.500000, 8131.000000, 8202.000000
1632, 104866840.000000, 1796.250000, 8206.500000, 8147.500000, 8184.000000
1633, 104867000.000000, 1998.250000, 8107.000000, 8129.500000, 8111.500000
1634, 104867160.000000, 2107.000000, 8173.000000, 8183.500000, 8173.000000
1635, 104867320.000000, 2131.375000, 8183.500000, 8192.500000, 8181.500000
1636, 104867480.000000, 2076.625000, 8196.500000, 8191.500000, 8186.000000
1637, 104867640.000000, 1975.750000, 8201.500000, 8194.500000, 8193.000000
1638, 104867800.000000, 1846.750000, 8216.500000, 8192.000000, 8194.500000
1639, 104867960.000000, 1714.500000, 8236.500000, 8190.000000, 8202.500000
1640, 104868120.000000, 1598.250000, 8257.500000, 8190.500000, 8209.500000
1641, 104868280.000000, 1506.000000, 8264.000000, 8198.000000, 8222.000000
1642, 104868440.000000, 1450.750000, 8243.500000, 8204.500000, 8221.500000
1643, 104868600.000000, 1428.625000, 8198.000000, 8215.500000, 8216.500000
1644, 104868760.000000, 1421.625000, 8165.000000, 8205.000000, 8193.500000
1645, 104868920.000000, 1420.125000, 8157.500000, 8196.000000, 8181.500000
1646, 104869080.000000, 1415.250000, 8155.000000, 8195.000000, 8180.000000
1647, 104869240.000000, 1409.375000, 8162.500000, 8192.500000, 8180.000000
1648, 104869400.000000, 1396.000000, 8164.500000, 8197.000000, 8185.000000
1649, 104869560.000000, 1367.750000, 8172.000000, 8197.500000, 8188.500000
1650, 104869720.000000, 1326.875000, 8177.500000, 8207.500000, 8211.000000
1651, 104869880.000000, 1280.375000, 8186.000000, 8209.000000, 8216.000000
1652, 104870040.000000, 1230.500000, 8188.000000, 8198.000000, 8200.500000
1653, 104870200.000000, 1177.750000, 8164.000000, 8180.500000, 8166.000000
1654, 104870360.000000, 1121.500000, 8159.500000, 8175.000000, 8155.500000
1655, 104870520.000000, 1091.625000, 8161.000000, 8173.000000, 8154.000000
1656, 104870680.000000, 1147.250000, 8166.000000, 8174.500000, 8158.500000
1657, 104870840.000000, 1338.375000, 8158.500000, 8237.000000, 8227.000000
1658, 104871000.000000, 1633.375000, 8497.500000, 8057.500000, 8172.500000
1659, 104871160.000000, 1947.750000, 8068.000000, 8109.000000, 8089.000000
1660, 104871320.000000, 2206.000000, 8123.000000, 8120.500000, 8099.000000
1661, 104871480.000000, 2386.625000, 8178.500000, 8184.500000, 8174.000000
1662, 104871640.000000, 2484.000000, 8191.500000, 8190.000000, 8185.000000
1663, 104871800.000000, 2509.000000, 8202.500000, 8189.500000, 8187.000000
1664, 104871960.000000, 2471.750000, 8208.000000, 8189.000000, 8189.000000
1665, 104872120.000000, 2372.750000, 8228.500000, 8189.500000, 8196.500000
1666, 104872280.000000, 2237.250000, 8247.500000, 8191.000000, 8206.000000
1667, 104872440.000000, 2094.875000, 8260.500000, 8194.000000, 8212.500000
1668, 104872600.000000, 1975.625000, 8264.000000, 8199.500000, 8217.500000
1669, 104872760.000000, 1889.625000, 8233.000000, 8214.000000, 8225.500000
1670, 104872920.000000, 1836.375000, 8191.500000, 8216.500000, 8216.500000
1671, 104873080.000000, 1808.125000, 8163.500000, 8204.000000, 8195.500000
1672, 104873240.000000, 1796.125000, 8162.000000, 8191.500000, 8181.000000
1673, 104873400.000000, 1786.375000, 8159.000000, 8191.000000, 8178.500000
1674, 104873560.000000, 1773.750000, 8159.000000, 8193.000000, 8182.000000
1675, 104873720.000000, 1753.250000, 8168.500000, 8195.500000, 8189.000000
1676, 104873880.000000, 1720.750000, 8183.500000, 8205.500000, 8213.000000
1677, 104874040.000000, 1684.875000, 8197.500000, 8209.000000, 8220.500000
1678, 104874200.000000, 1649.000000, 8197.500000, 8198.000000, 8205.500000
1679, 104874360.000000, 1601.625000, 8180.000000, 8185.000000, 8180.500000
1680, 104874520.000000, 1546.000000, 8174.000000, 8180.000000, 8171.000000
1681, 104874680.000000, 1487.750000, 8170.500000, 8179.000000, 8169.000000
1682, 104874840.000000, 1461.500000, 8177.000000, 8179.500000, 8172.500000
1683, 104875000.000000, 1516.125000, 8165.500000, 8230.000000, 8225.500000
1684, 104875160.000000, 1702.000000, 8410.500000, 8090.000000, 8171.500000
1685, 104875320.000000, 1974.250000, 8070.000000, 8124.500000, 8115.500000
1686, 104875480.000000, 2263.875000, 8108.000000, 8105.000000, 8082.500000
1687, 104875640.000000, 2507.875000, 8181.500000, 8185.000000, 8180.500000
1688, 104875800.000000, 2685.875000, 8191.500000, 8191.000000, 8188.000000
1689, 104875960.000000, 2787.250000, 8197.000000, 8194.500000, 8194.000000
1690, 104876120.000000, 2803.500000, 8206.500000, 8193.500000, 8199.000000
1691, 104876280.000000, 2747.875000, 8214.500000, 8195.500000, 8205.500000
1692, 104876440.000000, 2632.125000, 8241.500000, 8196.000000, 8213.000000
1693, 104876600.000000, 2492.250000, 8252.500000, 8201.000000, 8220.500000
1694, 104876760.000000, 2346.375000, 8254.000000, 8207.500000, 8229.500000
1695, 104876920.000000, 2219.875000, 8229.500000, 8223.500000, 8238.500000
1696, 104877080.000000, 2126.500000, 8190.500000, 8226.000000, 8233.000000
1697, 104877240.000000, 2074.000000, 8166.000000, 8206.500000, 8202.500000
1698, 104877400.000000, 2056.250000, 8162.500000, 8197.500000, 8192.000000
1699, 104877560.000000, 2053.125000, 8158.500000, 8194.500000, 8186.500000
1700, 104877720.000000, 2044.750000, 8163.000000, 8195.000000, 8190.000000
1701, 104877880.000000, 2022.375000, 8169.500000, 8200.500000, 8196.500000
1702, 104878040.000000, 1992.125000, 8183.500000, 8213.500000, 8223.500000
1703, 104878200.000000, 1956.875000, 8193.000000, 8212.000000, 8224.000000
1704, 104878360.000000, 1913.125000, 8193.500000, 8199.500000, 8209.500000
1705, 104878520.000000, 1854.125000, 8180.500000, 8188.000000, 8185.500000
1706, 104878680.000000, 1782.750000, 8171.500000, 8183.500000, 8177.000000
1707, 104878840.000000, 1707.750000, 8171.500000, 8181.000000, 8173.500000
1708, 104879000.000000, 1658.000000, 8167.500000, 8180.500000, 8170.500000
1709, 104879160.000000, 1689.125000, 8170.500000, 8241.500000, 8240.500000
1710, 104879320.000000, 1847.375000, 8422.500000, 8046.000000, 8137.000000
1711, 104879480.000000, 2106.000000, 8039.000000, 8094.500000, 8075.500000
1712, 104879640.000000, 2387.000000, 8132.500000, 8130.000000, 8115.500000
1713, 104879800.000000, 2621.375000, 8176.000000, 8191.500000, 8180.500000
1714, 104879960.000000, 2776.500000, 8186.000000, 8195.500000, 8186.500000
1715, 104880120.000000, 2853.625000, 8193.000000, 8197.500000, 8190.500000
1716, 104880280.000000, 2848.000000, 8202.000000, 8198.500000, 8194.500000
1717, 104880440.000000, 2778.625000, 8216.500000, 8198.500000, 8200.500000
1718, 104880600.000000, 2653.875000, 8230.500000, 8199.000000, 8204.500000
1719, 104880760.000000, 2497.125000, 8244.500000, 8205.500000, 8214.500000
1720, 104880920.000000, 2339.875000, 8242.500000, 8215.000000, 8224.500000
1721, 104881080.000000, 2208.000000, 8216.000000, 8228.000000, 8232.000000
1722, 104881240.000000, 2116.500000, 8178.000000, 8219.000000, 8211.000000
1723, 104881400.000000, 2059.375000, 8159.000000, 8199.500000, 8184.500000
1724, 104881560.000000, 2028.250000, 8156.000000, 8194.000000, 8177.000000
1725, 104881720.000000, 2008.750000, 8154.500000, 8193.000000, 8173.500000
1726, 104881880.000000, 1993.750000, 8160.000000, 8192.500000, 8175.500000
1727, 104882040.000000, 1976.000000, 8165.000000, 8196.000000, 8181.000000
1728, 104882200.000000, 1950.125000, 8176.500000, 8208.500000, 8206.500000
1729, 104882360.000000, 1911.125000, 8184.500000, 8206.500000, 8207.500000
1730, 104882520.000000, 1860.375000, 8186.500000, 8198.000000, 8194.500000
1731, 104882680.000000, 1801.000000, 8169.000000, 8184.500000, 8169.500000
1732, 104882840.000000, 1743.000000, 8159.000000, 8178.500000, 8157.500000
1733, 104883000.000000, 1689.375000, 8161.500000, 8177.000000, 8155.000000
1734, 104883160.000000, 1662.750000, 8162.500000, 8176.500000, 8154.000000
1735, 104883320.000000, 1720.000000, 8166.500000, 8240.000000, 8227.000000
1736, 104883480.000000, 1895.625000, 8427.000000, 8011.000000, 8108.000000
1737, 104883640.000000, 2158.125000, 8034.000000, 8051.500000, 8010.500000
1738, 104883800.000000, 2424.375000, 8141.500000, 8155.000000, 8137.500000
1739, 104883960.000000, 2639.625000, 8174.000000, 8190.500000, 8172.000000
1740, 104884120.000000, 2771.500000, 8175.500000, 8196.500000, 8180.500000
1741, 104884280.000000, 2818.375000, 8188.000000, 8198.000000, 8186.500000
1742, 104884440.000000, 2789.625000, 8194.500000, 8198.000000, 8189.000000
1743, 104884600.000000, 2699.500000, 8209.500000, 8196.000000, 8193.000000
1744, 104884760.000000, 2564.750000, 8222.000000, 8199.500000, 8201.500000
1745, 104884920.000000, 2405.000000, 8235.500000, 8209.500000, 8217.500000
1746, 104885080.000000, 2251.625000, 8229.500000, 8216.500000, 8225.500000
1747, 104885240.000000, 2121.875000, 8201.000000, 8225.500000, 8225.500000
1748, 104885400.000000, 2026.750000, 8167.500000, 8211.500000, 8200.500000
1749, 104885560.000000, 1965.500000, 8148.000000, 8197.500000, 8178.500000
1750, 104885720.000000, 1930.875000, 8147.500000, 8190.500000, 8172.000000
1751, 104885880.000000, 1906.125000, 8152.500000, 8188.500000, 8172.500000
1752, 104886040.000000, 1880.500000, 8158.000000, 8191.500000, 8178.500000
1753, 104886200.000000, 1845.875000, 8167.000000, 8189.500000, 8180.000000
1754, 104886360.000000, 1800.125000, 8166.000000, 8193.000000, 8182.000000
1755, 104886520.000000, 1744.875000, 8179.500000, 8204.000000, 8208.000000
1756, 104886680.000000, 1686.625000, 8178.000000, 8209.000000, 8214.500000
1757, 104886840.000000, 1622.375000, 8189.000000, 8197.500000, 8201.500000
1758, 104887000.000000, 1547.375000, 8176.500000, 8180.500000, 8172.500000
1759, 104887160.000000, 1473.375000, 8159.500000, 8176.000000, 8158.500000
1760, 104887320.000000, 1446.875000, 8165.500000, 8174.500000, 8160.000000
1761, 104887480.000000, 1535.375000, 8168.500000, 8176.000000, 8163.500000
1762, 104887640.000000, 1755.250000, 8158.000000, 8230.000000, 8224.500000
1763, 104887800.000000, 2041.500000, 8438.000000, 8072.000000, 8173.000000
1764, 104887960.000000, 2302.125000, 8061.500000, 8048.500000, 8028.000000
1765, 104888120.000000, 2486.625000, 8129.000000, 8123.500000, 8112.500000
1766, 104888280.000000, 2581.875000, 8175.000000, 8190.500000, 8180.500000
1767, 104888440.000000, 2598.500000, 8184.000000, 8196.000000, 8186.000000
1768, 104888600.000000, 2547.500000, 8195.500000, 8195.000000, 8188.500000
1769, 104888760.000000, 2435.375000, 8200.000000, 8198.000000, 8194.500000
1770, 104888920.000000, 2284.625000, 8216.500000, 8199.500000, 8202.500000
1771, 104889080.000000, 2125.625000, 8232.000000, 8200.000000, 8209.500000
1772, 104889240.000000, 1988.000000, 8247.500000, 8203.500000, 8218.500000
1773, 104889400.000000, 1883.625000, 8247.000000, 8208.000000, 8222.000000
1774, 104889560.000000, 1811.000000, 8225.000000, 8219.500000, 8228.500000
1775, 104889720.000000, 1760.250000, 8192.000000, 8223.000000, 8224.000000
1776, 104889880.000000, 1723.125000, 8167.000000, 8212.500000, 8205.000000
1777, 104890040.000000, 1694.375000, 8159.500000, 8202.500000, 8188.500000
1778, 104890200.000000, 1670.625000, 8159.500000, 8201.000000, 8187.500000
1779, 104890360.000000, 1646.375000, 8164.000000, 8205.000000, 8196.500000
1780, 104890520.000000, 1611.000000, 8169.000000, 8207.000000, 8201.000000
1781, 104890680.000000, 1561.750000, 8173.000000, 8209.000000, 8206.000000
1782, 104890840.000000, 1500.625000, 8173.000000, 8207.500000, 8202.500000
1783, 104891000.000000, 1440.875000, 8173.000000, 8199.500000, 8194.500000
1784, 104891160.000000, 1387.125000, 8172.000000, 8201.000000, 8194.000000
1785, 104891320.000000, 1333.625000, 8171.500000, 8204.000000, 8197.500000
1786, 104891480.000000, 1282.250000, 8179.000000, 8218.000000, 8226.000000
1787, 104891640.000000, 1262.625000, 8186.500000, 8210.000000, 8214.500000
1788, 104891800.000000, 1359.375000, 8185.500000, 8197.000000, 8195.000000
1789, 104891960.000000, 1582.500000, 8169.000000, 8191.500000, 8177.500000
1790, 104892120.000000, 1891.250000, 8168.500000, 8192.000000, 8180.000000
1791, 104892280.000000, 2181.500000, 8172.500000, 8193.000000, 8183.500000
1792, 104892440.000000, 2395.625000, 8166.500000, 8207.500000, 8198.500000
1793, 104892600.000000, 2514.625000, 8278.000000, 8208.500000, 8240.000000
1794, 104892760.000000, 2540.375000, 8281.000000, 8073.500000, 8126.500000
1795, 104892920.000000, 2495.375000, 8070.500000, 8087.000000, 8052.500000
1796, 104893080.000000, 2392.250000, 8168.500000, 8197.000000, 8189.500000
1797, 104893240.000000, 2254.375000, 8185.000000, 8210.500000, 8203.500000
1798, 104893400.000000, 2106.625000, 8193.500000, 8211.500000, 8206.000000
1799, 104893560.000000, 1977.000000, 8201.000000, 8215.000000, 8212.500000
1800, 104893720.000000, 1877.625000, 8217.000000, 8212.500000, 8217.000000
1801, 104893880.000000, 1809.000000, 8227.000000, 8214.000000, 8224.500000
1802, 104894040.000000, 1764.750000, 8245.000000, 8218.000000, 8236.000000
1803, 104894200.000000, 1735.250000, 8248.500000, 8220.000000, 8237.500000
1804, 104894360.000000, 1714.375000, 8240.000000, 8227.500000, 8241.500000
1805, 104894520.000000, 1696.000000, 8210.000000, 8235.500000, 8241.500000
1806, 104894680.000000, 1671.500000, 8175.500000, 8230.500000, 8226.500000
1807, 104894840.000000, 1636.000000, 8162.500000, 8219.000000, 8210.500000
1808, 104895000.000000, 1589.875000, 8156.000000, 8212.500000, 8200.000000
1809, 104895160.000000, 1540.500000, 8161.500000, 8211.500000, 8201.500000
1810, 104895320.000000, 1489.125000, 8168.500000, 8216.000000, 8211.500000
1811, 104895480.000000, 1437.500000, 8173.000000, 8215.000000, 8212.000000
1812, 104895640.000000, 1387.875000, 8179.500000, 8213.000000, 8211.000000
1813, 104895800.000000, 1343.125000, 8175.000000, 8214.000000, 8210.000000
1814, 104895960.000000, 1301.250000, 8173.000000, 8208.500000, 8203.000000
1815, 104896120.000000, 1255.375000, 8173.000000, 8206.500000, 8202.000000
1816, 104896280.000000, 1204.500000, 8173.500000, 8207.500000, 8203.500000
1817, 104896440.000000, 1169.000000, 8177.500000, 8220.000000, 8229.500000
1818, 104896600.000000, 1225.125000, 8189.500000, 8211.500000, 8218.000000
1819, 104896760.000000, 1410.250000, 8185.000000, 8202.500000, 8203.000000
1820, 104896920.000000, 1708.000000, 8167.000000, 8195.500000, 8182.500000
1821, 104897080.000000, 2014.500000, 8169.000000, 8194.000000, 8182.000000
1822, 104897240.000000, 2251.750000, 8169.500000, 8193.500000, 8182.000000
1823, 104897400.000000, 2387.125000, 8169.000000, 8204.500000, 8194.500000
1824, 104897560.000000, 2428.250000, 8276.000000, 8212.500000, 8241.500000
1825, 104897720.000000, 2397.500000, 8285.500000, 8093.000000, 8147.000000
1826, 104897880.000000, 2317.000000, 8070.000000, 8092.000000, 8059.000000
1827, 104898040.000000, 2204.250000, 8169.500000, 8190.000000, 8184.500000
1828, 104898200.000000, 2067.000000, 8181.500000, 8208.500000, 8198.000000
1829, 104898360.000000, 1929.625000, 8193.000000, 8208.500000, 8201.500000
1830, 104898520.000000, 1819.125000, 8200.000000, 8210.000000, 8207.500000
1831, 104898680.000000, 1743.125000, 8212.000000, 8211.000000, 8215.000000
1832, 104898840.000000, 1699.875000, 8226.000000, 8209.000000, 8217.000000
1833, 104899000.000000, 1683.500000, 8246.000000, 8211.500000, 8227.500000
1834, 104899160.000000, 1674.500000, 8245.500000, 8214.500000, 8230.000000
1835, 104899320.000000, 1662.750000, 8240.500000, 8221.500000, 8236.000000
1836, 104899480.000000, 1639.875000, 8208.000000, 8232.000000, 8238.500000
1837, 104899640.000000, 1609.750000, 8173.000000, 8229.500000, 8226.000000
1838, 104899800.000000, 1569.625000, 8160.000000, 8215.500000, 8206.500000
1839, 104899960.000000, 1524.375000, 8153.500000, 8213.000000, 8200.500000
1840, 104900120.000000, 1473.125000, 8161.500000, 8213.500000, 8207.500000
1841, 104900280.000000, 1421.500000, 8173.500000, 8215.000000, 8213.000000
1842, 104900440.000000, 1371.500000, 8177.500000, 8210.500000, 8211.000000
1843, 104900600.000000, 1324.250000, 8175.000000, 8209.500000, 8207.500000
1844, 104900760.000000, 1278.250000, 8174.000000, 8207.000000, 8204.000000
1845, 104900920.000000, 1233.250000, 8172.500000, 8205.000000, 8201.500000
1846, 104901080.000000, 1189.625000, 8171.000000, 8205.500000, 8202.500000
1847, 104901240.000000, 1146.125000, 8171.500000, 8203.500000, 8197.000000
1848, 104901400.000000, 1112.125000, 8174.000000, 8207.000000, 8207.000000
1849, 104901560.000000, 1128.000000, 8176.500000, 8210.500000, 8215.000000
1850, 104901720.000000, 1253.625000, 8191.000000, 8209.500000, 8217.500000
1851, 104901880.000000, 1492.500000, 8176.000000, 8196.000000, 8192.500000
1852, 104902040.000000, 1782.125000, 8168.500000, 8190.500000, 8180.000000
1853, 104902200.000000, 2035.000000, 8171.000000, 8187.000000, 8176.500000
1854, 104902360.000000, 2201.250000, 8173.500000, 8188.500000, 8178.500000
1855, 104902520.000000, 2275.750000, 8160.000000, 8240.000000, 8236.000000
1856, 104902680.000000, 2276.000000, 8430.500000, 8100.500000, 8191.500000
1857, 104902840.000000, 2214.750000, 8092.500000, 8118.500000, 8113.500000
1858, 104903000.000000, 2110.625000, 8121.000000, 8124.000000, 8114.000000
1859, 104903160.000000, 1984.375000, 8181.000000, 8194.500000, 8189.500000
1860, 104903320.000000, 1857.375000, 8190.500000, 8200.500000, 8195.000000
1861, 104903480.000000, 1754.500000, 8202.000000, 8206.000000, 8207.500000
1862, 104903640.000000, 1684.750000, 8212.500000, 8204.000000, 8207.500000
1863, 104903800.000000, 1643.500000, 8222.500000, 8202.500000, 8209.000000
1864, 104903960.000000, 1628.250000, 8241.000000, 8201.000000, 8216.500000
1865, 104904120.000000, 1623.250000, 8256.000000, 8204.000000, 8225.500000
1866, 104904280.000000, 1616.875000, 8256.000000, 8210.000000, 8230.000000
1867, 104904440.000000, 1607.625000, 8238.500000, 8216.000000, 8231.000000
1868, 104904600.000000, 1589.625000, 8198.000000, 8221.500000, 8224.500000
1869, 104904760.000000, 1559.750000, 8173.500000, 8214.000000, 8210.000000
1870, 104904920.000000, 1522.000000, 8161.000000, 8210.000000, 8202.500000
1871, 104905080.000000, 1479.250000, 8161.500000, 8206.500000, 8199.500000
1872, 104905240.000000, 1434.250000, 8169.500000, 8208.000000, 8204.500000
1873, 104905400.000000, 1392.000000, 8176.000000, 8206.000000, 8206.000000
1874, 104905560.000000, 1351.375000, 8184.000000, 8200.500000, 8204.000000
1875, 104905720.000000, 1311.125000, 8179.500000, 8202.000000, 8202.500000
1876, 104905880.000000, 1267.625000, 8179.500000, 8199.000000, 8200.500000
1877, 104906040.000000, 1228.875000, 8176.000000, 8197.000000, 8197.000000
1878, 104906200.000000, 1193.375000, 8174.000000, 8195.500000, 8192.500000
1879, 104906360.000000, 1154.000000, 8170.000000, 8195.000000, 8190.000000
1880, 104906520.000000, 1121.875000, 8173.500000, 8195.000000, 8193.000000
1881, 104906680.000000, 1142.625000, 8181.500000, 8209.000000, 8224.000000
1882, 104906840.000000, 1281.875000, 8192.500000, 8203.000000, 8212.500000
1883, 104907000.000000, 1533.000000, 8187.000000, 8196.000000, 8200.500000
1884, 104907160.000000, 1815.500000, 8167.000000, 8182.500000, 8173.500000
1885, 104907320.000000, 2049.875000, 8175.500000, 8187.000000, 8178.500000
1886, 104907480.000000, 2197.000000, 8174.500000, 8185.500000, 8179.000000
1887, 104907640.000000, 2258.375000, 8170.500000, 8208.500000, 8207.000000
1888, 104907800.000000, 2245.500000, 8322.500000, 8174.500000, 8224.500000
1889, 104907960.000000, 2171.625000, 8218.500000, 8119.000000, 8159.000000
1890, 104908120.000000, 2052.750000, 8079.000000, 8102.000000, 8076.000000
1891, 104908280.000000, 1915.875000, 8176.000000, 8186.000000, 8184.500000
1892, 104908440.000000, 1793.125000, 8190.000000, 8199.000000, 8197.000000
1893, 104908600.000000, 1697.125000, 8199.000000, 8202.000000, 8200.000000
1894, 104908760.000000, 1636.625000, 8206.000000, 8199.000000, 8201.500000
1895, 104908920.000000, 1605.125000, 8217.000000, 8203.000000, 8211.000000
1896, 104909080.000000, 1596.000000, 8231.500000, 8202.000000, 8217.000000
1897, 104909240.000000, 1596.875000, 8250.500000, 8200.000000, 8220.000000
1898, 104909400.000000, 1601.000000, 8252.500000, 8205.500000, 8225.000000
1899, 104909560.000000, 1596.500000, 8240.500000, 8209.000000, 8224.500000
1900, 104909720.000000, 1580.000000, 8214.500000, 8220.500000, 8231.500000
1901, 104909880.000000, 1554.500000, 8177.500000, 8219.000000, 8219.000000
1902, 104910040.000000, 1520.375000, 8163.000000, 8207.000000, 8201.000000
1903, 104910200.000000, 1482.000000, 8157.500000, 8202.500000, 8194.000000
1904, 104910360.000000, 1442.000000, 8162.500000, 8203.000000, 8195.000000
1905, 104910520.000000, 1402.000000, 8174.500000, 8203.500000, 8203.000000
1906, 104910680.000000, 1362.375000, 8176.000000, 8203.500000, 8204.000000
1907, 104910840.000000, 1325.875000, 8177.500000, 8201.500000, 8201.000000
1908, 104911000.000000, 1291.125000, 8177.500000, 8195.500000, 8194.000000
1909, 104911160.000000, 1260.500000, 8175.500000, 8195.000000, 8192.500000
1910, 104911320.000000, 1231.125000, 8176.000000, 8193.500000, 8190.500000
1911, 104911480.000000, 1194.125000, 8172.500000, 8190.000000, 8186.500000
1912, 104911640.000000, 1152.500000, 8177.500000, 8203.000000, 8208.500000
1913, 104911800.000000, 1146.250000, 8178.000000, 8205.500000, 8212.500000
1914, 104911960.000000, 1243.875000, 8193.500000, 8203.500000, 8213.500000
1915, 104912120.000000, 1464.000000, 8177.500000, 8185.500000, 8181.000000
1916, 104912280.000000, 1753.125000, 8170.000000, 8184.000000, 8175.000000
1917, 104912440.000000, 2007.875000, 8171.500000, 8183.500000, 8175.000000
1918, 104912600.000000, 2174.250000, 8173.500000, 8184.500000, 8176.500000
1919, 104912760.000000, 2250.625000, 8167.000000, 8241.500000, 8240.000000
1920, 104912920.000000, 2260.250000, 8492.500000, 8068.000000, 8185.500000
1921, 104913080.000000, 2217.875000, 8077.500000, 8117.000000, 8105.000000
1922, 104913240.000000, 2124.000000, 8132.500000, 8139.000000, 8134.500000
1923, 104913400.000000, 1993.000000, 8175.500000, 8190.500000, 8182.000000
1924, 104913560.000000, 1854.875000, 8191.000000, 8193.000000, 8187.500000
1925, 104913720.000000, 1745.750000, 8199.500000, 8195.000000, 8194.000000
1926, 104913880.000000, 1675.875000, 8212.500000, 8198.000000, 8202.500000
1927, 104914040.000000, 1642.125000, 8219.500000, 8196.000000, 8203.500000
1928, 104914200.000000, 1631.250000, 8240.000000, 8194.500000, 8208.500000
1929, 104914360.000000, 1629.875000, 8253.500000, 8196.000000, 8215.000000
1930, 104914520.000000, 1634.750000, 8256.500000, 8200.000000, 8220.000000
1931, 104914680.000000, 1637.000000, 8234.000000, 8208.500000, 8224.500000
1932, 104914840.000000, 1628.750000, 8197.500000, 8213.000000, 8217.500000
1933, 104915000.000000, 1605.500000, 8170.500000, 8209.500000, 8205.500000
1934, 104915160.000000, 1574.125000, 8158.000000, 8200.000000, 8191.000000
1935, 104915320.000000, 1540.625000, 8163.000000, 8198.000000, 8190.000000
1936, 104915480.000000, 1507.125000, 8168.500000, 8199.000000, 8196.500000
1937, 104915640.000000, 1475.625000, 8176.500000, 8196.500000, 8196.000000
1938, 104915800.000000, 1442.375000, 8180.000000, 8193.000000, 8194.000000
1939, 104915960.000000, 1405.875000, 8177.500000, 8192.000000, 8191.500000
1940, 104916120.000000, 1369.125000, 8180.000000, 8190.500000, 8189.500000
1941, 104916280.000000, 1337.500000, 8179.500000, 8188.500000, 8186.500000
1942, 104916440.000000, 1306.125000, 8176.500000, 8187.500000, 8183.500000
1943, 104916600.000000, 1267.125000, 8176.500000, 8186.500000, 8182.500000
1944, 104916760.000000, 1231.000000, 8185.000000, 8197.500000, 8207.500000
1945, 104916920.000000, 1236.500000, 8194.500000, 8197.500000, 8207.000000
1946, 104917080.000000, 1360.750000, 8192.000000, 8189.000000, 8193.000000
1947, 104917240.000000, 1616.250000, 8172.500000, 8178.000000, 8169.500000
1948, 104917400.000000, 1930.750000, 8177.000000, 8175.000000, 8166.000000
1949, 104917560.000000, 2195.625000, 8178.500000, 8174.500000, 8166.000000
1950, 104917720.000000, 2363.625000, 8175.000000, 8198.000000, 8194.000000
1951, 104917880.000000, 2442.500000, 8335.500000, 8170.000000, 8222.500000
1952, 104918040.000000, 2444.375000, 8223.000000, 8122.000000, 8159.500000
1953, 104918200.000000, 2384.875000, 8083.000000, 8090.500000, 8061.000000
1954, 104918360.000000, 2274.125000, 8173.000000, 8167.500000, 8160.000000
1955, 104918520.000000, 2133.375000, 8188.500000, 8185.500000, 8177.500000
1956, 104918680.000000, 1992.500000, 8199.500000, 8191.500000, 8187.000000
1957, 104918840.000000, 1879.750000, 8211.000000, 8188.500000, 8190.500000
1958, 104919000.000000, 1810.500000, 8220.000000, 8186.000000, 8190.500000
1959, 104919160.000000, 1778.000000, 8233.000000, 8184.500000, 8195.000000
1960, 104919320.000000, 1769.000000, 8247.500000, 8188.500000, 8203.500000
1961, 104919480.000000, 1769.875000, 8256.000000, 8195.000000, 8211.000000
1962, 104919640.000000, 1774.375000, 8248.000000, 8199.500000, 8215.500000
1963, 104919800.000000, 1776.000000, 8216.500000, 8211.500000, 8219.000000
1964, 104919960.000000, 1768.125000, 8183.000000, 8210.000000, 8207.500000
1965, 104920120.000000, 1752.000000, 8161.500000, 8202.500000, 8193.500000
1966, 104920280.000000, 1722.125000, 8159.500000, 8199.500000, 8190.000000
1967, 104920440.000000, 1683.125000, 8168.000000, 8196.500000, 8189.500000
1968, 104920600.000000, 1643.000000, 8174.500000, 8194.000000, 8187.500000
1969, 104920760.000000, 1603.875000, 8181.000000, 8190.000000, 8187.000000
1970, 104920920.000000, 1568.750000, 8179.000000, 8191.500000, 8187.000000
1971, 104921080.000000, 1532.000000, 8180.000000, 8192.500000, 8189.500000
1972, 104921240.000000, 1489.250000, 8180.000000, 8191.500000, 8186.000000
1973, 104921400.000000, 1446.125000, 8175.500000, 8189.500000, 8185.000000
1974, 104921560.000000, 1402.625000, 8180.500000, 8204.000000, 8208.500000
1975, 104921720.000000, 1359.125000, 8191.000000, 8200.500000, 8205.000000
1976, 104921880.000000, 1333.500000, 8189.500000, 8189.500000, 8192.500000
1977, 104922040.000000, 1389.125000, 8170.000000, 8179.500000, 8165.500000
1978, 104922200.000000, 1597.875000, 8175.000000, 8177.500000, 8167.500000
1979, 104922360.000000, 1922.625000, 8176.000000, 8178.000000, 8165.000000
1980, 104922520.000000, 2251.250000, 8171.500000, 8198.000000, 8191.500000
1981, 104922680.000000, 2490.500000, 8326.500000, 8180.500000, 8226.500000
1982, 104922840.000000, 2614.500000, 8212.000000, 8126.000000, 8157.500000
1983, 104923000.000000, 2652.250000, 8077.000000, 8089.500000, 8057.000000
1984, 104923160.000000, 2626.625000, 8168.000000, 8166.500000, 8158.000000
1985, 104923320.000000, 2543.000000, 8190.000000, 8191.500000, 8186.500000
1986, 104923480.000000, 2410.500000, 8200.500000, 8192.500000, 8189.500000
1987, 104923640.000000, 2254.000000, 8204.500000, 8190.000000, 8188.500000
1988, 104923800.000000, 2110.875000, 8218.000000, 8188.500000, 8191.000000
1989, 104923960.000000, 2002.625000, 8232.500000, 8189.500000, 8197.500000
1990, 104924120.000000, 1936.625000, 8247.000000, 8189.000000, 8203.000000
1991, 104924280.000000, 1907.000000, 8248.000000, 8192.500000, 8206.500000
1992, 104924440.000000, 1901.750000, 8244.000000, 8207.500000, 8221.000000
1993, 104924600.000000, 1910.500000, 8215.500000, 8217.000000, 8225.000000
1994, 104924760.000000, 1920.500000, 8181.500000, 8215.000000, 8212.500000
1995, 104924920.000000, 1925.000000, 8164.000000, 8202.000000, 8193.000000
1996, 104925080.000000, 1915.375000, 8158.000000, 8200.500000, 8191.000000
1997, 104925240.000000, 1890.625000, 8169.500000, 8197.500000, 8190.000000
1998, 104925400.000000, 1856.000000, 8175.500000, 8195.000000, 8187.500000
1999, 104925560.000000, 1815.000000, 8181.000000, 8193.500000, 8189.500000
2000, 104925720.000000, 1778.500000, 8186.000000, 8194.000000, 8193.000000
2001, 104925880.000000, 1745.750000, 8182.500000, 8193.000000, 8190.000000
2002, 104926040.000000, 1711.375000, 8180.000000, 8194.000000, 8191.000000
2003, 104926200.000000, 1674.750000, 8182.500000, 8204.500000, 8210.000000
2004, 104926360.000000, 1639.750000, 8194.000000, 8203.000000, 8208.500000
2005, 104926520.000000, 1604.750000, 8190.500000, 8196.500000, 8199.500000
2006, 104926680.000000, 1574.750000, 8175.500000, 8181.000000, 8170.500000
2007, 104926840.000000, 1598.250000, 8172.500000, 8181.000000, 8169.500000
2008, 104927000.000000, 1738.125000, 8171.000000, 8177.500000, 8163.000000
2009, 104927160.000000, 2015.500000, 8171.500000, 8188.500000, 8177.000000
2010, 104927320.000000, 2333.000000, 8275.500000, 8214.500000, 8242.000000
2011, 104927480.000000, 2597.500000, 8282.000000, 8085.000000, 8135.000000
2012, 104927640.000000, 2753.125000, 8060.000000, 8086.500000, 8055.500000
2013, 104927800.000000, 2820.250000, 8157.000000, 8159.000000, 8145.000000
2014, 104927960.000000, 2812.625000, 8184.500000, 8186.500000, 8176.000000
2015, 104928120.000000, 2742.500000, 8194.500000, 8193.500000, 8187.500000
2016, 104928280.000000, 2624.000000, 8203.000000, 8193.000000, 8188.000000
2017, 104928440.000000, 2473.875000, 8205.500000, 8193.500000, 8191.000000
2018, 104928600.000000, 2321.375000, 8226.000000, 8191.500000, 8195.500000
2019, 104928760.000000, 2203.125000, 8242.000000, 8190.000000, 8200.000000
2020, 104928920.000000, 2136.625000, 8250.500000, 8197.500000, 8207.500000
2021, 104929080.000000, 2106.000000, 8244.000000, 8208.000000, 8219.500000
2022, 104929240.000000, 2100.375000, 8215.000000, 8221.500000, 8227.000000
2023, 104929400.000000, 2104.750000, 8183.500000, 8217.500000, 8213.000000
2024, 104929560.000000, 2107.625000, 8163.000000, 8207.500000, 8196.500000
2025, 104929720.000000, 2102.375000, 8162.500000, 8200.000000, 8189.500000
2026, 104929880.000000, 2088.375000, 8165.000000, 8198.000000, 8189.000000
2027, 104930040.000000, 2063.500000, 8176.500000, 8196.000000, 8191.000000
2028, 104930200.000000, 2032.875000, 8178.500000, 8194.000000, 8189.500000
2029, 104930360.000000, 2001.625000, 8183.500000, 8193.000000, 8190.500000
2030, 104930520.000000, 1971.125000, 8184.000000, 8191.500000, 8188.500000
2031, 104930680.000000, 1939.625000, 8183.000000, 8201.500000, 8205.500000
2032, 104930840.000000, 1906.125000, 8187.000000, 8209.000000, 8216.500000
2033, 104931000.000000, 1871.750000, 8196.500000, 8204.000000, 8212.000000
2034, 104931160.000000, 1827.125000, 8180.000000, 8188.500000, 8183.000000
2035, 104931320.000000, 1774.500000, 8172.500000, 8181.000000, 8170.500000
2036, 104931480.000000, 1780.750000, 8173.000000, 8182.000000, 8173.000000
2037, 104931640.000000, 1925.375000, 8172.500000, 8182.500000, 8175.000000
2038, 104931800.000000, 2223.125000, 8179.000000, 8237.500000, 8241.000000
2039, 104931960.000000, 2568.125000, 8404.000000, 8095.500000, 8170.000000
2040, 104932120.000000, 2851.000000, 8086.500000, 8113.500000, 8108.500000
2041, 104932280.000000, 3028.625000, 8111.500000, 8112.000000, 8091.500000
2042, 104932440.000000, 3112.000000, 8174.500000, 8190.500000, 8181.000000
2043, 104932600.000000, 3124.625000, 8189.500000, 8197.000000, 8191.500000
2044, 104932760.000000, 3061.375000, 8195.000000, 8201.500000, 8195.000000
2045, 104932920.000000, 2939.125000, 8206.500000, 8199.000000, 8199.500000
2046, 104933080.000000, 2781.625000, 8217.000000, 8201.000000, 8205.500000
2047, 104933240.000000, 2625.500000, 8231.500000, 8199.500000, 8208.000000
2048, 104933400.000000, 2499.250000, 8245.000000, 8203.500000, 8217.000000
2049, 104933560.000000, 2411.750000, 8244.500000, 8213.000000, 8226.000000
2050, 104933720.000000, 2360.750000, 8235.000000, 8221.500000, 8234.000000
2051, 104933880.000000, 2332.125000, 8198.500000, 8229.500000, 8234.500000
2052, 104934040.000000, 2327.750000, 8169.000000, 8218.000000, 8213.000000
2053, 104934200.000000, 2336.500000, 8158.500000, 8203.000000, 8193.000000
2054, 104934360.000000, 2339.625000, 8159.000000, 8203.500000, 8193.000000
2055, 104934520.000000, 2325.250000, 8162.000000, 8204.000000, 8197.000000
2056, 104934680.000000, 2292.375000, 8170.000000, 8202.000000, 8197.000000
2057, 104934840.000000, 2255.875000, 8176.500000, 8204.000000, 8200.000000
2058, 104935000.000000, 2219.125000, 8176.500000, 8200.000000, 8196.000000
2059, 104935160.000000, 2185.750000, 8176.000000, 8199.000000, 8195.500000
2060, 104935320.000000, 2146.625000, 8184.000000, 8212.000000, 8221.000000
2061, 104935480.000000, 2095.875000, 8185.500000, 8217.000000, 8227.500000
2062, 104935640.000000, 2034.875000, 8190.500000, 8208.000000, 8215.000000
2063, 104935800.000000, 1966.375000, 8171.000000, 8190.000000, 8180.500000
2064, 104935960.000000, 1934.000000, 8168.000000, 8185.000000, 8173.500000
2065, 104936120.000000, 2011.625000, 8170.000000, 8188.500000, 8177.500000
2066, 104936280.000000, 2253.750000, 8171.000000, 8189.500000, 8180.500000
2067, 104936440.000000, 2605.625000, 8173.500000, 8259.500000, 8261.500000
2068, 104936600.000000, 2945.750000, 8466.500000, 8021.500000, 8127.500000
2069, 104936760.000000, 3203.125000, 8049.500000, 8057.500000, 8027.000000
2070, 104936920.000000, 3356.625000, 8146.500000, 8156.500000, 8150.500000
2071, 104937080.000000, 3414.625000, 8178.000000, 8203.500000, 8194.500000
2072, 104937240.000000, 3386.750000, 8185.500000, 8209.500000, 8201.500000
2073, 104937400.000000, 3286.875000, 8193.000000, 8208.000000, 8202.000000
2074, 104937560.000000, 3138.625000, 8202.500000, 8210.000000, 8210.000000
2075, 104937720.000000, 2971.500000, 8214.500000, 8208.500000, 8214.500000
2076, 104937880.000000, 2814.000000, 8235.000000, 8217.500000, 8231.500000
2077, 104938040.000000, 2692.375000, 8248.500000, 8221.500000, 8239.000000
2078, 104938200.000000, 2608.625000, 8247.000000, 8226.500000, 8242.000000
2079, 104938360.000000, 2560.000000, 8224.500000, 8232.000000, 8240.000000
2080, 104938520.000000, 2534.000000, 8184.000000, 8230.500000, 8228.500000
2081, 104938680.000000, 2515.875000, 8159.000000, 8215.500000, 8206.500000
2082, 104938840.000000, 2492.875000, 8156.500000, 8205.000000, 8193.500000
2083, 104939000.000000, 2461.750000, 8155.000000, 8206.000000, 8192.500000
2084, 104939160.000000, 2421.000000, 8166.000000, 8207.000000, 8198.000000
2085, 104939320.000000, 2374.625000, 8169.000000, 8208.000000, 8201.000000
2086, 104939480.000000, 2318.375000, 8171.000000, 8209.500000, 8204.500000
2087, 104939640.000000, 2256.250000, 8172.500000, 8206.500000, 8201.000000
2088, 104939800.000000, 2187.125000, 8170.500000, 8201.000000, 8195.000000
2089, 104939960.000000, 2113.750000, 8172.000000, 8200.000000, 8194.000000
2090, 104940120.000000, 2017.000000, 8176.000000, 8207.000000, 8210.000000
2091, 104940280.000000, 1925.625000, 8181.000000, 8214.500000, 8222.500000
2092, 104940440.000000, 1882.125000, 8190.500000, 8207.000000, 8214.000000
2093, 104940600.000000, 1984.875000, 8178.500000, 8190.000000, 8184.500000
2094, 104940760.000000, 2345.000000, 8163.000000, 8189.500000, 8175.500000
2095, 104940920.000000, 2835.375000, 8169.000000, 8189.500000, 8177.500000
2096, 104941080.000000, 3245.375000, 8171.000000, 8190.500000, 8179.500000
2097, 104941240.000000, 3540.500000, 8160.000000, 8229.000000, 8223.000000
2098, 104941400.000000, 3675.375000, 8373.500000, 8127.500000, 8194.500000
2099, 104941560.000000, 3698.375000, 8132.500000, 8055.000000, 8056.500000
2100, 104941720.000000, 3612.500000, 8112.000000, 8114.500000, 8097.500000
2101, 104941880.000000, 3450.750000, 8178.000000, 8200.500000, 8193.500000
2102, 104942040.000000, 3283.125000, 8190.500000, 8204.000000, 8197.500000
2103, 104942200.000000, 3114.250000, 8192.000000, 8208.500000, 8201.500000
2104, 104942360.000000, 2965.500000, 8205.500000, 8206.500000, 8205.500000
2105, 104942520.000000, 2853.875000, 8217.500000, 8208.000000, 8213.000000
2106, 104942680.000000, 2784.875000, 8230.500000, 8211.000000, 8222.000000
2107, 104942840.000000, 2749.375000, 8251.500000, 8212.000000, 8231.500000
2108, 104943000.000000, 2724.250000, 8255.500000, 8216.500000, 8236.000000
2109, 104943160.000000, 2695.625000, 8245.500000, 8222.000000, 8237.500000
2110, 104943320.000000, 2657.625000, 8202.000000, 8228.500000, 8233.000000
2111, 104943480.000000, 2607.750000, 8172.500000, 8215.500000, 8211.500000
2112, 104943640.000000, 2546.250000, 8156.000000, 8198.500000, 8186.000000
2113, 104943800.000000, 2479.500000, 8155.000000, 8200.000000, 8184.500000
2114, 104943960.000000, 2406.375000, 8162.000000, 8198.500000, 8186.000000
2115, 104944120.000000, 2330.750000, 8167.000000, 8203.000000, 8196.000000
2116, 104944280.000000, 2256.750000, 8170.500000, 8204.500000, 8198.500000
2117, 104944440.000000, 2182.625000, 8177.500000, 8201.000000, 8198.500000
2118, 104944600.000000, 2113.125000, 8176.500000, 8199.000000, 8195.000000
2119, 104944760.000000, 2035.125000, 8174.000000, 8197.000000, 8192.000000
2120, 104944920.000000, 1951.375000, 8174.000000, 8193.000000, 8186.000000
2121, 104945080.000000, 1891.875000, 8176.500000, 8192.500000, 8187.500000
2122, 104945240.000000, 1961.625000, 8174.500000, 8190.500000, 8184.000000
2123, 104945400.000000, 2222.250000, 8174.000000, 8189.000000, 8180.500000
2124, 104945560.000000, 2652.500000, 8179.000000, 8203.500000, 8209.000000
2125, 104945720.000000, 3111.875000, 8189.000000, 8203.500000, 8209.500000
2126, 104945880.000000, 3500.125000, 8189.000000, 8197.000000, 8200.000000
2127, 104946040.000000, 3767.875000, 8173.000000, 8184.500000, 8173.000000
2128, 104946200.000000, 3912.500000, 8171.000000, 8181.500000, 8168.500000
2129, 104946360.000000, 3940.125000, 8174.500000, 8180.000000, 8166.500000
2130, 104946520.000000, 3868.375000, 8176.500000, 8184.500000, 8175.500000
2131, 104946680.000000, 3729.875000, 8194.000000, 8243.000000, 8245.500000
2132, 104946840.000000, 3539.250000, 8493.000000, 8019.500000, 8143.000000
2133, 104947000.000000, 3331.375000, 8057.500000, 8057.500000, 8023.000000
2134, 104947160.000000, 3140.125000, 8156.000000, 8158.500000, 8151.500000
2135, 104947320.000000, 2985.125000, 8188.500000, 8196.500000, 8188.500000
2136, 104947480.000000, 2874.500000, 8196.000000, 8198.000000, 8194.000000
2137, 104947640.000000, 2798.250000, 8199.000000, 8201.000000, 8197.000000
2138, 104947800.000000, 2743.125000, 8214.000000, 8199.500000, 8201.000000
2139, 104947960.000000, 2690.625000, 8226.500000, 8201.500000, 8207.500000
2140, 104948120.000000, 2633.375000, 8243.000000, 8207.500000, 8221.500000
2141, 104948280.000000, 2569.500000, 8263.000000, 8204.000000, 8226.000000
2142, 104948440.000000, 2499.375000, 8258.500000, 8211.500000, 8229.000000
2143, 104948600.000000, 2414.500000, 8236.000000, 8218.000000, 8229.500000
2144, 104948760.000000, 2320.375000, 8193.500000, 8220.000000, 8220.000000
2145, 104948920.000000, 2221.000000, 8171.500000, 8206.000000, 8198.500000
2146, 104949080.000000, 2125.125000, 8160.000000, 8199.000000, 8185.000000
2147, 104949240.000000, 2034.500000, 8164.000000, 8197.500000, 8184.500000
2148, 104949400.000000, 1949.250000, 8169.000000, 8197.000000, 8186.000000
2149, 104949560.000000, 1865.125000, 8175.500000, 8198.500000, 8193.000000
2150, 104949720.000000, 1789.125000, 8180.500000, 8196.500000, 8194.000000
2151, 104949880.000000, 1718.500000, 8178.500000, 8200.500000, 8196.000000
2152, 104950040.000000, 1651.875000, 8177.500000, 8197.500000, 8191.000000
2153, 104950200.000000, 1581.625000, 8174.500000, 8195.000000, 8186.500000
2154, 104950360.000000, 1508.375000, 8175.500000, 8189.000000, 8179.500000
2155, 104950520.000000, 1488.875000, 8173.500000, 8191.500000, 8183.500000
2156, 104950680.000000, 1648.750000, 8173.500000, 8190.000000, 8182.000000
2157, 104950840.000000, 2006.625000, 8173.000000, 8190.500000, 8181.500000
2158, 104951000.000000, 2486.125000, 8176.000000, 8189.000000, 8180.000000
2159, 104951160.000000, 2937.000000, 8176.500000, 8194.000000, 8189.000000
2160, 104951320.000000, 3281.750000, 8182.500000, 8201.000000, 8205.500000
2161, 104951480.000000, 3498.125000, 8193.500000, 8198.500000, 8203.500000
2162, 104951640.000000, 3584.000000, 8189.000000, 8186.500000, 8183.000000
2163, 104951800.000000, 3560.125000, 8173.000000, 8182.000000, 8167.000000
2164, 104951960.000000, 3440.500000, 8178.000000, 8181.500000, 8169.500000
2165, 104952120.000000, 3266.625000, 8177.000000, 8181.500000, 8171.000000
2166, 104952280.000000, 3060.125000, 8169.500000, 8206.500000, 8198.000000
2167, 104952440.000000, 2854.000000, 8327.500000, 8167.500000, 8215.000000
2168, 104952600.000000, 2680.875000, 8232.500000, 8090.000000, 8125.000000
2169, 104952760.000000, 2551.750000, 8094.000000, 8097.500000, 8070.500000
2170, 104952920.000000, 2460.125000, 8178.000000, 8189.500000, 8183.500000
2171, 104953080.000000, 2394.875000, 8192.000000, 8199.500000, 8192.500000
2172, 104953240.000000, 2349.375000, 8197.500000, 8202.000000, 8196.000000
2173, 104953400.000000, 2309.125000, 8209.500000, 8197.500000, 8197.000000
2174, 104953560.000000, 2260.375000, 8220.500000, 8201.000000, 8205.000000
2175, 104953720.000000, 2195.500000, 8234.500000, 8205.500000, 8216.500000
2176, 104953880.000000, 2119.000000, 8253.000000, 8206.500000, 8224.000000
2177, 104954040.000000, 2035.250000, 8261.500000, 8208.500000, 8227.000000
2178, 104954200.000000, 1948.875000, 8248.000000, 8210.000000, 8223.500000
2179, 104954360.000000, 1865.125000, 8216.500000, 8218.500000, 8225.000000
2180, 104954520.000000, 1781.250000, 8180.500000, 8215.000000, 8210.000000
2181, 104954680.000000, 1693.500000, 8163.500000, 8207.000000, 8195.500000
2182, 104954840.000000, 1601.875000, 8158.000000, 8202.500000, 8188.500000
2183, 104955000.000000, 1516.125000, 8160.500000, 8199.000000, 8185.500000
2184, 104955160.000000, 1441.500000, 8170.000000, 8198.500000, 8191.000000
2185, 104955320.000000, 1377.000000, 8175.500000, 8195.500000, 8192.000000
2186, 104955480.000000, 1323.500000, 8180.000000, 8201.000000, 8198.000000
2187, 104955640.000000, 1273.500000, 8176.000000, 8198.500000, 8193.000000
2188, 104955800.000000, 1222.750000, 8172.500000, 8193.500000, 8186.000000
2189, 104955960.000000, 1160.375000, 8171.500000, 8190.000000, 8181.500000
2190, 104956120.000000, 1097.250000, 8170.000000, 8192.500000, 8183.500000
2191, 104956280.000000, 1108.125000, 8175.500000, 8189.500000, 8182.000000
2192, 104956440.000000, 1285.250000, 8170.000000, 8189.000000, 8178.000000
2193, 104956600.000000, 1651.250000, 8167.500000, 8188.500000, 8176.500000
2194, 104956760.000000, 2106.250000, 8173.500000, 8189.000000, 8179.000000
2195, 104956920.000000, 2527.625000, 8181.000000, 8202.000000, 8207.000000
2196, 104957080.000000, 2834.125000, 8189.500000, 8201.000000, 8205.500000
2197, 104957240.000000, 3022.000000, 8190.500000, 8190.500000, 8191.500000
2198, 104957400.000000, 3088.750000, 8174.000000, 8181.500000, 8169.000000
2199, 104957560.000000, 3045.875000, 8172.000000, 8181.000000, 8167.000000
2200, 104957720.000000, 2918.875000, 8176.500000, 8181.000000, 8170.000000
2201, 104957880.000000, 2734.750000, 8176.000000, 8183.000000, 8174.000000
2202, 104958040.000000, 2530.625000, 8185.000000, 8237.500000, 8234.000000
2203, 104958200.000000, 2339.000000, 8513.500000, 8045.000000, 8175.500000
2204, 104958360.000000, 2187.500000, 8064.500000, 8091.000000, 8068.000000
2205, 104958520.000000, 2074.875000, 8147.500000, 8158.500000, 8154.000000
2206, 104958680.000000, 2001.750000, 8185.000000, 8191.000000, 8184.000000
2207, 104958840.000000, 1956.875000, 8192.500000, 8196.000000, 8188.500000
2208, 104959000.000000, 1928.250000, 8201.500000, 8195.000000, 8189.500000
2209, 104959160.000000, 1904.250000, 8212.500000, 8197.000000, 8197.500000
2210, 104959320.000000, 1870.250000, 8228.000000, 8201.000000, 8208.000000
2211, 104959480.000000, 1817.875000, 8241.500000, 8201.500000, 8213.500000
2212, 104959640.000000, 1751.125000, 8259.500000, 8204.500000, 8222.500000
2213, 104959800.000000, 1677.750000, 8254.500000, 8205.000000, 8222.500000
2214, 104959960.000000, 1607.875000, 8232.000000, 8213.500000, 8223.000000
2215, 104960120.000000, 1542.250000, 8194.500000, 8220.000000, 8220.000000
2216, 104960280.000000, 1477.875000, 8167.000000, 8213.500000, 8205.000000
2217, 104960440.000000, 1409.500000, 8157.500000, 8201.000000, 8185.500000
2218, 104960600.000000, 1336.125000, 8159.500000, 8199.000000, 8184.500000
2219, 104960760.000000, 1265.500000, 8165.000000, 8202.500000, 8193.500000
2220, 104960920.000000, 1200.625000, 8173.500000, 8200.000000, 8194.000000
2221, 104961080.000000, 1143.625000, 8177.500000, 8199.000000, 8195.000000
2222, 104961240.000000, 1096.625000, 8174.000000, 8200.500000, 8194.500000
2223, 104961400.000000, 1053.125000, 8175.500000, 8194.500000, 8186.000000
2224, 104961560.000000, 1009.500000, 8171.000000, 8193.500000, 8185.000000
2225, 104961720.000000, 955.750000, 8171.500000, 8189.500000, 8181.000000
2226, 104961880.000000, 915.500000, 8171.000000, 8191.500000, 8182.500000
2227, 104962040.000000, 952.750000, 8171.000000, 8190.500000, 8179.500000
2228, 104962200.000000, 1167.375000, 8168.000000, 8190.000000, 8179.000000
2229, 104962360.000000, 1536.250000, 8175.500000, 8188.500000, 8179.000000
2230, 104962520.000000, 1968.625000, 8179.000000, 8199.000000, 8200.000000
2231, 104962680.000000, 2345.875000, 8180.500000, 8198.000000, 8198.500000
2232, 104962840.000000, 2613.250000, 8190.500000, 8201.500000, 8202.500000
2233, 104963000.000000, 2759.500000, 8179.000000, 8184.500000, 8175.000000
2234, 104963160.000000, 2788.875000, 8168.500000, 8181.000000, 8166.500000
2235, 104963320.000000, 2725.625000, 8173.500000, 8183.000000, 8171.000000
2236, 104963480.000000, 2587.625000, 8176.500000, 8185.000000, 8175.000000
2237, 104963640.000000, 2409.500000, 8162.500000, 8230.500000, 8221.500000
2238, 104963800.000000, 2219.625000, 8430.500000, 8100.000000, 8183.000000
2239, 104963960.000000, 2049.000000, 8134.000000, 8119.000000, 8124.500000
2240, 104964120.000000, 1915.500000, 8110.500000, 8121.500000, 8103.500000
2241, 104964280.000000, 1824.750000, 8178.000000, 8188.000000, 8179.000000
2242, 104964440.000000, 1772.000000, 8186.000000, 8189.000000, 8180.000000
2243, 104964600.000000, 1740.250000, 8196.500000, 8196.500000, 8189.000000
2244, 104964760.000000, 1717.625000, 8208.500000, 8200.500000, 8200.500000
2245, 104964920.000000, 1690.500000, 8218.000000, 8200.000000, 8204.500000
2246, 104965080.000000, 1654.000000, 8238.000000, 8199.000000, 8210.500000
2247, 104965240.000000, 1613.000000, 8255.000000, 8197.000000, 8214.000000
2248, 104965400.000000, 1568.125000, 8261.000000, 8204.000000, 8223.000000
2249, 104965560.000000, 1513.875000, 8242.500000, 8210.500000, 8224.000000
2250, 104965720.000000, 1450.875000, 8208.000000, 8219.000000, 8223.500000
2251, 104965880.000000, 1381.500000, 8173.500000, 8211.500000, 8204.500000
2252, 104966040.000000, 1316.250000, 8153.500000, 8207.500000, 8191.000000
2253, 104966200.000000, 1252.125000, 8155.500000, 8197.500000, 8182.500000
2254, 104966360.000000, 1192.000000, 8160.000000, 8200.000000, 8187.000000
2255, 104966520.000000, 1133.875000, 8169.500000, 8202.500000, 8194.000000
2256, 104966680.000000, 1077.125000, 8170.000000, 8201.000000, 8194.000000
2257, 104966840.000000, 1026.375000, 8172.000000, 8197.000000, 8189.000000
2258, 104967000.000000, 981.000000, 8171.000000, 8198.500000, 8188.000000
2259, 104967160.000000, 943.875000, 8171.500000, 8194.500000, 8186.000000
2260, 104967320.000000, 902.625000, 8168.500000, 8196.000000, 8186.500000
2261, 104967480.000000, 860.875000, 8165.500000, 8194.000000, 8183.500000
2262, 104967640.000000, 848.875000, 8167.000000, 8189.500000, 8176.500000
2263, 104967800.000000, 958.500000, 8167.500000, 8191.500000, 8179.500000
2264, 104967960.000000, 1237.875000, 8168.500000, 8188.000000, 8177.500000
2265, 104968120.000000, 1644.750000, 8178.500000, 8205.500000, 8210.500000
2266, 104968280.000000, 2050.125000, 8185.500000, 8202.500000, 8206.000000
2267, 104968440.000000, 2369.250000, 8185.000000, 8196.500000, 8195.000000
2268, 104968600.000000, 2560.250000, 8171.000000, 8187.000000, 8174.000000
2269, 104968760.000000, 2649.500000, 8168.500000, 8184.000000, 8170.000000
2270, 104968920.000000, 2644.500000, 8172.000000, 8183.000000, 8171.000000
2271, 104969080.000000, 2562.250000, 8175.000000, 8184.000000, 8174.000000
2272, 104969240.000000, 2422.875000, 8180.500000, 8242.500000, 8236.500000
2273, 104969400.000000, 2248.000000, 8526.500000, 8051.000000, 8185.000000
2274, 104969560.000000, 2069.875000, 8072.000000, 8107.500000, 8085.000000
2275, 104969720.000000, 1918.750000, 8145.000000, 8150.500000, 8143.500000
2276, 104969880.000000, 1815.000000, 8181.500000, 8194.500000, 8184.000000
2277, 104970040.000000, 1750.625000, 8192.000000, 8196.000000, 8189.000000
2278, 104970200.000000, 1712.500000, 8199.500000, 8198.000000, 8194.000000
2279, 104970360.000000, 1688.875000, 8212.500000, 8197.000000, 8197.500000
2280, 104970520.000000, 1671.625000, 8222.500000, 8198.500000, 8205.000000
2281, 104970680.000000, 1645.375000, 8245.500000, 8197.000000, 8212.500000
2282, 104970840.000000, 1612.375000, 8261.500000, 8198.000000, 8218.500000
2283, 104971000.000000, 1573.125000, 8258.500000, 8206.500000, 8225.500000
2284, 104971160.000000, 1525.500000, 8239.500000, 8211.500000, 8225.500000
2285, 104971320.000000, 1475.625000, 8197.500000, 8221.000000, 8223.000000
2286, 104971480.000000, 1420.750000, 8166.000000, 8207.000000, 8197.000000
2287, 104971640.000000, 1360.250000, 8152.000000, 8195.500000, 8180.000000
2288, 104971800.000000, 1296.250000, 8156.000000, 8201.500000, 8187.000000
2289, 104971960.000000, 1233.000000, 8163.000000, 8196.000000, 8184.000000
2290, 104972120.000000, 1177.750000, 8174.000000, 8199.500000, 8192.500000
2291, 104972280.000000, 1127.375000, 8176.000000, 8195.000000, 8190.000000
2292, 104972440.000000, 1083.625000, 8175.500000, 8193.000000, 8187.500000
2293, 104972600.000000, 1043.000000, 8174.000000, 8192.000000, 8183.500000
2294, 104972760.000000, 1002.625000, 8170.500000, 8194.000000, 8184.000000
2295, 104972920.000000, 957.250000, 8171.000000, 8190.000000, 8181.000000
2296, 104973080.000000, 916.500000, 8170.000000, 8189.500000, 8179.500000
2297, 104973240.000000, 908.250000, 8169.000000, 8187.000000, 8175.000000
2298, 104973400.000000, 1026.625000, 8172.500000, 8187.500000, 8178.000000
2299, 104973560.000000, 1315.500000, 8176.000000, 8202.500000, 8206.500000
2300, 104973720.000000, 1731.250000, 8188.500000, 8200.000000, 8203.500000
2301, 104973880.000000, 2142.750000, 8185.500000, 8191.500000, 8187.500000
2302, 104974040.000000, 2466.750000, 8167.500000, 8183.000000, 8167.000000
2303, 104974200.000000, 2675.625000, 8169.000000, 8180.000000, 8164.000000
2304, 104974360.000000, 2777.750000, 8171.500000, 8179.500000, 8165.500000
2305, 104974520.000000, 2786.875000, 8174.500000, 8188.000000, 8178.500000
2306, 104974680.000000, 2710.750000, 8225.500000, 8230.000000, 8238.500000
2307, 104974840.000000, 2576.500000, 8428.000000, 8072.000000, 8167.500000
2308, 104975000.000000, 2404.375000, 8069.000000, 8098.000000, 8069.500000
2309, 104975160.000000, 2230.375000, 8153.500000, 8154.500000, 8146.000000
2310, 104975320.000000, 2083.250000, 8185.000000, 8194.000000, 8186.500000
2311, 104975480.000000, 1978.500000, 8195.000000, 8198.000000, 8191.000000
2312, 104975640.000000, 1916.250000, 8205.000000, 8198.000000, 8194.000000
2313, 104975800.000000, 1881.375000, 8213.000000, 8194.500000, 8194.500000
2314, 104975960.000000, 1861.375000, 8229.000000, 8197.000000, 8204.500000
2315, 104976120.000000, 1843.000000, 8250.500000, 8197.500000, 8211.500000
2316, 104976280.000000, 1819.250000, 8262.000000, 8202.000000, 8220.000000
2317, 104976440.000000, 1787.875000, 8259.000000, 8205.500000, 8223.000000
2318, 104976600.000000, 1747.625000, 8233.500000, 8217.500000, 8228.000000
2319, 104976760.000000, 1704.250000, 8189.500000, 8223.000000, 8223.500000
2320, 104976920.000000, 1660.875000, 8161.500000, 8212.000000, 8202.000000
2321, 104977080.000000, 1611.625000, 8155.000000, 8200.500000, 8187.000000
2322, 104977240.000000, 1554.625000, 8156.000000, 8198.500000, 8184.000000
2323, 104977400.000000, 1491.250000, 8162.000000, 8198.000000, 8185.500000
2324, 104977560.000000, 1426.000000, 8171.000000, 8201.500000, 8195.000000
2325, 104977720.000000, 1371.500000, 8172.500000, 8204.000000, 8199.500000
2326, 104977880.000000, 1328.000000, 8177.000000, 8200.000000, 8194.500000
2327, 104978040.000000, 1291.625000, 8173.000000, 8198.500000, 8191.500000
2328, 104978200.000000, 1255.375000, 8175.000000, 8196.500000, 8188.500000
2329, 104978360.000000, 1211.375000, 8171.500000, 8198.000000, 8190.500000
2330, 104978520.000000, 1162.250000, 8172.500000, 8197.500000, 8190.000000
2331, 104978680.000000, 1139.875000, 8176.500000, 8210.000000, 8215.500000
2332, 104978840.000000, 1241.000000, 8186.500000, 8204.500000, 8209.000000
2333, 104979000.000000, 1506.375000, 8187.500000, 8198.500000, 8199.500000
2334, 104979160.000000, 1907.750000, 8169.500000, 8186.000000, 8174.500000
2335, 104979320.000000, 2313.625000, 8169.000000, 8186.000000, 8174.000000
2336, 104979480.000000, 2642.375000, 8175.000000, 8185.000000, 8175.000000
2337, 104979640.000000, 2859.875000, 8170.000000, 8187.500000, 8176.500000
2338, 104979800.000000, 2973.375000, 8203.500000, 8243.500000, 8250.000000
2339, 104979960.000000, 3003.875000, 8459.000000, 8058.500000, 8167.500000
2340, 104980120.000000, 2950.875000, 8070.000000, 8101.500000, 8080.500000
2341, 104980280.000000, 2835.000000, 8148.500000, 8155.000000, 8147.000000
2342, 104980440.000000, 2668.000000, 8182.000000, 8195.000000, 8184.000000
2343, 104980600.000000, 2489.750000, 8192.500000, 8199.500000, 8193.000000
2344, 104980760.000000, 2336.875000, 8203.500000, 8200.500000, 8198.500000
2345, 104980920.000000, 2231.500000, 8213.000000, 8199.500000, 8201.500000
2346, 104981080.000000, 2166.875000, 8228.500000, 8196.500000, 8203.000000
2347, 104981240.000000, 2127.625000, 8250.000000, 8198.500000, 8214.000000
2348, 104981400.000000, 2103.375000, 8264.500000, 8202.500000, 8221.000000
2349, 104981560.000000, 2087.875000, 8260.500000, 8210.500000, 8230.000000
2350, 104981720.000000, 2069.875000, 8237.000000, 8222.500000, 8237.500000
2351, 104981880.000000, 2035.000000, 8194.500000, 8223.500000, 8226.000000
2352, 104982040.000000, 1991.125000, 8163.000000, 8209.500000, 8199.500000
2353, 104982200.000000, 1937.625000, 8155.500000, 8200.000000, 8185.000000
2354, 104982360.000000, 1884.125000, 8157.000000, 8199.000000, 8186.000000
2355, 104982520.000000, 1835.375000, 8162.500000, 8199.000000, 8189.500000
2356, 104982680.000000, 1783.750000, 8170.000000, 8199.500000, 8190.500000
2357, 104982840.000000, 1729.625000, 8173.500000, 8196.500000, 8188.500000
2358, 104983000.000000, 1675.750000, 8172.000000, 8194.000000, 8186.000000
2359, 104983160.000000, 1620.625000, 8176.000000, 8195.500000, 8190.000000
2360, 104983320.000000, 1570.500000, 8175.000000, 8199.500000, 8193.500000
2361, 104983480.000000, 1522.375000, 8172.500000, 8201.500000, 8199.500000
2362, 104983640.000000, 1469.750000, 8179.500000, 8207.000000, 8211.500000
2363, 104983800.000000, 1427.375000, 8192.000000, 8206.000000, 8209.000000
2364, 104983960.000000, 1478.000000, 8182.000000, 8192.500000, 8189.000000
2365, 104984120.000000, 1685.000000, 8172.000000, 8186.500000, 8175.500000
2366, 104984280.000000, 2049.125000, 8168.500000, 8186.000000, 8173.500000
2367, 104984440.000000, 2455.000000, 8172.000000, 8186.000000, 8176.000000
2368, 104984600.000000, 2805.250000, 8171.500000, 8199.500000, 8192.000000
2369, 104984760.000000, 3057.125000, 8300.000000, 8202.000000, 8238.000000
2370, 104984920.000000, 3199.875000, 8268.000000, 8109.000000, 8155.000000
2371, 104985080.000000, 3255.875000, 8077.000000, 8093.500000, 8065.500000
2372, 104985240.000000, 3222.125000, 8163.500000, 8163.000000, 8155.000000
2373, 104985400.000000, 3115.625000, 8185.000000, 8188.000000, 8182.500000
2374, 104985560.000000, 2954.375000, 8194.000000, 8193.500000, 8188.500000
2375, 104985720.000000, 2770.250000, 8206.500000, 8194.000000, 8194.500000
2376, 104985880.000000, 2598.375000, 8215.500000, 8192.500000, 8196.000000
2377, 104986040.000000, 2456.500000, 8230.000000, 8191.000000, 8199.500000
2378, 104986200.000000, 2357.750000, 8254.000000, 8193.500000, 8210.000000
2379, 104986360.000000, 2295.625000, 8267.500000, 8199.000000, 8219.500000
2380, 104986520.000000, 2256.125000, 8259.500000, 8210.500000, 8230.500000
2381, 104986680.000000, 2224.500000, 8221.500000, 8223.500000, 8234.000000
2382, 104986840.000000, 2190.750000, 8181.000000, 8217.000000, 8215.500000
2383, 104987000.000000, 2150.250000, 8161.500000, 8203.500000, 8193.500000
2384, 104987160.000000, 2104.875000, 8154.500000, 8200.000000, 8188.500000
2385, 104987320.000000, 2056.500000, 8159.500000, 8198.000000, 8187.500000
2386, 104987480.000000, 2006.500000, 8168.000000, 8198.500000, 8191.500000
2387, 104987640.000000, 1954.625000, 8172.000000, 8195.000000, 8188.000000
2388, 104987800.000000, 1898.375000, 8180.000000, 8194.000000, 8191.000000
2389, 104987960.000000, 1840.875000, 8174.500000, 8196.000000, 8189.500000
2390, 104988120.000000, 1782.375000, 8177.000000, 8195.000000, 8190.500000
2391, 104988280.000000, 1723.000000, 8176.500000, 8202.500000, 8203.000000
2392, 104988440.000000, 1662.625000, 8179.000000, 8207.500000, 8211.500000
2393, 104988600.000000, 1597.375000, 8191.500000, 8202.000000, 8205.500000
2394, 104988760.000000, 1554.250000, 8174.000000, 8187.000000, 8180.500000
2395, 104988920.000000, 1605.625000, 8162.000000, 8185.000000, 8170.000000
2396, 104989080.000000, 1845.750000, 8170.500000, 8181.000000, 8169.000000
2397, 104989240.000000, 2219.750000, 8168.500000, 8182.500000, 8170.000000
2398, 104989400.000000, 2631.500000, 8171.500000, 8212.000000, 8207.500000
2399, 104989560.000000, 2975.625000, 8336.000000, 8163.500000, 8210.500000
2400, 104989720.000000, 3212.750000, 8188.500000, 8113.000000, 8139.500000
2401, 104989880.000000, 3336.375000, 8082.000000, 8097.500000, 8067.500000
2402, 104990040.000000, 3360.625000, 8170.000000, 8178.500000, 8169.000000
2403, 104990200.000000, 3308.875000, 8187.000000, 8197.000000, 8190.000000
2404, 104990360.000000, 3186.750000, 8197.000000, 8201.000000, 8197.500000
2405, 104990520.000000, 3014.250000, 8208.000000, 8202.000000, 8203.500000
2406, 104990680.000000, 2820.125000, 8217.500000, 8201.000000, 8207.000000
2407, 104990840.000000, 2641.250000, 8232.500000, 8197.500000, 8207.500000
2408, 104991000.000000, 2501.125000, 8256.000000, 8200.500000, 8219.000000
2409, 104991160.000000, 2410.750000, 8262.500000, 8208.500000, 8229.500000
2410, 104991320.000000, 2356.000000, 8257.000000, 8219.500000, 8242.500000
2411, 104991480.000000, 2323.375000, 8209.500000, 8230.000000, 8239.500000
2412, 104991640.000000, 2293.125000, 8172.500000, 8219.000000, 8216.000000
2413, 104991800.000000, 2257.875000, 8159.000000, 8205.000000, 8196.000000
2414, 104991960.000000, 2214.875000, 8156.500000, 8200.500000, 8190.000000
2415, 104992120.000000, 2165.500000, 8156.000000, 8200.000000, 8189.500000
2416, 104992280.000000, 2111.750000, 8161.500000, 8200.000000, 8191.000000
2417, 104992440.000000, 2055.750000, 8170.000000, 8197.500000, 8190.500000
2418, 104992600.000000, 1995.500000, 8174.500000, 8196.500000, 8191.000000
2419, 104992760.000000, 1925.500000, 8177.000000, 8198.000000, 8193.500000
2420, 104992920.000000, 1855.250000, 8173.500000, 8197.500000, 8192.500000
2421, 104993080.000000, 1789.375000, 8173.000000, 8206.000000, 8206.000000
2422, 104993240.000000, 1717.375000, 8176.500000, 8212.500000, 8217.000000
2423, 104993400.000000, 1639.750000, 8189.000000, 8207.000000, 8210.000000
2424, 104993560.000000, 1598.375000, 8177.500000, 8195.000000, 8189.000000
2425, 104993720.000000, 1684.875000, 8161.500000, 8187.500000, 8173.500000
2426, 104993880.000000, 1960.500000, 8167.000000, 8185.000000, 8173.500000
2427, 104994040.000000, 2366.375000, 8166.000000, 8184.500000, 8170.500000
2428, 104994200.000000, 2791.375000, 8165.000000, 8201.500000, 8191.000000
2429, 104994360.000000, 3148.250000, 8289.000000, 8196.500000, 8230.000000
2430, 104994520.000000, 3394.750000, 8253.500000, 8076.000000, 8118.000000
2431, 104994680.000000, 3525.500000, 8077.500000, 8087.000000, 8056.000000
2432, 104994840.000000, 3548.000000, 8164.500000, 8174.000000, 8166.000000
2433, 104995000.000000, 3475.875000, 8182.500000, 8193.500000, 8185.500000
2434, 104995160.000000, 3329.000000, 8191.000000, 8195.000000, 8191.500000
2435, 104995320.000000, 3133.375000, 8203.000000, 8178.500000, 8179.000000
2436, 104995480.000000, 2920.125000, 8213.000000, 8177.500000, 8181.500000
2437, 104995640.000000, 2718.500000, 8227.000000, 8179.000000, 8187.500000
2438, 104995800.000000, 2555.000000, 8255.000000, 8180.500000, 8200.500000
2439, 104995960.000000, 2439.000000, 8265.500000, 8193.000000, 8217.000000
2440, 104996120.000000, 2366.125000, 8256.000000, 8201.500000, 8224.000000
2441, 104996280.000000, 2322.000000, 8210.000000, 8213.000000, 8221.000000
2442, 104996440.000000, 2280.250000, 8170.000000, 8199.500000, 8193.000000
2443, 104996600.000000, 2232.500000, 8153.000000, 8186.500000, 8173.500000
2444, 104996760.000000, 2178.375000, 8151.000000, 8183.000000, 8169.000000
2445, 104996920.000000, 2117.125000, 8153.000000, 8183.500000, 8169.000000
2446, 104997080.000000, 2055.625000, 8154.500000, 8186.000000, 8172.500000
2447, 104997240.000000, 1986.625000, 8165.500000, 8185.000000, 8176.500000
2448, 104997400.000000, 1914.000000, 8169.500000, 8185.000000, 8177.500000
2449, 104997560.000000, 1830.250000, 8168.500000, 8186.500000, 8181.000000
2450, 104997720.000000, 1746.000000, 8171.000000, 8186.000000, 8181.000000
2451, 104997880.000000, 1667.875000, 8171.500000, 8183.000000, 8176.500000
2452, 104998040.000000, 1583.875000, 8169.000000, 8182.000000, 8172.000000
2453, 104998200.000000, 1494.375000, 8176.000000, 8196.500000, 8201.500000
2454, 104998360.000000, 1443.500000, 8183.500000, 8197.500000, 8204.500000
2455, 104998520.000000, 1544.375000, 8180.000000, 8192.500000, 8194.500000
2456, 104998680.000000, 1849.625000, 8164.500000, 8181.000000, 8169.000000
2457, 104998840.000000, 2309.625000, 8162.500000, 8175.000000, 8158.500000
2458, 104999000.000000, 2786.750000, 8167.000000, 8175.000000, 8161.500000
2459, 104999160.000000, 3190.750000, 8168.000000, 8177.500000, 8165.000000
2460, 104999320.000000, 3470.250000, 8154.000000, 8237.500000, 8233.500000
2461, 104999480.000000, 3622.125000, 8437.500000, 8065.000000, 8157.500000
2462, 104999640.000000, 3642.000000, 8090.500000, 8061.000000, 8046.500000
2463, 104999800.000000, 3556.000000, 8123.500000, 8131.500000, 8119.000000
2464, 104999960.000000, 3391.375000, 8174.000000, 8200.000000, 8191.000000
2465, 105000120.000000, 3177.250000, 8184.000000, 8209.500000, 8201.500000
2466, 105000280.000000, 2942.500000, 8192.500000, 8209.000000, 8202.500000
2467, 105000440.000000, 2721.625000, 8197.500000, 8211.500000, 8207.500000
2468, 105000600.000000, 2540.375000, 8213.500000, 8213.500000, 8216.500000
2469, 105000760.000000, 2404.875000, 8229.500000, 8216.000000, 8226.000000
2470, 105000920.000000, 2320.250000, 8257.000000, 8221.500000, 8242.000000
2471, 105001080.000000, 2264.375000, 8265.000000, 8236.000000, 8260.000000
2472, 105001240.000000, 2223.250000, 8241.000000, 8242.000000, 8258.500000
2473, 105001400.000000, 2177.375000, 8197.500000, 8245.500000, 8247.000000
2474, 105001560.000000, 2119.250000, 8159.000000, 8234.000000, 8221.500000
2475, 105001720.000000, 2054.250000, 8151.000000, 8221.500000, 8206.500000
2476, 105001880.000000, 1983.500000, 8145.000000, 8218.500000, 8199.500000
2477, 105002040.000000, 1907.125000, 8149.000000, 8216.000000, 8199.000000
2478, 105002200.000000, 1819.125000, 8152.500000, 8214.500000, 8199.500000
2479, 105002360.000000, 1724.750000, 8162.000000, 8215.500000, 8205.000000
2480, 105002520.000000, 1636.625000, 8168.000000, 8214.500000, 8208.000000
2481, 105002680.000000, 1556.875000, 8164.500000, 8212.500000, 8203.500000
2482, 105002840.000000, 1484.500000, 8167.500000, 8208.000000, 8200.000000
2483, 105003000.000000, 1408.125000, 8165.500000, 8205.000000, 8196.500000
2484, 105003160.000000, 1313.000000, 8166.000000, 8201.500000, 8192.500000
2485, 105003320.000000, 1233.625000, 8164.000000, 8200.500000, 8191.500000
2486, 105003480.000000, 1266.625000, 8167.500000, 8214.000000, 8216.500000
2487, 105003640.000000, 1522.750000, 8182.500000, 8209.500000, 8213.500000
2488, 105003800.000000, 1984.625000, 8183.000000, 8203.000000, 8204.000000
2489, 105003960.000000, 2540.000000, 8171.500000, 8189.500000, 8178.500000
2490, 105004120.000000, 3052.000000, 8165.500000, 8191.000000, 8177.500000
2491, 105004280.000000, 3454.500000, 8164.500000, 8188.500000, 8172.500000
2492, 105004440.000000, 3703.625000, 8171.000000, 8187.500000, 8176.500000
2493, 105004600.000000, 3810.625000, 8154.500000, 8237.000000, 8228.500000
2494, 105004760.000000, 3780.500000, 8430.000000, 8097.500000, 8184.500000
2495, 105004920.000000, 3645.375000, 8134.000000, 8091.500000, 8096.000000
2496, 105005080.000000, 3438.375000, 8116.500000, 8130.500000, 8116.500000
2497, 105005240.000000, 3193.500000, 8175.500000, 8199.500000, 8190.500000
2498, 105005400.000000, 2945.375000, 8186.000000, 8205.500000, 8198.500000
2499, 105005560.000000, 2716.000000, 8193.000000, 8206.000000, 8203.000000
2500, 105005720.000000, 2524.500000, 8208.000000, 8203.500000, 8205.000000
2501, 105005880.000000, 2378.250000, 8221.000000, 8207.500000, 8214.000000
2502, 105006040.000000, 2284.500000, 8242.000000, 8212.000000, 8226.500000
2503, 105006200.000000, 2224.625000, 8266.000000, 8210.000000, 8236.500000
2504, 105006360.000000, 2179.500000, 8279.000000, 8216.000000, 8247.000000
2505, 105006520.000000, 2124.875000, 8261.000000, 8222.500000, 8246.500000
2506, 105006680.000000, 2055.750000, 8206.500000, 8228.000000, 8234.500000
2507, 105006840.000000, 1979.875000, 8166.000000, 8219.500000, 8210.500000
2508, 105007000.000000, 1899.250000, 8151.000000, 8206.000000, 8191.000000
2509, 105007160.000000, 1812.375000, 8146.000000, 8198.000000, 8181.500000
2510, 105007320.000000, 1716.375000, 8152.500000, 8197.500000, 8182.500000
2511, 105007480.000000, 1617.000000, 8150.500000, 8207.500000, 8194.000000
2512, 105007640.000000, 1521.750000, 8165.000000, 8204.500000, 8194.000000
2513, 105007800.000000, 1431.250000, 8166.500000, 8205.500000, 8198.000000
2514, 105007960.000000, 1346.625000, 8170.500000, 8204.000000, 8200.000000
2515, 105008120.000000, 1266.875000, 8166.500000, 8203.500000, 8197.000000
2516, 105008280.000000, 1188.375000, 8168.000000, 8194.000000, 8187.000000
2517, 105008440.000000, 1112.750000, 8170.000000, 8196.500000, 8189.000000
2518, 105008600.000000, 1050.500000, 8167.500000, 8193.500000, 8185.500000
2519, 105008760.000000, 1089.250000, 8170.000000, 8194.000000, 8187.000000
2520, 105008920.000000, 1325.625000, 8169.000000, 8191.500000, 8184.500000
2521, 105009080.000000, 1779.625000, 8170.000000, 8188.000000, 8181.000000
2522, 105009240.000000, 2342.500000, 8179.000000, 8206.500000, 8214.500000
2523, 105009400.000000, 2883.500000, 8184.000000, 8203.500000, 8207.000000
2524, 105009560.000000, 3306.250000, 8185.000000, 8192.500000, 8193.000000
2525, 105009720.000000, 3584.375000, 8168.000000, 8185.000000, 8174.500000
2526, 105009880.000000, 3703.625000, 8169.000000, 8185.000000, 8173.000000
2527, 105010040.000000, 3677.625000, 8170.000000, 8186.000000, 8172.500000
2528, 105010200.000000, 3539.750000, 8173.500000, 8188.500000, 8180.500000
2529, 105010360.000000, 3316.125000, 8171.500000, 8249.500000, 8249.000000
2530, 105010520.000000, 3051.500000, 8542.000000, 8034.000000, 8174.000000
2531, 105010680.000000, 2790.625000, 8079.000000, 8097.000000, 8081.000000
2532, 105010840.000000, 2562.250000, 8146.500000, 8158.000000, 8155.000000
2533, 105011000.000000, 2375.625000, 8181.000000, 8198.000000, 8191.000000
2534, 105011160.000000, 2229.000000, 8189.000000, 8206.000000, 8201.000000
2535, 105011320.000000, 2124.625000, 8199.000000, 8204.000000, 8203.500000
2536, 105011480.000000, 2049.625000, 8208.500000, 8204.500000, 8205.500000
2537, 105011640.000000, 1988.875000, 8223.000000, 8203.000000, 8210.500000
2538, 105011800.000000, 1925.875000, 8245.000000, 8206.000000, 8224.500000
2539, 105011960.000000, 1855.750000, 8269.500000, 8207.500000, 8234.500000
2540, 105012120.000000, 1775.625000, 8274.000000, 8208.500000, 8240.000000
2541, 105012280.000000, 1690.375000, 8256.500000, 8213.000000, 8236.000000
2542, 105012440.000000, 1602.125000, 8200.500000, 8219.000000, 8223.500000
2543, 105012600.000000, 1511.500000, 8163.500000, 8215.000000, 8205.000000
2544, 105012760.000000, 1416.000000, 8151.000000, 8206.000000, 8191.000000
2545, 105012920.000000, 1314.125000, 8146.000000, 8199.500000, 8182.500000
2546, 105013080.000000, 1223.250000, 8150.000000, 8200.000000, 8183.000000
2547, 105013240.000000, 1148.250000, 8158.000000, 8201.000000, 8187.500000
2548, 105013400.000000, 1094.250000, 8162.000000, 8203.000000, 8192.500000
2549, 105013560.000000, 1051.125000, 8163.000000, 8201.500000, 8193.500000
2550, 105013720.000000, 1010.625000, 8163.500000, 8200.000000, 8192.500000
2551, 105013880.000000, 966.250000, 8168.000000, 8196.500000, 8187.500000
2552, 105014040.000000, 920.500000, 8166.500000, 8196.000000, 8186.500000
2553, 105014200.000000, 864.875000, 8166.000000, 8194.500000, 8183.500000
2554, 105014360.000000, 827.000000, 8166.000000, 8189.500000, 8179.500000
2555, 105014520.000000, 884.125000, 8166.000000, 8192.000000, 8182.000000
2556, 105014680.000000, 1162.125000, 8164.500000, 8189.000000, 8177.000000
2557, 105014840.000000, 1639.000000, 8171.000000, 8200.500000, 8195.000000
2558, 105015000.000000, 2213.500000, 8170.000000, 8204.000000, 8204.000000
2559, 105015160.000000, 2740.500000, 8188.000000, 8202.500000, 8204.500000
2560, 105015320.000000, 3136.375000, 8174.500000, 8187.500000, 8179.500000
2561, 105015480.000000, 3373.625000, 8166.000000, 8184.500000, 8170.500000
2562, 105015640.000000, 3456.750000, 8167.000000, 8185.000000, 8170.000000
2563, 105015800.000000, 3415.125000, 8170.500000, 8183.500000, 8171.500000
2564, 105015960.000000, 3262.375000, 8169.500000, 8198.500000, 8191.500000
2565, 105016120.000000, 3032.750000, 8272.500000, 8201.000000, 8223.500000
2566, 105016280.000000, 2764.500000, 8372.500000, 8088.500000, 8177.500000
2567, 105016440.000000, 2503.625000, 8074.000000, 8100.000000, 8069.500000
2568, 105016600.000000, 2283.125000, 8166.500000, 8183.000000, 8176.500000
2569, 105016760.000000, 2112.750000, 8184.000000, 8202.000000, 8195.000000
2570, 105016920.000000, 1985.250000, 8191.500000, 8202.000000, 8196.000000
2571, 105017080.000000, 1892.250000, 8202.500000, 8201.000000, 8197.500000
2572, 105017240.000000, 1825.000000, 8212.000000, 8203.000000, 8205.000000
2573, 105017400.000000, 1767.875000, 8232.500000, 8198.000000, 8208.000000
2574, 105017560.000000, 1708.625000, 8260.000000, 8202.000000, 8223.500000
2575, 105017720.000000, 1641.625000, 8275.500000, 8205.000000, 8232.500000
2576, 105017880.000000, 1566.375000, 8269.000000, 8207.500000, 8233.000000
2577, 105018040.000000, 1490.750000, 8232.000000, 8216.500000, 8227.500000
2578, 105018200.000000, 1410.250000, 8179.500000, 8217.500000, 8211.500000
2579, 105018360.000000, 1322.500000, 8153.000000, 8210.500000, 8195.500000
2580, 105018520.000000, 1230.125000, 8148.500000, 8200.500000, 8183.000000
2581, 105018680.000000, 1139.500000, 8150.000000, 8197.000000, 8178.000000
2582, 105018840.000000, 1054.000000, 8155.000000, 8198.000000, 8181.000000
2583, 105019000.000000, 980.375000, 8164.000000, 8200.500000, 8189.000000
2584, 105019160.000000, 926.250000, 8169.000000, 8200.500000, 8192.500000
2585, 105019320.000000, 883.125000, 8166.500000, 8199.500000, 8190.000000
2586, 105019480.000000, 841.250000, 8169.000000, 8197.000000, 8187.000000
2587, 105019640.000000, 794.500000, 8164.500000, 8192.500000, 8181.500000
2588, 105019800.000000, 739.375000, 8167.500000, 8190.500000, 8179.500000
2589, 105019960.000000, 681.750000, 8166.000000, 8193.500000, 8183.500000
2590, 105020120.000000, 647.750000, 8167.500000, 8192.000000, 8181.000000
2591, 105020280.000000, 724.250000, 8167.500000, 8191.000000, 8179.000000
2592, 105020440.000000, 988.875000, 8171.500000, 8200.500000, 8200.000000
2593, 105020600.000000, 1447.000000, 8178.500000, 8203.500000, 8205.500000
2594, 105020760.000000, 1982.875000, 8189.000000, 8200.000000, 8203.000000
2595, 105020920.000000, 2479.000000, 8177.000000, 8189.000000, 8180.500000
2596, 105021080.000000, 2848.000000, 8172.000000, 8183.500000, 8169.500000
2597, 105021240.000000, 3077.500000, 8171.500000, 8183.000000, 8170.500000
2598, 105021400.000000, 3164.625000, 8172.000000, 8186.500000, 8174.500000
2599, 105021560.000000, 3125.125000, 8164.500000, 8213.500000, 8204.500000
2600, 105021720.000000, 2988.250000, 8365.500000, 8149.000000, 8206.500000
2601, 105021880.000000, 2778.375000, 8208.500000, 8134.000000, 8165.000000
2602, 105022040.000000, 2533.125000, 8088.000000, 8109.000000, 8079.000000
2603, 105022200.000000, 2288.750000, 8172.500000, 8183.000000, 8174.500000
2604, 105022360.000000, 2080.250000, 8189.000000, 8197.000000, 8192.000000
2605, 105022520.000000, 1922.750000, 8199.000000, 8197.000000, 8194.000000
2606, 105022680.000000, 1819.375000, 8207.500000, 8200.000000, 8198.500000
2607, 105022840.000000, 1755.625000, 8219.000000, 8198.500000, 8203.500000
2608, 105023000.000000, 1706.750000, 8237.000000, 8197.000000, 8210.000000
2609, 105023160.000000, 1655.000000, 8265.000000, 8199.000000, 8222.500000
2610, 105023320.000000, 1606.500000, 8276.000000, 8202.000000, 8228.000000
2611, 105023480.000000, 1551.500000, 8268.000000, 8210.500000, 8234.000000
2612, 105023640.000000, 1496.625000, 8218.000000, 8222.500000, 8232.000000
2613, 105023800.000000, 1434.250000, 8171.500000, 8219.000000, 8212.000000
2614, 105023960.000000, 1341.000000, 8155.000000, 8204.000000, 8190.500000
2615, 105024120.000000, 1245.000000, 8152.000000, 8202.000000, 8186.500000
2616, 105024280.000000, 1169.500000, 8153.500000, 8198.500000, 8183.000000
2617, 105024440.000000, 1102.250000, 8159.000000, 8199.000000, 8186.000000
2618, 105024600.000000, 1044.750000, 8168.500000, 8200.000000, 8191.500000
2619, 105024760.000000, 990.625000, 8171.500000, 8198.000000, 8191.500000
2620, 105024920.000000, 938.125000, 8172.500000, 8197.000000, 8190.500000
2621, 105025080.000000, 890.250000, 8169.000000, 8195.000000, 8187.000000
2622, 105025240.000000, 845.875000, 8171.000000, 8194.000000, 8185.000000
2623, 105025400.000000, 793.750000, 8168.000000, 8194.500000, 8183.500000
2624, 105025560.000000, 755.875000, 8171.000000, 8198.500000, 8191.000000
2625, 105025720.000000, 838.125000, 8179.500000, 8208.500000, 8213.000000
2626, 105025880.000000, 1189.125000, 8188.500000, 8202.500000, 8206.000000
2627, 105026040.000000, 1665.250000, 8179.500000, 8190.000000, 8186.000000
2628, 105026200.000000, 2183.625000, 8165.500000, 8184.000000, 8168.500000
2629, 105026360.000000, 2629.125000, 8168.500000, 8186.000000, 8173.500000
2630, 105026520.000000, 2942.500000, 8171.000000, 8183.500000, 8171.000000
2631, 105026680.000000, 3103.500000, 8170.000000, 8188.000000, 8176.500000
2632, 105026840.000000, 3132.250000, 8209.500000, 8238.000000, 8241.500000
2633, 105027000.000000, 3047.625000, 8445.500000, 8067.000000, 8169.000000
2634, 105027160.000000, 2883.375000, 8068.000000, 8110.000000, 8086.500000
2635, 105027320.000000, 2670.250000, 8150.500000, 8152.500000, 8143.000000
2636, 105027480.000000, 2433.375000, 8183.500000, 8192.000000, 8181.500000
2637, 105027640.000000, 2206.750000, 8195.000000, 8195.500000, 8188.500000
2638, 105027800.000000, 2017.250000, 8203.500000, 8196.500000, 8193.500000
2639, 105027960.000000, 1878.875000, 8217.500000, 8197.500000, 8202.500000
2640, 105028120.000000, 1792.375000, 8231.500000, 8196.000000, 8205.500000
2641, 105028280.000000, 1746.875000, 8254.500000, 8194.000000, 8211.000000
2642, 105028440.000000, 1720.625000, 8273.000000, 8196.500000, 8220.500000
2643, 105028600.000000, 1700.000000, 8272.500000, 8207.500000, 8233.500000
2644, 105028760.000000, 1674.500000, 8240.500000, 8224.500000, 8241.000000
2645, 105028920.000000, 1636.250000, 8187.500000, 8223.500000, 8224.500000
2646, 105029080.000000, 1587.750000, 8161.500000, 8209.500000, 8197.500000
2647, 105029240.000000, 1530.875000, 8152.000000, 8201.500000, 8186.000000
2648, 105029400.000000, 1468.250000, 8155.500000, 8200.500000, 8186.500000
2649, 105029560.000000, 1401.375000, 8156.500000, 8201.000000, 8189.500000
2650, 105029720.000000, 1332.250000, 8166.000000, 8202.000000, 8191.000000
2651, 105029880.000000, 1271.000000, 8172.000000, 8202.000000, 8194.000000
2652, 105030040.000000, 1214.500000, 8171.500000, 8201.000000, 8192.500000
2653, 105030200.000000, 1166.375000, 8174.500000, 8201.500000, 8195.000000
2654, 105030360.000000, 1113.375000, 8171.500000, 8199.500000, 8192.000000
2655, 105030520.000000, 1052.250000, 8177.000000, 8209.500000, 8210.500000
2656, 105030680.000000, 986.875000, 8178.000000, 8210.000000, 8212.500000
2657, 105030840.000000, 967.625000, 8193.000000, 8201.000000, 8203.000000
2658, 105031000.000000, 1092.500000, 8171.500000, 8183.500000, 8173.500000
2659, 105031160.000000, 1398.500000, 8166.000000, 8177.500000, 8164.500000
2660, 105031320.000000, 1839.750000, 8171.500000, 8172.500000, 8161.000000
2661, 105031480.000000, 2288.625000, 8170.500000, 8167.500000, 8155.500000
2662, 105031640.000000, 2656.125000, 8167.500000, 8193.000000, 8185.000000
2663, 105031800.000000, 2910.375000, 8338.000000, 8141.500000, 8189.500000
2664, 105031960.000000, 3046.375000, 8191.500000, 8102.500000, 8129.500000
2665, 105032120.000000, 3062.875000, 8080.000000, 8076.500000, 8045.000000
2666, 105032280.000000, 2968.250000, 8170.000000, 8158.000000, 8148.500000
2667, 105032440.000000, 2794.875000, 8186.500000, 8175.500000, 8167.500000
2668, 105032600.000000, 2574.875000, 8194.500000, 8182.000000, 8176.000000
2669, 105032760.000000, 2350.875000, 8206.500000, 8185.000000, 8187.500000
2670, 105032920.000000, 2156.125000, 8217.500000, 8185.000000, 8189.000000
2671, 105033080.000000, 2009.375000, 8236.500000, 8183.500000, 8193.500000
2672, 105033240.000000, 1909.000000, 8257.500000, 8185.500000, 8202.500000
2673, 105033400.000000, 1841.000000, 8269.500000, 8195.500000, 8218.000000
2674, 105033560.000000, 1796.750000, 8258.000000, 8207.000000, 8228.000000
2675, 105033720.000000, 1766.375000, 8215.000000, 8217.000000, 8226.500000
2676, 105033880.000000, 1744.000000, 8173.500000, 8207.000000, 8202.000000
2677, 105034040.000000, 1724.125000, 8154.500000, 8195.500000, 8182.000000
2678, 105034200.000000, 1695.375000, 8153.500000, 8190.500000, 8176.000000
2679, 105034360.000000, 1651.375000, 8154.500000, 8190.000000, 8177.500000
2680, 105034520.000000, 1596.250000, 8159.500000, 8190.500000, 8180.000000
2681, 105034680.000000, 1532.125000, 8169.500000, 8192.000000, 8183.500000
2682, 105034840.000000, 1468.625000, 8172.000000, 8189.000000, 8182.000000
2683, 105035000.000000, 1409.875000, 8172.500000, 8190.000000, 8180.500000
2684, 105035160.000000, 1352.750000, 8172.500000, 8191.000000, 8184.500000
2685, 105035320.000000, 1291.375000, 8176.500000, 8204.000000, 8209.500000
2686, 105035480.000000, 1217.000000, 8183.500000, 8200.500000, 8204.000000
2687, 105035640.000000, 1146.125000, 8182.000000, 8192.000000, 8190.500000
2688, 105035800.000000, 1143.000000, 8164.500000, 8181.000000, 8166.000000
2689, 105035960.000000, 1295.500000, 8165.000000, 8179.000000, 8164.000000
2690, 105036120.000000, 1628.875000, 8160.500000, 8178.500000, 8162.000000
2691, 105036280.000000, 2063.625000, 8167.000000, 8179.500000, 8168.000000
2692, 105036440.000000, 2476.625000, 8175.000000, 8248.000000, 8248.500000
2693, 105036600.000000, 2801.125000, 8443.000000, 8045.500000, 8138.500000
2694, 105036760.000000, 3007.375000, 8059.000000, 8102.000000, 8083.500000
2695, 105036920.000000, 3099.375000, 8127.500000, 8128.500000, 8113.000000
2696, 105037080.000000, 3083.750000, 8176.000000, 8191.500000, 8182.000000
2697, 105037240.000000, 2972.875000, 8187.000000, 8199.500000, 8190.500000
2698, 105037400.000000, 2784.000000, 8200.500000, 8199.500000, 8195.500000
2699, 105037560.000000, 2554.750000, 8208.000000, 8199.000000, 8201.000000
2700, 105037720.000000, 2331.875000, 8221.500000, 8200.000000, 8207.500000
2701, 105037880.000000, 2142.625000, 8243.000000, 8200.000000, 8213.000000
2702, 105038040.000000, 2000.750000, 8260.500000, 8206.500000, 8225.500000
2703, 105038200.000000, 1905.000000, 8267.000000, 8218.000000, 8241.000000
2704, 105038360.000000, 1849.000000, 8243.500000, 8229.500000, 8247.000000
2705, 105038520.000000, 1817.250000, 8193.000000, 8229.500000, 8230.500000
2706, 105038680.000000, 1796.625000, 8160.000000, 8210.000000, 8200.000000
2707, 105038840.000000, 1771.375000, 8156.000000, 8197.000000, 8184.000000
2708, 105039000.000000, 1729.125000, 8153.500000, 8197.500000, 8184.000000
2709, 105039160.000000, 1670.125000, 8158.000000, 8197.500000, 8186.500000
2710, 105039320.000000, 1608.000000, 8166.000000, 8197.500000, 8187.500000
2711, 105039480.000000, 1548.875000, 8169.500000, 8195.000000, 8186.500000
2712, 105039640.000000, 1487.625000, 8173.000000, 8195.000000, 8188.000000
2713, 105039800.000000, 1422.375000, 8173.000000, 8195.000000, 8187.000000
2714, 105039960.000000, 1351.125000, 8175.500000, 8198.500000, 8195.000000
2715, 105040120.000000, 1278.750000, 8177.500000, 8212.000000, 8216.500000
2716, 105040280.000000, 1205.875000, 8191.000000, 8203.000000, 8208.500000
2717, 105040440.000000, 1161.000000, 8182.500000, 8191.500000, 8190.500000
2718, 105040600.000000, 1215.000000, 8167.000000, 8183.000000, 8170.000000
2719, 105040760.000000, 1443.250000, 8167.000000, 8183.500000, 8170.500000
2720, 105040920.000000, 1826.000000, 8164.000000, 8183.000000, 8170.500000
2721, 105041080.000000, 2274.625000, 8168.000000, 8184.500000, 8173.500000
2722, 105041240.000000, 2673.125000, 8210.000000, 8247.000000, 8258.000000
2723, 105041400.000000, 2975.000000, 8403.500000, 8022.500000, 8111.500000
2724, 105041560.000000, 3145.500000, 8048.500000, 8074.500000, 8045.500000
2725, 105041720.000000, 3197.750000, 8155.000000, 8160.000000, 8151.000000
2726, 105041880.000000, 3143.000000, 8182.500000, 8197.000000, 8188.000000
2727, 105042040.000000, 3002.500000, 8192.500000, 8203.000000, 8198.500000
2728, 105042200.000000, 2798.500000, 8198.500000, 8205.500000, 8203.000000
2729, 105042360.000000, 2558.250000, 8211.000000, 8207.000000, 8210.500000
2730, 105042520.000000, 2325.750000, 8226.000000, 8206.500000, 8214.000000
2731, 105042680.000000, 2133.625000, 8246.500000, 8210.500000, 8225.500000
2732, 105042840.000000, 2002.250000, 8263.500000, 8217.000000, 8239.500000
2733, 105043000.000000, 1921.125000, 8265.500000, 8227.500000, 8251.500000
2734, 105043160.000000, 1876.125000, 8228.500000, 8237.000000, 8251.500000
2735, 105043320.000000, 1842.625000, 8180.000000, 8223.500000, 8221.000000
2736, 105043480.000000, 1809.375000, 8155.500000, 8208.000000, 8196.000000
2737, 105043640.000000, 1769.125000, 8152.000000, 8200.000000, 8185.000000
2738, 105043800.000000, 1723.500000, 8152.000000, 8200.500000, 8187.000000
2739, 105043960.000000, 1673.500000, 8158.500000, 8201.000000, 8190.000000
2740, 105044120.000000, 1620.125000, 8161.000000, 8202.000000, 8191.000000
2741, 105044280.000000, 1565.000000, 8165.500000, 8201.500000, 8193.000000
2742, 105044440.000000, 1501.875000, 8168.500000, 8199.500000, 8193.000000
2743, 105044600.000000, 1431.625000, 8169.000000, 8198.000000, 8192.000000
2744, 105044760.000000, 1356.625000, 8169.500000, 8198.000000, 8191.500000
2745, 105044920.000000, 1272.250000, 8177.500000, 8214.000000, 8221.500000
2746, 105045080.000000, 1190.500000, 8180.500000, 8210.500000, 8217.000000
2747, 105045240.000000, 1151.250000, 8183.500000, 8202.000000, 8204.500000
2748, 105045400.000000, 1266.500000, 8165.000000, 8189.000000, 8178.500000
2749, 105045560.000000, 1572.875000, 8163.500000, 8185.000000, 8171.500000
2750, 105045720.000000, 2026.125000, 8163.500000, 8183.000000, 8169.500000
2751, 105045880.000000, 2497.250000, 8164.000000, 8186.000000, 8172.500000
2752, 105046040.000000, 2889.375000, 8154.500000, 8233.000000, 8225.500000
2753, 105046200.000000, 3157.750000, 8369.000000, 8120.000000, 8188.000000
2754, 105046360.000000, 3283.875000, 8105.000000, 8054.500000, 8050.500000
2755, 105046520.000000, 3289.875000, 8114.500000, 8119.000000, 8105.500000
2756, 105046680.000000, 3177.375000, 8171.000000, 8198.500000, 8188.000000
2757, 105046840.000000, 2985.875000, 8181.500000, 8206.500000, 8198.000000
2758, 105047000.000000, 2745.125000, 8191.500000, 8208.500000, 8204.500000
2759, 105047160.000000, 2493.375000, 8199.000000, 8210.000000, 8209.500000
2760, 105047320.000000, 2266.875000, 8211.500000, 8211.000000, 8214.000000
2761, 105047480.000000, 2075.000000, 8227.000000, 8212.500000, 8222.000000
2762, 105047640.000000, 1927.000000, 8248.500000, 8216.500000, 8237.000000
2763, 105047800.000000, 1821.625000, 8262.500000, 8222.500000, 8247.500000
2764, 105047960.000000, 1758.875000, 8243.500000, 8228.500000, 8248.000000
2765, 105048120.000000, 1724.375000, 8195.500000, 8231.000000, 8235.500000
2766, 105048280.000000, 1699.875000, 8158.000000, 8214.500000, 8205.000000
2767, 105048440.000000, 1663.250000, 8146.000000, 8203.000000, 8185.500000
2768, 105048600.000000, 1604.875000, 8146.000000, 8203.000000, 8188.000000
2769, 105048760.000000, 1533.625000, 8152.500000, 8200.000000, 8187.000000
2770, 105048920.000000, 1458.750000, 8157.000000, 8204.000000, 8194.000000
2771, 105049080.000000, 1383.750000, 8163.000000, 8202.000000, 8193.000000
2772, 105049240.000000, 1312.875000, 8166.000000, 8205.000000, 8197.000000
2773, 105049400.000000, 1247.250000, 8167.000000, 8204.000000, 8197.000000
2774, 105049560.000000, 1183.625000, 8167.000000, 8203.000000, 8196.000000
2775, 105049720.000000, 1114.625000, 8166.000000, 8201.500000, 8192.500000
2776, 105049880.000000, 1039.125000, 8169.500000, 8206.000000, 8200.500000
2777, 105050040.000000, 985.750000, 8171.500000, 8219.500000, 8226.000000
2778, 105050200.000000, 1051.125000, 8184.500000, 8216.500000, 8223.500000
2779, 105050360.000000, 1307.250000, 8180.500000, 8204.000000, 8205.000000
2780, 105050520.000000, 1759.500000, 8166.000000, 8198.500000, 8183.500000
2781, 105050680.000000, 2278.250000, 8161.500000, 8201.000000, 8183.000000
2782, 105050840.000000, 2746.125000, 8163.500000, 8200.000000, 8184.500000
2783, 105051000.000000, 3085.625000, 8166.500000, 8198.000000, 8186.500000
2784, 105051160.000000, 3276.375000, 8164.000000, 8268.500000, 8263.000000
2785, 105051320.000000, 3323.625000, 8503.500000, 8047.500000, 8174.000000
2786, 105051480.000000, 3248.500000, 8049.000000, 8081.000000, 8048.000000
2787, 105051640.000000, 3084.625000, 8143.500000, 8171.500000, 8163.500000
2788, 105051800.000000, 2855.875000, 8180.000000, 8215.500000, 8209.000000
2789, 105051960.000000, 2598.125000, 8186.500000, 8217.500000, 8211.000000
2790, 105052120.000000, 2346.750000, 8194.500000, 8215.500000, 8212.500000
2791, 105052280.000000, 2133.750000, 8203.500000, 8219.000000, 8217.000000
2792, 105052440.000000, 1979.000000, 8221.500000, 8217.000000, 8221.500000
2793, 105052600.000000, 1880.125000, 8241.500000, 8218.000000, 8234.000000
2794, 105052760.000000, 1821.250000, 8265.000000, 8222.000000, 8247.500000
2795, 105052920.000000, 1780.875000, 8261.500000, 8223.000000, 8248.000000
2796, 105053080.000000, 1746.750000, 8232.000000, 8228.000000, 8241.000000
2797, 105053240.000000, 1709.000000, 8182.000000, 8229.000000, 8226.500000
2798, 105053400.000000, 1664.500000, 8153.000000, 8218.500000, 8204.000000
2799, 105053560.000000, 1608.000000, 8143.000000, 8208.000000, 8191.000000
2800, 105053720.000000, 1538.375000, 8150.500000, 8200.500000, 8185.000000
2801, 105053880.000000, 1462.750000, 8150.500000, 8204.500000, 8187.500000
2802, 105054040.000000, 1389.125000, 8158.000000, 8205.000000, 8193.500000
2803, 105054200.000000, 1316.625000, 8166.000000, 8208.000000, 8201.000000
2804, 105054360.000000, 1247.875000, 8167.000000, 8203.500000, 8196.000000
2805, 105054520.000000, 1181.375000, 8170.500000, 8201.000000, 8195.000000
2806, 105054680.000000, 1116.250000, 8166.500000, 8198.500000, 8190.000000
2807, 105054840.000000, 1050.250000, 8168.500000, 8195.000000, 8185.000000
2808, 105055000.000000, 989.250000, 8166.000000, 8202.000000, 8197.000000
2809, 105055160.000000, 977.000000, 8174.500000, 8210.000000, 8215.500000
2810, 105055320.000000, 1123.625000, 8185.000000, 8206.500000, 8211.000000
2811, 105055480.000000, 1462.500000, 8177.000000, 8192.000000, 8186.500000
2812, 105055640.000000, 1954.375000, 8164.500000, 8183.500000, 8168.500000
2813, 105055800.000000, 2464.500000, 8164.500000, 8184.000000, 8170.000000
2814, 105055960.000000, 2887.250000, 8166.000000, 8184.500000, 8170.500000
2815, 105056120.000000, 3173.375000, 8166.000000, 8186.000000, 8174.000000
2816, 105056280.000000, 3310.500000, 8181.000000, 8240.500000, 8235.500000
2817, 105056440.000000, 3312.750000, 8518.000000, 8045.000000, 8178.000000
2818, 105056600.000000, 3196.875000, 8055.500000, 8088.000000, 8059.500000
2819, 105056760.000000, 3001.000000, 8148.500000, 8160.500000, 8155.000000
2820, 105056920.000000, 2758.125000, 8178.000000, 8195.500000, 8184.500000
2821, 105057080.000000, 2514.750000, 8185.000000, 8199.000000, 8189.500000
2822, 105057240.000000, 2302.875000, 8196.500000, 8198.000000, 8194.000000
2823, 105057400.000000, 2135.500000, 8211.500000, 8199.500000, 8200.500000
2824, 105057560.000000, 2012.375000, 8224.000000, 8202.500000, 8209.000000
2825, 105057720.000000, 1926.750000, 8248.000000, 8200.500000, 8217.000000
2826, 105057880.000000, 1870.625000, 8263.000000, 8203.500000, 8223.500000
2827, 105058040.000000, 1830.875000, 8262.000000, 8207.500000, 8227.500000
2828, 105058200.000000, 1798.500000, 8230.000000, 8216.500000, 8228.000000
2829, 105058360.000000, 1764.000000, 8180.000000, 8217.500000, 8212.000000
2830, 105058520.000000, 1720.875000, 8155.500000, 8206.000000, 8192.000000
2831, 105058680.000000, 1669.750000, 8145.000000, 8198.000000, 8178.000000
2832, 105058840.000000, 1600.000000, 8147.000000, 8197.000000, 8178.000000
2833, 105059000.000000, 1517.250000, 8154.000000, 8198.500000, 8185.500000
2834, 105059160.000000, 1426.500000, 8163.000000, 8199.500000, 8189.500000
2835, 105059320.000000, 1341.125000, 8171.500000, 8197.500000, 8191.000000
2836, 105059480.000000, 1270.250000, 8164.000000, 8194.000000, 8183.000000
2837, 105059640.000000, 1208.875000, 8168.500000, 8194.000000, 8185.500000
2838, 105059800.000000, 1160.250000, 8167.500000, 8195.000000, 8187.000000
2839, 105059960.000000, 1109.750000, 8163.000000, 8187.000000, 8177.000000
2840, 105060120.000000, 1052.125000, 8164.500000, 8191.000000, 8179.000000
2841, 105060280.000000, 1015.000000, 8169.500000, 8199.500000, 8198.500000
2842, 105060440.000000, 1098.000000, 8173.500000, 8204.500000, 8205.000000
2843, 105060600.000000, 1358.375000, 8188.000000, 8198.500000, 8202.500000
2844, 105060760.000000, 1792.625000, 8168.500000, 8181.000000, 8169.000000
2845, 105060920.000000, 2269.625000, 8163.500000, 8180.000000, 8163.500000
2846, 105061080.000000, 2684.875000, 8166.000000, 8182.000000, 8166.000000
2847, 105061240.000000, 2964.875000, 8168.000000, 8183.500000, 8170.500000
2848, 105061400.000000, 3095.125000, 8162.500000, 8207.000000, 8197.500000
2849, 105061560.000000, 3095.750000, 8339.500000, 8156.000000, 8205.500000
2850, 105061720.000000, 2993.500000, 8233.000000, 8118.500000, 8160.000000
2851, 105061880.000000, 2818.750000, 8085.000000, 8107.500000, 8081.500000
2852, 105062040.000000, 2591.000000, 8165.500000, 8186.500000, 8177.500000
2853, 105062200.000000, 2350.875000, 8185.500000, 8196.000000, 8187.000000
2854, 105062360.000000, 2131.375000, 8193.000000, 8200.000000, 8194.000000
2855, 105062520.000000, 1956.750000, 8203.500000, 8195.500000, 8193.500000
2856, 105062680.000000, 1838.875000, 8217.500000, 8198.500000, 8203.500000
2857, 105062840.000000, 1774.375000, 8237.500000, 8198.500000, 8212.000000
2858, 105063000.000000, 1742.625000, 8264.000000, 8200.000000, 8224.000000
2859, 105063160.000000, 1722.000000, 8266.500000, 8200.500000, 8228.000000
2860, 105063320.000000, 1696.875000, 8255.500000, 8208.000000, 8229.000000
2861, 105063480.000000, 1662.000000, 8205.500000, 8220.000000, 8224.000000
2862, 105063640.000000, 1619.250000, 8169.500000, 8215.500000, 8207.500000
2863, 105063800.000000, 1568.750000, 8155.000000, 8205.000000, 8191.500000
2864, 105063960.000000, 1513.000000, 8149.000000, 8203.000000, 8187.500000
2865, 105064120.000000, 1451.125000, 8158.000000, 8198.000000, 8185.000000
2866, 105064280.000000, 1385.250000, 8163.000000, 8200.000000, 8188.000000
2867, 105064440.000000, 1317.500000, 8172.000000, 8199.500000, 8192.500000
2868, 105064600.000000, 1247.875000, 8169.000000, 8198.000000, 8192.000000
2869, 105064760.000000, 1181.375000, 8166.500000, 8199.000000, 8191.500000
2870, 105064920.000000, 1115.625000, 8166.000000, 8195.500000, 8185.500000
2871, 105065080.000000, 1055.000000, 8163.000000, 8195.000000, 8185.000000
2872, 105065240.000000, 998.750000, 8168.000000, 8189.500000, 8180.500000
2873, 105065400.000000, 951.875000, 8170.000000, 8195.500000, 8191.500000
2874, 105065560.000000, 964.875000, 8173.500000, 8208.500000, 8212.000000
2875, 105065720.000000, 1103.000000, 8187.500000, 8202.000000, 8204.000000
2876, 105065880.000000, 1427.250000, 8176.000000, 8191.500000, 8185.000000
2877, 105066040.000000, 1859.250000, 8163.000000, 8184.000000, 8167.000000
2878, 105066200.000000, 2300.750000, 8169.500000, 8184.000000, 8173.500000
2879, 105066360.000000, 2653.375000, 8166.500000, 8177.000000, 8163.500000
2880, 105066520.000000, 2881.875000, 8164.500000, 8187.000000, 8176.000000
2881, 105066680.000000, 2984.750000, 8195.000000, 8231.000000, 8227.000000
2882, 105066840.000000, 2967.750000, 8503.000000, 8066.000000, 8196.500000
2883, 105067000.000000, 2858.000000, 8065.500000, 8115.500000, 8090.500000
2884, 105067160.000000, 2668.750000, 8150.000000, 8161.500000, 8156.000000
2885, 105067320.000000, 2440.750000, 8180.500000, 8195.500000, 8186.000000
2886, 105067480.000000, 2213.125000, 8187.000000, 8197.000000, 8188.000000
2887, 105067640.000000, 2019.875000, 8197.000000, 8198.000000, 8195.500000
2888, 105067800.000000, 1879.500000, 8211.500000, 8194.500000, 8197.500000
2889, 105067960.000000, 1792.500000, 8225.500000, 8200.000000, 8209.500000
2890, 105068120.000000, 1747.500000, 8252.000000, 8195.000000, 8214.000000
2891, 105068280.000000, 1725.750000, 8269.500000, 8197.500000, 8224.000000
2892, 105068440.000000, 1713.125000, 8262.500000, 8204.000000, 8226.000000
2893, 105068600.000000, 1692.375000, 8229.500000, 8211.500000, 8226.500000
2894, 105068760.000000, 1659.625000, 8184.500000, 8220.500000, 8219.000000
2895, 105068920.000000, 1609.750000, 8156.500000, 8208.000000, 8196.000000
2896, 105069080.000000, 1550.625000, 8149.000000, 8198.500000, 8181.500000
2897, 105069240.000000, 1487.250000, 8151.000000, 8197.500000, 8181.500000
2898, 105069400.000000, 1418.125000, 8164.500000, 8198.500000, 8188.500000
2899, 105069560.000000, 1346.500000, 8168.500000, 8199.500000, 8192.000000
2900, 105069720.000000, 1276.500000, 8170.500000, 8194.500000, 8185.500000
2901, 105069880.000000, 1209.250000, 8170.500000, 8192.000000, 8185.000000
2902, 105070040.000000, 1146.250000, 8167.000000, 8194.000000, 8184.500000
2903, 105070200.000000, 1084.000000, 8167.000000, 8194.500000, 8185.000000
2904, 105070360.000000, 1023.625000, 8166.500000, 8193.500000, 8184.000000
2905, 105070520.000000, 960.000000, 8166.000000, 8191.000000, 8180.000000
2906, 105070680.000000, 919.500000, 8174.000000, 8203.000000, 8206.000000
2907, 105070840.000000, 957.750000, 8185.500000, 8202.000000, 8207.500000
2908, 105071000.000000, 1164.875000, 8186.000000, 8197.000000, 8200.000000
2909, 105071160.000000, 1528.250000, 8166.500000, 8187.500000, 8173.500000
2910, 105071320.000000, 1972.375000, 8165.000000, 8185.000000, 8168.000000
2911, 105071480.000000, 2379.250000, 8167.000000, 8182.500000, 8167.000000
2912, 105071640.000000, 2680.750000, 8173.000000, 8181.500000, 8168.500000
2913, 105071800.000000, 2852.500000, 8163.000000, 8233.500000, 8226.500000
2914, 105071960.000000, 2896.375000, 8475.500000, 8084.500000, 8186.500000
2915, 105072120.000000, 2839.500000, 8117.000000, 8144.500000, 8143.500000
2916, 105072280.000000, 2693.000000, 8118.500000, 8139.500000, 8128.000000
2917, 105072440.000000, 2490.875000, 8175.000000, 8193.000000, 8182.000000
2918, 105072600.000000, 2265.625000, 8185.000000, 8198.500000, 8191.000000
2919, 105072760.000000, 2053.125000, 8194.000000, 8199.000000, 8193.500000
2920, 105072920.000000, 1877.875000, 8204.000000, 8198.000000, 8195.500000
2921, 105073080.000000, 1751.500000, 8222.000000, 8198.000000, 8202.000000
2922, 105073240.000000, 1677.875000, 8246.000000, 8197.500000, 8212.500000
2923, 105073400.000000, 1642.250000, 8266.500000, 8200.500000, 8225.000000
2924, 105073560.000000, 1629.875000, 8271.500000, 8204.000000, 8230.000000
2925, 105073720.000000, 1617.875000, 8247.000000, 8210.500000, 8227.500000
2926, 105073880.000000, 1594.125000, 8197.000000, 8215.500000, 8214.000000
2927, 105074040.000000, 1555.125000, 8166.500000, 8210.500000, 8200.000000
2928, 105074200.000000, 1507.750000, 8152.000000, 8202.500000, 8185.500000
2929, 105074360.000000, 1452.750000, 8152.500000, 8197.500000, 8181.500000
2930, 105074520.000000, 1393.625000, 8158.500000, 8196.000000, 8180.000000
2931, 105074680.000000, 1331.125000, 8164.500000, 8195.500000, 8183.500000
2932, 105074840.000000, 1263.875000, 8173.000000, 8199.000000, 8192.000000
2933, 105075000.000000, 1197.375000, 8172.000000, 8195.000000, 8188.000000
2934, 105075160.000000, 1132.625000, 8171.000000, 8196.000000, 8188.000000
2935, 105075320.000000, 1073.875000, 8168.000000, 8193.000000, 8182.500000
2936, 105075480.000000, 1015.000000, 8169.500000, 8191.000000, 8178.500000
2937, 105075640.000000, 957.750000, 8170.500000, 8187.500000, 8175.500000
2938, 105075800.000000, 913.875000, 8176.000000, 8206.500000, 8209.500000
2939, 105075960.000000, 916.250000, 8189.000000, 8201.500000, 8207.500000
2940, 105076120.000000, 1056.250000, 8187.500000, 8195.500000, 8194.500000
2941, 105076280.000000, 1351.000000, 8168.500000, 8181.500000, 8168.000000
2942, 105076440.000000, 1769.375000, 8167.500000, 8181.000000, 8165.000000
2943, 105076600.000000, 2194.500000, 8168.000000, 8180.500000, 8166.000000
2944, 105076760.000000, 2545.375000, 8174.000000, 8184.000000, 8173.000000
2945, 105076920.000000, 2775.500000, 8163.000000, 8230.000000, 8222.000000
2946, 105077080.000000, 2874.500000, 8457.000000, 8090.500000, 8182.000000
2947, 105077240.000000, 2863.375000, 8124.500000, 8142.500000, 8143.500000
2948, 105077400.000000, 2750.125000, 8111.000000, 8123.500000, 8105.500000
2949, 105077560.000000, 2568.125000, 8176.000000, 8190.500000, 8182.000000
2950, 105077720.000000, 2342.125000, 8191.500000, 8194.500000, 8185.500000
2951, 105077880.000000, 2115.000000, 8200.000000, 8196.500000, 8193.000000
2952, 105078040.000000, 1923.625000, 8211.000000, 8197.500000, 8198.000000
2953, 105078200.000000, 1785.000000, 8225.000000, 8195.500000, 8203.500000
2954, 105078360.000000, 1693.875000, 8245.500000, 8198.500000, 8214.500000
2955, 105078520.000000, 1639.250000, 8273.000000, 8197.500000, 8222.500000
2956, 105078680.000000, 1608.250000, 8273.500000, 8203.500000, 8229.000000
2957, 105078840.000000, 1588.750000, 8256.000000, 8213.500000, 8234.000000
2958, 105079000.000000, 1575.375000, 8204.000000, 8224.000000, 8228.000000
2959, 105079160.000000, 1554.250000, 8166.000000, 8214.500000, 8204.500000
2960, 105079320.000000, 1518.875000, 8153.500000, 8202.500000, 8186.000000
2961, 105079480.000000, 1467.750000, 8152.000000, 8197.500000, 8179.000000
2962, 105079640.000000, 1406.250000, 8156.000000, 8199.000000, 8183.500000
2963, 105079800.000000, 1339.375000, 8163.500000, 8199.500000, 8187.000000
2964, 105079960.000000, 1273.625000, 8171.000000, 8200.500000, 8191.500000
2965, 105080120.000000, 1214.750000, 8172.500000, 8199.000000, 8189.500000
2966, 105080280.000000, 1160.125000, 8173.500000, 8196.000000, 8188.000000
2967, 105080440.000000, 1106.750000, 8170.500000, 8198.000000, 8187.000000
2968, 105080600.000000, 1050.000000, 8173.000000, 8199.000000, 8191.000000
2969, 105080760.000000, 990.000000, 8179.500000, 8208.500000, 8211.000000
2970, 105080920.000000, 927.375000, 8188.000000, 8203.500000, 8207.000000
2971, 105081080.000000, 889.750000, 8183.000000, 8190.500000, 8185.000000
2972, 105081240.000000, 964.500000, 8166.000000, 8183.000000, 8167.000000
2973, 105081400.000000, 1200.625000, 8168.500000, 8183.500000, 8169.000000
2974, 105081560.000000, 1584.750000, 8173.000000, 8182.500000, 8169.000000
2975, 105081720.000000, 2005.375000, 8171.500000, 8184.500000, 8172.000000
2976, 105081880.000000, 2367.750000, 8186.500000, 8240.500000, 8239.000000
2977, 105082040.000000, 2627.750000, 8509.500000, 8057.000000, 8175.000000
2978, 105082200.000000, 2772.750000, 8072.500000, 8134.500000, 8118.000000
2979, 105082360.000000, 2814.750000, 8137.000000, 8144.500000, 8133.000000
2980, 105082520.000000, 2749.875000, 8181.500000, 8192.500000, 8182.000000
2981, 105082680.000000, 2605.750000, 8193.500000, 8195.500000, 8188.000000
2982, 105082840.000000, 2401.000000, 8201.000000, 8197.000000, 8194.000000
2983, 105083000.000000, 2180.000000, 8216.000000, 8199.000000, 8203.000000
2984, 105083160.000000, 1981.750000, 8230.500000, 8197.000000, 8206.500000
2985, 105083320.000000, 1828.750000, 8256.500000, 8197.000000, 8215.000000
2986, 105083480.000000, 1731.500000, 8276.500000, 8198.500000, 8224.000000
2987, 105083640.000000, 1677.125000, 8274.000000, 8208.000000, 8234.000000
2988, 105083800.000000, 1652.750000, 8244.500000, 8214.500000, 8231.500000
2989, 105083960.000000, 1638.750000, 8191.500000, 8207.000000, 8208.500000
2990, 105084120.000000, 1625.125000, 8159.500000, 8192.500000, 8180.000000
2991, 105084280.000000, 1606.125000, 8149.000000, 8182.000000, 8165.000000
2992, 105084440.000000, 1578.750000, 8152.000000, 8183.000000, 8168.000000
2993, 105084600.000000, 1539.125000, 8156.500000, 8186.000000, 8171.500000
2994, 105084760.000000, 1491.750000, 8165.000000, 8185.500000, 8174.500000
2995, 105084920.000000, 1436.750000, 8173.000000, 8182.500000, 8173.500000
2996, 105085080.000000, 1379.375000, 8175.500000, 8182.000000, 8174.500000
2997, 105085240.000000, 1322.875000, 8173.500000, 8183.500000, 8176.500000
2998, 105085400.000000, 1263.000000, 8173.500000, 8182.000000, 8174.000000
2999, 105085560.000000, 1201.125000, 8178.000000, 8197.500000, 8199.500000
3000, 105085720.000000, 1134.875000, 8188.500000, 8194.000000, 8199.500000
3001, 105085880.000000, 1066.375000, 8184.500000, 8185.500000, 8183.500000
3002, 105086040.000000, 1028.625000, 8166.000000, 8177.000000, 8162.000000
3003, 105086200.000000, 1076.125000, 8169.000000, 8174.000000, 8160.000000
3004, 105086360.000000, 1289.125000, 8171.000000, 8175.500000, 8162.500000
3005, 105086520.000000, 1629.250000, 8171.500000, 8174.500000, 8162.000000
3006, 105086680.000000, 2014.875000, 8167.500000, 8233.500000, 8229.500000
3007, 105086840.000000, 2351.625000, 8461.000000, 8072.500000, 8167.500000
3008, 105087000.000000, 2596.375000, 8095.500000, 8131.000000, 8121.000000
3009, 105087160.000000, 2736.625000, 8113.500000, 8116.000000, 8094.000000
3010, 105087320.000000, 2769.625000, 8179.000000, 8183.500000, 8173.500000
3011, 105087480.000000, 2711.500000, 8189.000000, 8189.500000, 8181.000000
3012, 105087640.000000, 2570.875000, 8198.500000, 8194.000000, 8188.000000
3013, 105087800.000000, 2383.125000, 8210.000000, 8195.000000, 8195.000000
3014, 105087960.000000, 2175.625000, 8222.000000, 8195.000000, 8202.000000
3015, 105088120.000000, 1988.750000, 8246.000000, 8192.000000, 8207.000000
3016, 105088280.000000, 1848.500000, 8270.000000, 8197.500000, 8220.500000
3017, 105088440.000000, 1757.750000, 8275.500000, 8203.000000, 8229.500000
3018, 105088600.000000, 1713.625000, 8250.000000, 8218.000000, 8237.000000
3019, 105088760.000000, 1700.250000, 8194.000000, 8224.000000, 8226.000000
3020, 105088920.000000, 1699.625000, 8163.500000, 8209.000000, 8199.500000
3021, 105089080.000000, 1692.625000, 8151.500000, 8197.500000, 8181.000000
3022, 105089240.000000, 1669.125000, 8151.500000, 8196.000000, 8180.500000
3023, 105089400.000000, 1629.250000, 8155.500000, 8196.500000, 8182.500000
3024, 105089560.000000, 1582.500000, 8159.000000, 8195.000000, 8184.000000
3025, 105089720.000000, 1535.250000, 8167.000000, 8195.000000, 8185.500000
3026, 105089880.000000, 1486.500000, 8173.000000, 8192.500000, 8185.000000
3027, 105090040.000000, 1435.625000, 8175.000000, 8194.000000, 8187.000000
3028, 105090200.000000, 1377.625000, 8177.000000, 8199.000000, 8195.500000
3029, 105090360.000000, 1312.375000, 8179.500000, 8206.500000, 8211.000000
3030, 105090520.000000, 1246.875000, 8193.000000, 8202.000000, 8206.000000
3031, 105090680.000000, 1177.500000, 8180.000000, 8188.000000, 8183.500000
3032, 105090840.000000, 1127.125000, 8168.000000, 8182.000000, 8167.500000
3033, 105091000.000000, 1155.625000, 8169.000000, 8181.000000, 8167.000000
3034, 105091160.000000, 1340.250000, 8168.500000, 8180.000000, 8167.500000
3035, 105091320.000000, 1664.750000, 8170.000000, 8184.000000, 8172.500000
3036, 105091480.000000, 2056.500000, 8211.000000, 8238.000000, 8245.500000
3037, 105091640.000000, 2419.250000, 8444.000000, 8049.000000, 8149.000000
3038, 105091800.000000, 2696.625000, 8063.500000, 8092.500000, 8069.000000
3039, 105091960.000000, 2860.875000, 8151.000000, 8151.000000, 8141.000000
3040, 105092120.000000, 2914.500000, 8181.500000, 8194.500000, 8186.000000
3041, 105092280.000000, 2865.875000, 8191.000000, 8197.500000, 8192.000000
3042, 105092440.000000, 2737.625000, 8203.500000, 8199.000000, 8197.000000
3043, 105092600.000000, 2561.375000, 8213.500000, 8197.500000, 8202.000000
3044, 105092760.000000, 2366.125000, 8233.500000, 8197.500000, 8209.000000
3045, 105092920.000000, 2186.375000, 8253.500000, 8197.500000, 8215.500000
3046, 105093080.000000, 2041.250000, 8274.000000, 8202.500000, 8228.500000
3047, 105093240.000000, 1937.375000, 8274.500000, 8213.000000, 8240.000000
3048, 105093400.000000, 1875.000000, 8231.500000, 8230.000000, 8245.500000
3049, 105093560.000000, 1844.250000, 8184.500000, 8220.500000, 8219.000000
3050, 105093720.000000, 1827.125000, 8158.500000, 8207.000000, 8195.000000
3051, 105093880.000000, 1812.750000, 8155.000000, 8196.500000, 8181.500000
3052, 105094040.000000, 1791.500000, 8154.500000, 8194.500000, 8181.000000
3053, 105094200.000000, 1754.125000, 8157.000000, 8198.000000, 8184.000000
3054, 105094360.000000, 1707.500000, 8164.500000, 8196.000000, 8185.000000
3055, 105094520.000000, 1657.500000, 8167.000000, 8194.000000, 8185.000000
3056, 105094680.000000, 1605.750000, 8176.000000, 8194.000000, 8187.000000
3057, 105094840.000000, 1549.875000, 8172.000000, 8194.500000, 8186.500000
3058, 105095000.000000, 1491.000000, 8178.000000, 8206.500000, 8209.500000
3059, 105095160.000000, 1428.250000, 8185.500000, 8206.000000, 8210.500000
3060, 105095320.000000, 1357.125000, 8186.000000, 8199.500000, 8197.000000
3061, 105095480.000000, 1288.250000, 8173.500000, 8182.500000, 8171.500000
3062, 105095640.000000, 1251.125000, 8168.500000, 8178.000000, 8164.500000
3063, 105095800.000000, 1330.250000, 8169.000000, 8183.500000, 8170.500000
3064, 105095960.000000, 1568.125000, 8169.000000, 8180.500000, 8167.500000
3065, 105096120.000000, 1934.375000, 8164.500000, 8205.500000, 8195.500000
3066, 105096280.000000, 2329.875000, 8323.000000, 8170.500000, 8213.000000
3067, 105096440.000000, 2670.500000, 8213.000000, 8103.000000, 8134.000000
3068, 105096600.000000, 2910.125000, 8077.000000, 8091.500000, 8060.000000
3069, 105096760.000000, 3045.500000, 8169.500000, 8174.000000, 8164.000000
3070, 105096920.000000, 3070.500000, 8186.500000, 8195.000000, 8185.500000
3071, 105097080.000000, 2996.375000, 8194.000000, 8199.500000, 8192.000000
3072, 105097240.000000, 2842.875000, 8201.500000, 8200.500000, 8199.000000
3073, 105097400.000000, 2642.375000, 8216.500000, 8200.000000, 8206.000000
3074, 105097560.000000, 2437.750000, 8238.500000, 8198.500000, 8210.500000
3075, 105097720.000000, 2256.375000, 8260.000000, 8199.500000, 8220.000000
3076, 105097880.000000, 2117.750000, 8278.000000, 8207.500000, 8233.500000
3077, 105098040.000000, 2022.000000, 8262.000000, 8220.000000, 8242.500000
3078, 105098200.000000, 1963.625000, 8210.000000, 8233.500000, 8243.500000
3079, 105098360.000000, 1934.125000, 8169.000000, 8218.500000, 8212.500000
3080, 105098520.000000, 1916.375000, 8157.500000, 8201.500000, 8188.000000
3081, 105098680.000000, 1897.000000, 8154.500000, 8195.000000, 8181.500000
3082, 105098840.000000, 1866.000000, 8158.500000, 8194.500000, 8180.500000
3083, 105099000.000000, 1823.250000, 8155.500000, 8196.500000, 8184.500000
3084, 105099160.000000, 1774.500000, 8164.500000, 8196.000000, 8187.000000
3085, 105099320.000000, 1721.750000, 8172.500000, 8191.500000, 8183.000000
3086, 105099480.000000, 1666.375000, 8171.500000, 8195.500000, 8188.000000
3087, 105099640.000000, 1605.125000, 8170.000000, 8197.500000, 8188.500000
3088, 105099800.000000, 1536.125000, 8182.000000, 8207.500000, 8213.500000
3089, 105099960.000000, 1465.375000, 8188.000000, 8206.500000, 8212.500000
3090, 105100120.000000, 1393.125000, 8185.000000, 8197.000000, 8198.500000
3091, 105100280.000000, 1327.875000, 8168.500000, 8185.000000, 8171.500000
3092, 105100440.000000, 1326.875000, 8165.500000, 8182.500000, 8168.500000
3093, 105100600.000000, 1456.125000, 8170.500000, 8182.000000, 8171.000000
3094, 105100760.000000, 1745.250000, 8170.000000, 8183.000000, 8172.000000
3095, 105100920.000000, 2127.125000, 8167.000000, 8224.500000, 8222.000000
3096, 105101080.000000, 2513.875000, 8366.500000, 8127.000000, 8186.000000
3097, 105101240.000000, 2827.875000, 8141.000000, 8103.500000, 8113.500000
3098, 105101400.000000, 3031.000000, 8094.500000, 8102.000000, 8075.500000
3099, 105101560.000000, 3128.000000, 8176.500000, 8184.500000, 8175.500000
3100, 105101720.000000, 3114.000000, 8185.000000, 8196.500000, 8189.000000
3101, 105101880.000000, 3015.500000, 8197.500000, 8200.000000, 8197.000000
3102, 105102040.000000, 2850.500000, 8207.000000, 8201.500000, 8201.500000
3103, 105102200.000000, 2647.625000, 8218.000000, 8202.000000, 8208.500000
3104, 105102360.000000, 2437.750000, 8236.000000, 8204.000000, 8215.500000
3105, 105102520.000000, 2256.500000, 8262.500000, 8207.500000, 8228.500000
3106, 105102680.000000, 2121.250000, 8269.000000, 8218.000000, 8242.500000
3107, 105102840.000000, 2038.250000, 8254.000000, 8231.000000, 8254.000000
3108, 105103000.000000, 1995.125000, 8200.000000, 8233.500000, 8240.500000
3109, 105103160.000000, 1967.250000, 8164.500000, 8212.500000, 8203.500000
3110, 105103320.000000, 1945.625000, 8151.500000, 8203.500000, 8188.000000
3111, 105103480.000000, 1917.500000, 8151.500000, 8196.500000, 8180.000000
3112, 105103640.000000, 1886.000000, 8153.500000, 8198.500000, 8183.000000
3113, 105103800.000000, 1843.250000, 8160.000000, 8197.000000, 8185.000000
3114, 105103960.000000, 1793.125000, 8163.500000, 8198.500000, 8188.000000
3115, 105104120.000000, 1738.750000, 8166.000000, 8198.500000, 8188.500000
3116, 105104280.000000, 1680.000000, 8164.500000, 8196.000000, 8186.000000
3117, 105104440.000000, 1616.375000, 8170.500000, 8196.000000, 8190.000000
3118, 105104600.000000, 1544.875000, 8171.000000, 8193.500000, 8188.500000
3119, 105104760.000000, 1461.750000, 8175.500000, 8203.500000, 8204.500000
3120, 105104920.000000, 1353.875000, 8175.000000, 8209.500000, 8213.500000
3121, 105105080.000000, 1322.625000, 8184.000000, 8205.000000, 8209.000000
3122, 105105240.000000, 1441.875000, 8174.500000, 8192.500000, 8186.500000
3123, 105105400.000000, 1729.000000, 8165.000000, 8186.000000, 8173.000000
3124, 105105560.000000, 2198.375000, 8167.000000, 8182.500000, 8167.500000
3125, 105105720.000000, 2644.875000, 8165.000000, 8183.500000, 8168.500000
3126, 105105880.000000, 2937.500000, 8163.500000, 8187.000000, 8173.500000
3127, 105106040.000000, 3109.875000, 8207.500000, 8250.000000, 8263.000000
3128, 105106200.000000, 3155.750000, 8432.500000, 8002.000000, 8105.000000
3129, 105106360.000000, 3080.250000, 8057.000000, 8052.500000, 8017.500000
3130, 105106520.000000, 2892.375000, 8160.500000, 8175.500000, 8170.000000
3131, 105106680.000000, 2682.125000, 8180.000000, 8204.500000, 8195.500000
3132, 105106840.000000, 2461.125000, 8188.500000, 8209.000000, 8202.000000
3133, 105107000.000000, 2264.125000, 8198.000000, 8209.000000, 8206.500000
3134, 105107160.000000, 2110.875000, 8205.500000, 8208.500000, 8209.500000
3135, 105107320.000000, 2002.750000, 8222.000000, 8210.000000, 8218.000000
3136, 105107480.000000, 1933.875000, 8245.000000, 8216.000000, 8234.500000
3137, 105107640.000000, 1893.750000, 8271.500000, 8219.000000, 8248.000000
3138, 105107800.000000, 1861.125000, 8270.500000, 8219.500000, 8249.000000
3139, 105107960.000000, 1827.875000, 8229.000000, 8233.000000, 8250.000000
3140, 105108120.000000, 1779.750000, 8176.000000, 8222.000000, 8217.500000
3141, 105108280.000000, 1722.000000, 8153.000000, 8206.500000, 8192.500000
3142, 105108440.000000, 1657.250000, 8151.000000, 8200.000000, 8184.000000
3143, 105108600.000000, 1587.625000, 8154.000000, 8199.000000, 8183.000000
3144, 105108760.000000, 1511.375000, 8152.500000, 8200.500000, 8184.500000
3145, 105108920.000000, 1435.625000, 8155.500000, 8200.000000, 8186.000000
3146, 105109080.000000, 1364.875000, 8162.000000, 8202.000000, 8192.500000
3147, 105109240.000000, 1300.125000, 8165.500000, 8200.000000, 8191.500000
3148, 105109400.000000, 1240.000000, 8164.500000, 8201.000000, 8193.000000
3149, 105109560.000000, 1176.375000, 8164.500000, 8196.500000, 8186.500000
3150, 105109720.000000, 1113.375000, 8172.000000, 8194.000000, 8186.000000
3151, 105109880.000000, 1084.250000, 8167.000000, 8195.500000, 8184.500000
3152, 105110040.000000, 1169.125000, 8167.500000, 8194.500000, 8184.500000
3153, 105110200.000000, 1431.875000, 8175.500000, 8225.500000, 8230.500000
3154, 105110360.000000, 1849.750000, 8179.500000, 8220.500000, 8225.000000
3155, 105110520.000000, 2318.625000, 8185.500000, 8215.000000, 8215.500000
3156, 105110680.000000, 2738.625000, 8168.500000, 8202.000000, 8189.500000
3157, 105110840.000000, 3060.500000, 8167.000000, 8200.000000, 8185.000000
3158, 105111000.000000, 3250.250000, 8169.500000, 8198.500000, 8186.000000
3159, 105111160.000000, 3304.625000, 8169.000000, 8196.000000, 8185.000000
3160, 105111320.000000, 3243.750000, 8158.500000, 8223.000000, 8213.000000
3161, 105111480.000000, 3094.750000, 8339.500000, 8175.000000, 8232.500000
3162, 105111640.000000, 2886.875000, 8194.000000, 8067.500000, 8090.000000
3163, 105111800.000000, 2657.500000, 8096.000000, 8110.500000, 8088.000000
3164, 105111960.000000, 2435.875000, 8175.000000, 8204.500000, 8196.500000
3165, 105112120.000000, 2248.500000, 8186.500000, 8213.500000, 8205.000000
3166, 105112280.000000, 2111.500000, 8192.500000, 8214.000000, 8208.000000
3167, 105112440.000000, 2019.875000, 8200.500000, 8214.000000, 8212.000000
3168, 105112600.000000, 1963.625000, 8214.000000, 8217.000000, 8221.500000
3169, 105112760.000000, 1925.750000, 8232.000000, 8214.500000, 8226.000000
3170, 105112920.000000, 1894.125000, 8260.000000, 8217.500000, 8240.000000
3171, 105113080.000000, 1857.000000, 8278.000000, 8217.500000, 8248.000000
3172, 105113240.000000, 1805.000000, 8270.000000, 8224.000000, 8253.000000
3173, 105113400.000000, 1739.500000, 8215.000000, 8230.500000, 8240.500000
3174, 105113560.000000, 1668.125000, 8168.000000, 8220.500000, 8212.000000
3175, 105113720.000000, 1591.875000, 8153.000000, 8205.500000, 8188.500000
3176, 105113880.000000, 1517.125000, 8147.000000, 8200.500000, 8182.000000
3177, 105114040.000000, 1446.500000, 8153.000000, 8201.500000, 8184.500000
3178, 105114200.000000, 1376.875000, 8154.000000, 8204.500000, 8190.500000
3179, 105114360.000000, 1310.250000, 8155.500000, 8202.000000, 8188.000000
3180, 105114520.000000, 1248.375000, 8160.500000, 8200.500000, 8188.000000
3181, 105114680.000000, 1194.500000, 8161.500000, 8200.000000, 8190.000000
3182, 105114840.000000, 1151.000000, 8167.000000, 8197.500000, 8188.500000
3183, 105115000.000000, 1105.500000, 8167.000000, 8195.000000, 8186.000000
3184, 105115160.000000, 1051.625000, 8166.500000, 8194.000000, 8182.500000
3185, 105115320.000000, 1038.250000, 8169.500000, 8189.000000, 8178.500000
3186, 105115480.000000, 1167.875000, 8168.000000, 8190.000000, 8179.500000
3187, 105115640.000000, 1475.375000, 8167.500000, 8190.000000, 8178.000000
3188, 105115800.000000, 1923.625000, 8168.000000, 8189.000000, 8180.000000
3189, 105115960.000000, 2390.500000, 8170.000000, 8188.500000, 8177.500000
3190, 105116120.000000, 2785.875000, 8178.500000, 8205.000000, 8209.000000
3191, 105116280.000000, 3056.875000, 8192.500000, 8197.500000, 8203.000000
3192, 105116440.000000, 3195.375000, 8185.500000, 8189.000000, 8187.000000
3193, 105116600.000000, 3213.875000, 8169.500000, 8181.500000, 8169.000000
3194, 105116760.000000, 3130.500000, 8170.000000, 8180.000000, 8167.000000
3195, 105116920.000000, 2976.750000, 8171.500000, 8182.000000, 8169.500000
3196, 105117080.000000, 2770.750000, 8173.500000, 8184.000000, 8174.000000
3197, 105117240.000000, 2552.000000, 8166.000000, 8240.000000, 8237.000000
3198, 105117400.000000, 2344.500000, 8507.500000, 8051.500000, 8175.500000
3199, 105117560.000000, 2172.875000, 8079.500000, 8078.500000, 8061.000000
3200, 105117720.000000, 2049.125000, 8138.000000, 8150.500000, 8144.000000
3201, 105117880.000000, 1974.000000, 8180.000000, 8196.000000, 8187.500000
3202, 105118040.000000, 1934.875000, 8189.500000, 8201.000000, 8194.500000
3203, 105118200.000000, 1909.250000, 8196.500000, 8203.500000, 8201.000000
3204, 105118360.000000, 1879.750000, 8206.500000, 8201.500000, 8202.000000
3205, 105118520.000000, 1840.250000, 8223.000000, 8203.000000, 8209.000000
3206, 105118680.000000, 1786.000000, 8244.500000, 8204.500000, 8220.500000
3207, 105118840.000000, 1721.375000, 8274.500000, 8200.500000, 8228.500000
3208, 105119000.000000, 1650.750000, 8279.000000, 8212.500000, 8243.500000
3209, 105119160.000000, 1574.750000, 8260.000000, 8215.500000, 8240.500000
3210, 105119320.000000, 1494.625000, 8201.500000, 8218.500000, 8221.000000
3211, 105119480.000000, 1413.000000, 8161.000000, 8208.500000, 8195.500000
3212, 105119640.000000, 1334.750000, 8151.500000, 8201.000000, 8185.500000
3213, 105119800.000000, 1266.125000, 8151.500000, 8196.000000, 8179.500000
