1678, 113275160.000000, 2280.750000, 8150.500000, 8171.000000, 8158.500000
1679, 113275320.000000, 2045.625000, 8177.500000, 8193.500000, 8177.500000
1680, 113275480.000000, 1836.625000, 8198.000000, 8190.500000, 8182.000000
1681, 113275640.000000, 1681.625000, 8207.000000, 8193.000000, 8188.000000
1682, 113275800.000000, 1596.750000, 8208.500000, 8196.500000, 8194.500000
1683, 113275960.000000, 1562.875000, 8224.000000, 8198.500000, 8201.000000
1684, 113276120.000000, 1562.500000, 8253.000000, 8195.000000, 8207.500000
1685, 113276280.000000, 1573.500000, 8284.500000, 8192.000000, 8217.000000
1686, 113276440.000000, 1582.750000, 8284.000000, 8198.000000, 8222.500000
1687, 113276600.000000, 1580.375000, 8229.000000, 8218.500000, 8229.000000
1688, 113276760.000000, 1558.500000, 8170.500000, 8224.500000, 8216.500000
1689, 113276920.000000, 1519.375000, 8152.500000, 8210.000000, 8194.000000
1690, 113277080.000000, 1463.000000, 8157.500000, 8199.500000, 8184.000000
1691, 113277240.000000, 1401.125000, 8161.000000, 8197.500000, 8182.500000
1692, 113277400.000000, 1343.125000, 8157.500000, 8201.500000, 8186.000000
1693, 113277560.000000, 1295.250000, 8161.000000, 8205.500000, 8194.500000
1694, 113277720.000000, 1254.000000, 8167.500000, 8203.000000, 8193.000000
1695, 113277880.000000, 1214.000000, 8174.500000, 8197.500000, 8190.000000
1696, 113278040.000000, 1174.000000, 8178.000000, 8195.500000, 8187.500000
1697, 113278200.000000, 1134.875000, 8171.500000, 8196.500000, 8188.000000
1698, 113278360.000000, 1100.125000, 8166.500000, 8197.500000, 8186.000000
1699, 113278520.000000, 1066.625000, 8167.500000, 8194.500000, 8181.500000
1700, 113278680.000000, 1053.250000, 8172.500000, 8200.500000, 8196.000000
1701, 113278840.000000, 1118.750000, 8181.500000, 8208.000000, 8210.000000
1702, 113279000.000000, 1318.125000, 8199.000000, 8205.500000, 8209.000000
1703, 113279160.000000, 1649.875000, 8180.000000, 8192.000000, 8184.500000
1704, 113279320.000000, 2023.375000, 8162.000000, 8188.500000, 8169.500000
1705, 113279480.000000, 2354.875000, 8170.500000, 8183.500000, 8166.500000
1706, 113279640.000000, 2586.625000, 8181.000000, 8183.000000, 8170.000000
1707, 113279800.000000, 2714.750000, 8191.500000, 8184.000000, 8179.000000
1708, 113279960.000000, 2734.875000, 8248.500000, 8228.500000, 8246.000000
1709, 113280120.000000, 2662.250000, 8485.500000, 8061.000000, 8180.000000
1710, 113280280.000000, 2512.500000, 8051.500000, 8084.000000, 8051.500000
1711, 113280440.000000, 2301.250000, 8140.500000, 8161.500000, 8150.500000
1712, 113280600.000000, 2066.500000, 8181.000000, 8196.500000, 8185.500000
1713, 113280760.000000, 1852.000000, 8203.500000, 8196.000000, 8194.000000
1714, 113280920.000000, 1691.500000, 8205.000000, 8196.500000, 8196.500000
1715, 113281080.000000, 1588.125000, 8203.000000, 8198.000000, 8196.500000
1716, 113281240.000000, 1537.875000, 8215.500000, 8200.000000, 8203.000000
1717, 113281400.000000, 1527.875000, 8247.000000, 8199.000000, 8213.500000
1718, 113281560.000000, 1545.750000, 8277.000000, 8198.000000, 8224.000000
1719, 113281720.000000, 1573.500000, 8277.500000, 8203.000000, 8231.000000
1720, 113281880.000000, 1600.000000, 8232.500000, 8217.500000, 8229.500000
1721, 113282040.000000, 1614.625000, 8179.500000, 8224.000000, 8221.000000
1722, 113282200.000000, 1606.750000, 8156.500000, 8214.000000, 8202.500000
1723, 113282360.000000, 1581.750000, 8153.000000, 8205.000000, 8192.000000
1724, 113282520.000000, 1538.125000, 8154.000000, 8201.000000, 8187.000000
1725, 113282680.000000, 1482.875000, 8155.500000, 8199.500000, 8186.500000
1726, 113282840.000000, 1420.250000, 8158.500000, 8200.000000, 8188.000000
1727, 113283000.000000, 1355.250000, 8158.500000, 8203.500000, 8194.500000
1728, 113283160.000000, 1292.375000, 8163.000000, 8204.500000, 8197.500000
1729, 113283320.000000, 1237.625000, 8164.500000, 8200.500000, 8191.500000
1730, 113283480.000000, 1195.750000, 8163.000000, 8197.500000, 8187.500000
1731, 113283640.000000, 1161.750000, 8165.000000, 8196.000000, 8187.000000
1732, 113283800.000000, 1129.125000, 8164.000000, 8195.000000, 8185.500000
1733, 113283960.000000, 1109.500000, 8167.000000, 8195.500000, 8188.500000
1734, 113284120.000000, 1151.875000, 8180.500000, 8206.000000, 8213.500000
1735, 113284280.000000, 1322.125000, 8193.500000, 8199.500000, 8208.500000
1736, 113284440.000000, 1633.375000, 8192.000000, 8194.500000, 8198.500000
1737, 113284600.000000, 2003.375000, 8163.000000, 8185.500000, 8171.500000
1738, 113284760.000000, 2337.625000, 8164.000000, 8185.000000, 8170.000000
1739, 113284920.000000, 2590.250000, 8173.000000, 8181.500000, 8168.500000
1740, 113285080.000000, 2741.625000, 8175.500000, 8180.000000, 8168.500000
1741, 113285240.000000, 2792.250000, 8159.500000, 8233.500000, 8225.000000
1742, 113285400.000000, 2749.750000, 8452.500000, 8102.500000, 8194.500000
1743, 113285560.000000, 2622.500000, 8109.500000, 8110.500000, 8105.000000
1744, 113285720.000000, 2428.625000, 8107.000000, 8113.500000, 8096.000000
1745, 113285880.000000, 2200.500000, 8174.500000, 8189.000000, 8177.500000
1746, 113286040.000000, 1984.375000, 8191.500000, 8194.000000, 8186.000000
1747, 113286200.000000, 1815.250000, 8201.000000, 8196.500000, 8192.500000
1748, 113286360.000000, 1712.125000, 8204.000000, 8199.000000, 8196.000000
1749, 113286520.000000, 1663.500000, 8222.500000, 8197.500000, 8202.000000
1750, 113286680.000000, 1656.125000, 8248.000000, 8193.000000, 8205.500000
1751, 113286840.000000, 1666.375000, 8273.500000, 8194.500000, 8216.000000
1752, 113287000.000000, 1679.125000, 8281.000000, 8200.000000, 8227.000000
1753, 113287160.000000, 1683.000000, 8263.000000, 8209.500000, 8231.000000
1754, 113287320.000000, 1672.750000, 8211.000000, 8222.500000, 8227.500000
1755, 113287480.000000, 1646.750000, 8173.000000, 8214.500000, 8206.000000
1756, 113287640.000000, 1599.750000, 8156.500000, 8205.500000, 8192.000000
1757, 113287800.000000, 1542.000000, 8154.500000, 8200.500000, 8186.000000
1758, 113287960.000000, 1481.375000, 8156.500000, 8200.500000, 8188.000000
1759, 113288120.000000, 1423.000000, 8162.000000, 8199.500000, 8188.500000
1760, 113288280.000000, 1366.750000, 8162.000000, 8200.000000, 8187.500000
1761, 113288440.000000, 1314.500000, 8167.000000, 8202.000000, 8193.000000
1762, 113288600.000000, 1268.625000, 8172.000000, 8199.500000, 8194.500000
1763, 113288760.000000, 1227.000000, 8173.500000, 8199.000000, 8193.000000
1764, 113288920.000000, 1189.000000, 8167.000000, 8197.500000, 8188.000000
1765, 113289080.000000, 1144.375000, 8163.000000, 8195.000000, 8181.000000
1766, 113289240.000000, 1101.125000, 8165.000000, 8193.000000, 8182.000000
1767, 113289400.000000, 1093.250000, 8167.000000, 8195.000000, 8184.500000
1768, 113289560.000000, 1199.125000, 8179.500000, 8209.500000, 8216.000000
1769, 113289720.000000, 1446.875000, 8184.500000, 8202.500000, 8206.500000
1770, 113289880.000000, 1811.125000, 8187.500000, 8195.500000, 8196.500000
1771, 113290040.000000, 2184.250000, 8168.500000, 8184.000000, 8169.500000
1772, 113290200.000000, 2488.625000, 8166.000000, 8184.000000, 8168.000000
1773, 113290360.000000, 2696.625000, 8167.500000, 8185.000000, 8171.000000
1774, 113290520.000000, 2799.000000, 8170.500000, 8185.500000, 8173.500000
1775, 113290680.000000, 2798.625000, 8155.500000, 8236.000000, 8226.000000
1776, 113290840.000000, 2700.625000, 8451.000000, 8105.000000, 8199.500000
1777, 113291000.000000, 2532.625000, 8106.500000, 8115.000000, 8111.000000
1778, 113291160.000000, 2311.125000, 8107.000000, 8117.500000, 8102.000000
1779, 113291320.000000, 2083.125000, 8172.500000, 8193.000000, 8182.500000
1780, 113291480.000000, 1886.250000, 8188.000000, 8197.000000, 8187.500000
1781, 113291640.000000, 1747.875000, 8197.500000, 8197.500000, 8191.500000
1782, 113291800.000000, 1668.250000, 8204.000000, 8200.000000, 8199.000000
1783, 113291960.000000, 1640.750000, 8224.000000, 8199.500000, 8206.000000
1784, 113292120.000000, 1646.250000, 8247.500000, 8195.500000, 8209.500000
1785, 113292280.000000, 1665.875000, 8276.000000, 8193.000000, 8216.000000
1786, 113292440.000000, 1679.125000, 8288.000000, 8197.500000, 8227.500000
1787, 113292600.000000, 1676.625000, 8268.000000, 8208.500000, 8233.000000
1788, 113292760.000000, 1650.375000, 8214.000000, 8223.000000, 8232.000000
1789, 113292920.000000, 1605.500000, 8174.500000, 8216.000000, 8210.000000
1790, 113293080.000000, 1545.875000, 8160.500000, 8204.500000, 8192.000000
1791, 113293240.000000, 1477.500000, 8163.500000, 8197.500000, 8186.000000
1792, 113293400.000000, 1409.250000, 8162.000000, 8199.500000, 8188.500000
1793, 113293560.000000, 1346.000000, 8166.000000, 8201.000000, 8193.000000
1794, 113293720.000000, 1292.125000, 8168.000000, 8200.500000, 8193.500000
1795, 113293880.000000, 1243.375000, 8168.500000, 8202.500000, 8197.000000
1796, 113294040.000000, 1202.375000, 8174.000000, 8199.000000, 8194.000000
1797, 113294200.000000, 1171.375000, 8180.500000, 8197.500000, 8195.000000
1798, 113294360.000000, 1147.250000, 8175.000000, 8197.000000, 8191.000000
1799, 113294520.000000, 1118.625000, 8168.500000, 8195.000000, 8186.500000
1800, 113294680.000000, 1084.500000, 8169.500000, 8192.000000, 8182.500000
1801, 113294840.000000, 1071.625000, 8173.500000, 8193.000000, 8185.000000
1802, 113295000.000000, 1164.375000, 8185.500000, 8207.500000, 8216.000000
1803, 113295160.000000, 1405.750000, 8194.000000, 8201.500000, 8208.500000
1804, 113295320.000000, 1772.625000, 8196.000000, 8194.500000, 8199.000000
1805, 113295480.000000, 2161.125000, 8174.500000, 8182.000000, 8169.500000
1806, 113295640.000000, 2486.500000, 8170.000000, 8182.500000, 8167.500000
1807, 113295800.000000, 2711.500000, 8161.500000, 8186.500000, 8169.500000
1808, 113295960.000000, 2823.125000, 8162.500000, 8189.000000, 8175.500000
1809, 113296120.000000, 2828.625000, 8158.000000, 8239.500000, 8229.500000
1810, 113296280.000000, 2734.750000, 8481.500000, 8091.500000, 8196.500000
1811, 113296440.000000, 2564.875000, 8093.500000, 8118.500000, 8109.000000
1812, 113296600.000000, 2340.750000, 8105.000000, 8125.000000, 8106.500000
1813, 113296760.000000, 2106.500000, 8169.500000, 8196.500000, 8185.500000
1814, 113296920.000000, 1900.750000, 8188.500000, 8198.000000, 8189.000000
1815, 113297080.000000, 1752.375000, 8195.000000, 8198.000000, 8191.000000
1816, 113297240.000000, 1668.125000, 8199.000000, 8201.500000, 8197.500000
1817, 113297400.000000, 1634.875000, 8214.500000, 8203.000000, 8205.000000
1818, 113297560.000000, 1635.875000, 8241.500000, 8200.500000, 8213.500000
1819, 113297720.000000, 1649.375000, 8270.000000, 8196.500000, 8218.500000
1820, 113297880.000000, 1655.375000, 8281.500000, 8200.000000, 8226.500000
1821, 113298040.000000, 1649.625000, 8261.500000, 8207.500000, 8227.500000
1822, 113298200.000000, 1633.250000, 8215.000000, 8221.500000, 8229.000000
1823, 113298360.000000, 1603.625000, 8174.500000, 8216.500000, 8209.500000
1824, 113298520.000000, 1560.875000, 8156.000000, 8206.500000, 8192.000000
1825, 113298680.000000, 1511.625000, 8154.500000, 8199.500000, 8184.000000
1826, 113298840.000000, 1457.750000, 8157.500000, 8199.500000, 8186.000000
1827, 113299000.000000, 1406.375000, 8160.000000, 8201.000000, 8189.000000
1828, 113299160.000000, 1360.625000, 8163.000000, 8204.000000, 8194.000000
1829, 113299320.000000, 1321.750000, 8163.000000, 8203.000000, 8193.000000
1830, 113299480.000000, 1290.875000, 8171.000000, 8198.000000, 8189.500000
1831, 113299640.000000, 1266.125000, 8173.500000, 8195.000000, 8187.000000
1832, 113299800.000000, 1239.500000, 8172.500000, 8197.000000, 8190.500000
1833, 113299960.000000, 1205.875000, 8163.000000, 8197.500000, 8187.500000
1834, 113300120.000000, 1163.000000, 8162.500000, 8196.000000, 8184.500000
1835, 113300280.000000, 1145.625000, 8168.500000, 8201.500000, 8199.000000
1836, 113300440.000000, 1220.500000, 8179.500000, 8206.000000, 8212.500000
1837, 113300600.000000, 1446.875000, 8193.000000, 8204.500000, 8210.500000
1838, 113300760.000000, 1795.375000, 8180.000000, 8189.000000, 8183.500000
1839, 113300920.000000, 2177.250000, 8165.500000, 8182.500000, 8167.000000
1840, 113301080.000000, 2503.000000, 8168.500000, 8182.000000, 8167.500000
1841, 113301240.000000, 2738.250000, 8168.500000, 8182.500000, 8170.000000
1842, 113301400.000000, 2857.125000, 8169.000000, 8188.500000, 8178.500000
1843, 113301560.000000, 2873.250000, 8211.000000, 8237.500000, 8243.500000
1844, 113301720.000000, 2792.250000, 8503.000000, 8058.500000, 8187.000000
1845, 113301880.000000, 2632.250000, 8057.000000, 8083.500000, 8054.500000
1846, 113302040.000000, 2421.500000, 8146.000000, 8156.000000, 8147.000000
1847, 113302200.000000, 2189.500000, 8175.500000, 8197.000000, 8185.500000
1848, 113302360.000000, 1989.500000, 8190.500000, 8199.000000, 8192.500000
1849, 113302520.000000, 1846.000000, 8203.000000, 8196.500000, 8193.500000
1850, 113302680.000000, 1770.875000, 8214.000000, 8196.500000, 8196.500000
1851, 113302840.000000, 1744.500000, 8234.500000, 8196.500000, 8207.500000
1852, 113303000.000000, 1751.625000, 8257.000000, 8196.500000, 8215.000000
1853, 113303160.000000, 1769.125000, 8277.000000, 8198.000000, 8223.500000
1854, 113303320.000000, 1777.625000, 8282.500000, 8199.500000, 8228.000000
1855, 113303480.000000, 1766.000000, 8249.000000, 8212.000000, 8229.000000
1856, 113303640.000000, 1730.875000, 8195.000000, 8220.000000, 8221.000000
1857, 113303800.000000, 1680.625000, 8160.000000, 8214.000000, 8203.000000
1858, 113303960.000000, 1621.375000, 8150.500000, 8206.500000, 8192.000000
1859, 113304120.000000, 1563.000000, 8155.000000, 8200.500000, 8185.500000
1860, 113304280.000000, 1504.750000, 8160.000000, 8196.500000, 8183.500000
1861, 113304440.000000, 1447.875000, 8163.000000, 8199.500000, 8189.500000
1862, 113304600.000000, 1395.500000, 8165.000000, 8202.500000, 8194.500000
1863, 113304760.000000, 1348.250000, 8166.500000, 8203.500000, 8197.000000
1864, 113304920.000000, 1311.125000, 8172.000000, 8198.500000, 8192.500000
1865, 113305080.000000, 1281.375000, 8175.000000, 8195.500000, 8191.500000
1866, 113305240.000000, 1250.500000, 8168.500000, 8194.500000, 8187.000000
1867, 113305400.000000, 1216.875000, 8166.000000, 8196.000000, 8188.000000
1868, 113305560.000000, 1178.875000, 8166.500000, 8196.000000, 8188.500000
1869, 113305720.000000, 1180.625000, 8176.500000, 8204.000000, 8208.500000
1870, 113305880.000000, 1285.250000, 8183.000000, 8203.000000, 8207.000000
1871, 113306040.000000, 1541.875000, 8195.000000, 8202.500000, 8209.500000
1872, 113306200.000000, 1908.875000, 8170.500000, 8189.000000, 8180.000000
1873, 113306360.000000, 2290.625000, 8167.000000, 8184.500000, 8171.500000
1874, 113306520.000000, 2603.750000, 8172.500000, 8184.000000, 8173.500000
1875, 113306680.000000, 2816.625000, 8176.500000, 8182.000000, 8173.000000
1876, 113306840.000000, 2914.250000, 8174.000000, 8196.000000, 8190.500000
1877, 113307000.000000, 2898.625000, 8292.000000, 8210.000000, 8243.000000
1878, 113307160.000000, 2784.875000, 8339.000000, 8098.500000, 8173.500000
1879, 113307320.000000, 2593.500000, 8062.000000, 8081.500000, 8048.500000
1880, 113307480.000000, 2358.250000, 8162.000000, 8173.000000, 8166.000000
1881, 113307640.000000, 2119.500000, 8186.000000, 8197.500000, 8190.500000
1882, 113307800.000000, 1924.875000, 8197.000000, 8198.500000, 8196.000000
1883, 113307960.000000, 1786.750000, 8202.500000, 8199.500000, 8199.500000
1884, 113308120.000000, 1710.875000, 8215.000000, 8197.500000, 8201.500000
1885, 113308280.000000, 1686.375000, 8237.000000, 8195.500000, 8205.500000
1886, 113308440.000000, 1694.250000, 8267.500000, 8194.000000, 8216.000000
1887, 113308600.000000, 1712.000000, 8286.000000, 8196.500000, 8226.000000
1888, 113308760.000000, 1723.375000, 8279.500000, 8204.500000, 8233.500000
1889, 113308920.000000, 1716.750000, 8235.000000, 8218.000000, 8231.000000
1890, 113309080.000000, 1685.000000, 8186.500000, 8219.000000, 8216.000000
1891, 113309240.000000, 1636.750000, 8160.000000, 8208.500000, 8195.500000
1892, 113309400.000000, 1578.625000, 8152.000000, 8202.500000, 8187.000000
1893, 113309560.000000, 1514.250000, 8152.500000, 8202.000000, 8187.000000
1894, 113309720.000000, 1450.000000, 8155.500000, 8201.500000, 8187.500000
1895, 113309880.000000, 1391.875000, 8162.000000, 8201.000000, 8190.000000
1896, 113310040.000000, 1339.875000, 8162.000000, 8203.500000, 8193.000000
1897, 113310200.000000, 1294.125000, 8168.000000, 8203.500000, 8197.000000
1898, 113310360.000000, 1255.750000, 8172.000000, 8199.500000, 8192.500000
1899, 113310520.000000, 1221.625000, 8173.000000, 8197.500000, 8190.500000
1900, 113310680.000000, 1188.375000, 8167.000000, 8196.000000, 8185.000000
1901, 113310840.000000, 1150.000000, 8161.500000, 8196.500000, 8184.500000
1902, 113311000.000000, 1115.750000, 8166.000000, 8195.500000, 8184.500000
1903, 113311160.000000, 1128.125000, 8178.000000, 8204.000000, 8206.000000
1904, 113311320.000000, 1263.375000, 8183.000000, 8204.500000, 8208.500000
1905, 113311480.000000, 1548.125000, 8197.000000, 8200.000000, 8204.000000
1906, 113311640.000000, 1944.875000, 8179.000000, 8185.500000, 8176.000000
1907, 113311800.000000, 2335.625000, 8174.000000, 8182.500000, 8169.500000
1908, 113311960.000000, 2644.500000, 8175.000000, 8182.500000, 8168.500000
1909, 113312120.000000, 2837.500000, 8175.000000, 8182.500000, 8168.500000
1910, 113312280.000000, 2909.750000, 8172.500000, 8190.000000, 8177.500000
1911, 113312440.000000, 2872.500000, 8286.500000, 8214.500000, 8241.500000
1912, 113312600.000000, 2739.375000, 8353.500000, 8105.500000, 8177.500000
1913, 113312760.000000, 2540.875000, 8063.500000, 8085.500000, 8053.000000
1914, 113312920.000000, 2298.500000, 8163.500000, 8164.000000, 8154.500000
1915, 113313080.000000, 2059.375000, 8189.500000, 8193.500000, 8184.000000
1916, 113313240.000000, 1862.625000, 8198.000000, 8197.500000, 8189.000000
1917, 113313400.000000, 1729.500000, 8209.000000, 8198.000000, 8195.000000
1918, 113313560.000000, 1659.375000, 8223.000000, 8198.000000, 8201.500000
1919, 113313720.000000, 1639.250000, 8243.000000, 8195.000000, 8205.000000
1920, 113313880.000000, 1647.875000, 8266.000000, 8191.000000, 8207.500000
1921, 113314040.000000, 1660.500000, 8284.500000, 8194.500000, 8219.000000
1922, 113314200.000000, 1659.875000, 8279.500000, 8203.000000, 8226.500000
1923, 113314360.000000, 1639.500000, 8245.000000, 8219.500000, 8233.000000
1924, 113314520.000000, 1599.875000, 8198.500000, 8222.000000, 8221.500000
1925, 113314680.000000, 1545.875000, 8171.000000, 8210.500000, 8200.000000
1926, 113314840.000000, 1485.250000, 8164.000000, 8201.000000, 8186.000000
1927, 113315000.000000, 1420.250000, 8164.500000, 8200.000000, 8187.000000
1928, 113315160.000000, 1355.250000, 8163.500000, 8201.500000, 8188.000000
1929, 113315320.000000, 1290.250000, 8170.000000, 8199.000000, 8186.000000
1930, 113315480.000000, 1228.375000, 8176.000000, 8196.000000, 8186.500000
1931, 113315640.000000, 1174.500000, 8182.500000, 8194.000000, 8188.000000
1932, 113315800.000000, 1133.125000, 8184.000000, 8194.000000, 8189.000000
1933, 113315960.000000, 1104.375000, 8181.000000, 8192.500000, 8185.500000
1934, 113316120.000000, 1081.625000, 8179.000000, 8190.500000, 8181.500000
1935, 113316280.000000, 1056.375000, 8178.500000, 8193.000000, 8186.500000
1936, 113316440.000000, 1026.500000, 8185.000000, 8203.000000, 8207.500000
1937, 113316600.000000, 1013.625000, 8195.000000, 8199.500000, 8203.500000
1938, 113316760.000000, 1103.625000, 8187.500000, 8186.500000, 8182.500000
1939, 113316920.000000, 1345.500000, 8172.000000, 8177.500000, 8162.500000
1940, 113317080.000000, 1727.000000, 8173.500000, 8175.500000, 8159.500000
1941, 113317240.000000, 2145.375000, 8173.500000, 8176.500000, 8161.500000
1942, 113317400.000000, 2501.875000, 8178.000000, 8180.000000, 8168.000000
1943, 113317560.000000, 2748.500000, 8188.500000, 8242.500000, 8244.000000
1944, 113317720.000000, 2868.875000, 8485.500000, 8069.500000, 8177.000000
1945, 113317880.000000, 2875.625000, 8062.000000, 8119.500000, 8097.500000
1946, 113318040.000000, 2771.875000, 8128.500000, 8122.500000, 8108.500000
1947, 113318200.000000, 2588.625000, 8186.000000, 8186.500000, 8176.000000
1948, 113318360.000000, 2346.750000, 8195.000000, 8192.000000, 8183.000000
1949, 113318520.000000, 2094.375000, 8204.000000, 8192.000000, 8187.000000
1950, 113318680.000000, 1874.250000, 8215.500000, 8193.000000, 8192.000000
1951, 113318840.000000, 1719.500000, 8231.500000, 8191.000000, 8196.000000
1952, 113319000.000000, 1638.250000, 8252.500000, 8191.000000, 8204.000000
1953, 113319160.000000, 1617.125000, 8271.000000, 8192.000000, 8211.500000
1954, 113319320.000000, 1635.875000, 8274.000000, 8199.000000, 8218.500000
1955, 113319480.000000, 1667.500000, 8251.500000, 8212.000000, 8226.000000
1956, 113319640.000000, 1691.250000, 8208.500000, 8222.000000, 8226.000000
1957, 113319800.000000, 1696.125000, 8172.000000, 8214.500000, 8207.500000
1958, 113319960.000000, 1678.875000, 8159.000000, 8203.500000, 8191.000000
1959, 113320120.000000, 1642.125000, 8155.000000, 8198.500000, 8183.500000
1960, 113320280.000000, 1589.750000, 8157.000000, 8197.000000, 8183.000000
1961, 113320440.000000, 1533.875000, 8164.000000, 8197.000000, 8186.000000
1962, 113320600.000000, 1475.000000, 8168.000000, 8198.500000, 8191.500000
1963, 113320760.000000, 1419.500000, 8174.000000, 8198.000000, 8193.000000
1964, 113320920.000000, 1372.625000, 8174.000000, 8196.000000, 8191.000000
1965, 113321080.000000, 1331.875000, 8176.000000, 8191.500000, 8184.500000
1966, 113321240.000000, 1295.750000, 8174.000000, 8191.000000, 8184.000000
1967, 113321400.000000, 1258.000000, 8176.000000, 8203.000000, 8204.000000
1968, 113321560.000000, 1216.625000, 8176.500000, 8208.500000, 8212.000000
1969, 113321720.000000, 1179.500000, 8188.500000, 8202.000000, 8204.500000
1970, 113321880.000000, 1192.250000, 8173.500000, 8186.500000, 8177.500000
1971, 113322040.000000, 1317.500000, 8164.000000, 8179.500000, 8162.500000
1972, 113322200.000000, 1606.375000, 8163.500000, 8180.500000, 8165.000000
1973, 113322360.000000, 1999.500000, 8167.000000, 8182.500000, 8167.500000
1974, 113322520.000000, 2391.875000, 8167.000000, 8185.000000, 8172.000000
1975, 113322680.000000, 2701.250000, 8238.500000, 8231.000000, 8248.000000
1976, 113322840.000000, 2894.500000, 8391.000000, 8067.500000, 8151.000000
1977, 113323000.000000, 2978.875000, 8049.000000, 8072.000000, 8041.000000
1978, 113323160.000000, 2944.250000, 8150.000000, 8157.500000, 8150.500000
1979, 113323320.000000, 2812.500000, 8179.000000, 8193.500000, 8180.500000
1980, 113323480.000000, 2595.875000, 8190.500000, 8196.500000, 8189.000000
1981, 113323640.000000, 2335.375000, 8201.000000, 8196.500000, 8193.500000
1982, 113323800.000000, 2081.875000, 8210.500000, 8197.500000, 8198.500000
1983, 113323960.000000, 1881.000000, 8228.000000, 8198.000000, 8206.000000
1984, 113324120.000000, 1752.875000, 8248.500000, 8195.500000, 8211.000000
1985, 113324280.000000, 1693.750000, 8268.000000, 8197.000000, 8218.500000
1986, 113324440.000000, 1696.375000, 8266.000000, 8206.500000, 8227.000000
1987, 113324600.000000, 1728.125000, 8234.000000, 8222.000000, 8235.000000
1988, 113324760.000000, 1764.500000, 8188.000000, 8223.000000, 8224.000000
1989, 113324920.000000, 1783.500000, 8161.000000, 8210.000000, 8200.500000
1990, 113325080.000000, 1777.000000, 8154.000000, 8200.500000, 8186.500000
1991, 113325240.000000, 1750.500000, 8152.500000, 8197.500000, 8183.500000
1992, 113325400.000000, 1706.500000, 8155.000000, 8199.500000, 8188.000000
1993, 113325560.000000, 1654.625000, 8160.500000, 8200.000000, 8190.500000
1994, 113325720.000000, 1598.750000, 8164.500000, 8199.500000, 8191.500000
1995, 113325880.000000, 1543.750000, 8170.500000, 8197.000000, 8191.000000
1996, 113326040.000000, 1494.500000, 8174.500000, 8195.000000, 8190.500000
1997, 113326200.000000, 1448.125000, 8172.000000, 8195.500000, 8191.500000
1998, 113326360.000000, 1403.625000, 8169.000000, 8194.000000, 8187.000000
1999, 113326520.000000, 1362.125000, 8173.000000, 8208.000000, 8214.000000
2000, 113326680.000000, 1317.250000, 8178.500000, 8205.500000, 8210.500000
2001, 113326840.000000, 1286.750000, 8187.500000, 8199.500000, 8204.500000
2002, 113327000.000000, 1336.125000, 8166.500000, 8183.000000, 8171.000000
2003, 113327160.000000, 1526.000000, 8162.000000, 8180.000000, 8165.000000
2004, 113327320.000000, 1874.750000, 8164.500000, 8180.500000, 8166.500000
2005, 113327480.000000, 2292.875000, 8163.500000, 8179.500000, 8165.000000
2006, 113327640.000000, 2674.500000, 8162.500000, 8199.000000, 8189.500000
2007, 113327800.000000, 2957.625000, 8311.000000, 8196.500000, 8240.000000
2008, 113327960.000000, 3115.500000, 8246.500000, 8085.000000, 8124.000000
2009, 113328120.000000, 3155.250000, 8065.000000, 8076.500000, 8045.000000
2010, 113328280.000000, 3073.500000, 8163.500000, 8178.500000, 8170.500000
2011, 113328440.000000, 2900.375000, 8182.000000, 8196.000000, 8187.000000
2012, 113328600.000000, 2653.875000, 8191.000000, 8199.500000, 8194.000000
2013, 113328760.000000, 2384.500000, 8199.500000, 8200.000000, 8199.000000
2014, 113328920.000000, 2140.125000, 8214.000000, 8198.500000, 8202.500000
2015, 113329080.000000, 1957.875000, 8233.000000, 8196.500000, 8207.000000
2016, 113329240.000000, 1850.500000, 8256.000000, 8196.500000, 8215.000000
2017, 113329400.000000, 1805.250000, 8271.000000, 8201.500000, 8227.500000
2018, 113329560.000000, 1810.625000, 8263.500000, 8210.500000, 8235.000000
2019, 113329720.000000, 1831.000000, 8222.500000, 8222.000000, 8233.500000
2020, 113329880.000000, 1847.125000, 8177.500000, 8217.500000, 8213.500000
2021, 113330040.000000, 1845.500000, 8157.000000, 8206.500000, 8195.500000
2022, 113330200.000000, 1821.750000, 8153.000000, 8200.000000, 8187.500000
2023, 113330360.000000, 1778.500000, 8152.500000, 8198.500000, 8184.500000
2024, 113330520.000000, 1719.625000, 8155.000000, 8197.500000, 8184.500000
2025, 113330680.000000, 1654.250000, 8162.000000, 8197.000000, 8186.500000
2026, 113330840.000000, 1589.250000, 8166.000000, 8198.000000, 8190.000000
2027, 113331000.000000, 1526.000000, 8170.000000, 8198.500000, 8193.500000
2028, 113331160.000000, 1474.250000, 8172.500000, 8197.000000, 8191.500000
2029, 113331320.000000, 1432.000000, 8169.500000, 8194.500000, 8187.000000
2030, 113331480.000000, 1392.250000, 8168.500000, 8192.500000, 8185.000000
2031, 113331640.000000, 1347.250000, 8169.500000, 8192.500000, 8185.000000
2032, 113331800.000000, 1301.000000, 8176.000000, 8208.000000, 8215.500000
2033, 113331960.000000, 1280.000000, 8184.000000, 8204.000000, 8211.500000
2034, 113332120.000000, 1369.375000, 8186.500000, 8197.500000, 8202.500000
2035, 113332280.000000, 1612.500000, 8165.500000, 8182.500000, 8170.000000
2036, 113332440.000000, 1995.000000, 8163.000000, 8179.500000, 8163.500000
2037, 113332600.000000, 2410.625000, 8165.500000, 8181.000000, 8168.500000
2038, 113332760.000000, 2766.875000, 8168.500000, 8182.500000, 8172.000000
2039, 113332920.000000, 3008.875000, 8157.000000, 8213.000000, 8203.000000
2040, 113333080.000000, 3116.250000, 8351.000000, 8164.000000, 8220.000000
2041, 113333240.000000, 3103.750000, 8190.000000, 8093.500000, 8114.000000
2042, 113333400.000000, 2980.250000, 8078.000000, 8089.000000, 8061.500000
2043, 113333560.000000, 2778.500000, 8170.000000, 8187.000000, 8180.500000
2044, 113333720.000000, 2528.625000, 8183.500000, 8197.500000, 8189.000000
2045, 113333880.000000, 2271.500000, 8194.000000, 8199.000000, 8193.000000
2046, 113334040.000000, 2050.875000, 8205.000000, 8197.500000, 8197.000000
2047, 113334200.000000, 1891.750000, 8218.500000, 8198.500000, 8203.500000
2048, 113334360.000000, 1800.000000, 8239.000000, 8200.000000, 8214.500000
2049, 113334520.000000, 1759.250000, 8262.500000, 8198.500000, 8220.500000
2050, 113334680.000000, 1755.125000, 8275.500000, 8199.000000, 8225.500000
2051, 113334840.000000, 1765.500000, 8265.500000, 8207.000000, 8231.000000
2052, 113335000.000000, 1771.625000, 8222.500000, 8223.000000, 8233.500000
2053, 113335160.000000, 1757.250000, 8178.500000, 8220.000000, 8217.000000
2054, 113335320.000000, 1720.875000, 8156.000000, 8208.000000, 8195.500000
2055, 113335480.000000, 1669.750000, 8153.000000, 8200.000000, 8187.000000
2056, 113335640.000000, 1606.875000, 8154.000000, 8199.500000, 8187.500000
2057, 113335800.000000, 1535.625000, 8158.000000, 8199.500000, 8188.500000
2058, 113335960.000000, 1464.500000, 8161.500000, 8202.000000, 8192.000000
2059, 113336120.000000, 1397.250000, 8169.000000, 8200.500000, 8194.500000
2060, 113336280.000000, 1339.125000, 8171.000000, 8198.500000, 8193.500000
2061, 113336440.000000, 1292.125000, 8171.500000, 8198.000000, 8193.500000
2062, 113336600.000000, 1247.625000, 8171.000000, 8198.500000, 8193.500000
2063, 113336760.000000, 1207.000000, 8170.000000, 8196.000000, 8190.500000
2064, 113336920.000000, 1166.625000, 8169.000000, 8192.500000, 8185.500000
2065, 113337080.000000, 1125.750000, 8168.000000, 8190.500000, 8182.000000
2066, 113337240.000000, 1129.375000, 8173.000000, 8194.000000, 8190.000000
2067, 113337400.000000, 1241.125000, 8177.000000, 8207.500000, 8216.500000
2068, 113337560.000000, 1519.625000, 8187.000000, 8203.000000, 8208.500000
2069, 113337720.000000, 1917.875000, 8183.000000, 8193.000000, 8193.000000
2070, 113337880.000000, 2332.000000, 8167.000000, 8182.500000, 8169.500000
2071, 113338040.000000, 2673.500000, 8172.000000, 8181.500000, 8170.500000
2072, 113338200.000000, 2893.750000, 8174.000000, 8181.500000, 8172.500000
2073, 113338360.000000, 2989.375000, 8171.000000, 8186.000000, 8177.000000
2074, 113338520.000000, 2957.250000, 8160.500000, 8237.500000, 8233.500000
2075, 113338680.000000, 2828.250000, 8446.000000, 8104.500000, 8200.500000
2076, 113338840.000000, 2620.375000, 8099.000000, 8109.500000, 8104.500000
2077, 113339000.000000, 2368.125000, 8109.500000, 8117.500000, 8105.500000
2078, 113339160.000000, 2112.375000, 8176.500000, 8196.000000, 8191.000000
2079, 113339320.000000, 1896.875000, 8189.000000, 8201.500000, 8197.000000
2080, 113339480.000000, 1748.500000, 8199.000000, 8202.000000, 8201.500000
2081, 113339640.000000, 1663.250000, 8210.500000, 8202.000000, 8205.500000
2082, 113339800.000000, 1631.125000, 8225.000000, 8201.500000, 8210.500000
2083, 113339960.000000, 1629.625000, 8246.500000, 8202.000000, 8220.500000
2084, 113340120.000000, 1639.500000, 8268.000000, 8202.500000, 8228.000000
2085, 113340280.000000, 1644.000000, 8279.500000, 8205.000000, 8236.500000
2086, 113340440.000000, 1633.625000, 8266.500000, 8214.500000, 8240.500000
2087, 113340600.000000, 1600.000000, 8221.500000, 8228.500000, 8240.500000
2088, 113340760.000000, 1549.375000, 8181.500000, 8223.500000, 8225.500000
2089, 113340920.000000, 1488.250000, 8163.000000, 8210.500000, 8204.500000
2090, 113341080.000000, 1421.250000, 8159.000000, 8204.000000, 8195.000000
2091, 113341240.000000, 1354.375000, 8161.000000, 8205.000000, 8198.000000
2092, 113341400.000000, 1292.000000, 8164.000000, 8206.500000, 8202.000000
2093, 113341560.000000, 1234.750000, 8171.500000, 8208.500000, 8208.000000
2094, 113341720.000000, 1188.000000, 8176.500000, 8207.000000, 8209.500000
2095, 113341880.000000, 1150.750000, 8180.500000, 8206.000000, 8208.500000
2096, 113342040.000000, 1121.500000, 8179.000000, 8205.000000, 8209.000000
2097, 113342200.000000, 1095.125000, 8178.500000, 8203.500000, 8206.500000
2098, 113342360.000000, 1070.250000, 8180.500000, 8203.500000, 8207.000000
2099, 113342520.000000, 1045.250000, 8177.500000, 8200.500000, 8202.000000
2100, 113342680.000000, 1024.500000, 8176.500000, 8197.500000, 8199.000000
2101, 113342840.000000, 1048.375000, 8178.000000, 8196.500000, 8198.000000
2102, 113343000.000000, 1188.625000, 8185.500000, 8212.000000, 8228.500000
2103, 113343160.000000, 1490.500000, 8194.500000, 8209.000000, 8225.000000
2104, 113343320.000000, 1902.875000, 8199.000000, 8203.000000, 8218.500000
2105, 113343480.000000, 2320.125000, 8179.500000, 8190.500000, 8188.500000
2106, 113343640.000000, 2645.125000, 8181.000000, 8187.000000, 8185.000000
2107, 113343800.000000, 2849.500000, 8179.500000, 8188.000000, 8186.000000
2108, 113343960.000000, 2919.000000, 8180.500000, 8188.500000, 8187.000000
2109, 113344120.000000, 2864.750000, 8176.500000, 8214.500000, 8216.500000
2110, 113344280.000000, 2718.500000, 8353.500000, 8182.000000, 8244.500000
2111, 113344440.000000, 2504.500000, 8215.500000, 8124.500000, 8162.000000
2112, 113344600.000000, 2251.000000, 8085.000000, 8092.000000, 8071.000000
2113, 113344760.000000, 2000.125000, 8177.000000, 8182.500000, 8184.500000
2114, 113344920.000000, 1790.375000, 8197.000000, 8198.500000, 8200.500000
2115, 113345080.000000, 1644.000000, 8203.500000, 8199.500000, 8200.500000
2116, 113345240.000000, 1562.500000, 8215.500000, 8201.000000, 8208.500000
2117, 113345400.000000, 1535.500000, 8226.000000, 8200.000000, 8211.500000
2118, 113345560.000000, 1541.250000, 8242.000000, 8200.500000, 8217.000000
2119, 113345720.000000, 1556.250000, 8264.000000, 8198.500000, 8222.500000
2120, 113345880.000000, 1561.250000, 8276.500000, 8202.000000, 8229.500000
2121, 113346040.000000, 1548.000000, 8273.000000, 8209.500000, 8239.500000
2122, 113346200.000000, 1516.000000, 8237.000000, 8225.000000, 8244.000000
2123, 113346360.000000, 1470.500000, 8191.500000, 8225.500000, 8230.000000
2124, 113346520.000000, 1414.375000, 8166.500000, 8212.500000, 8208.500000
2125, 113346680.000000, 1355.000000, 8159.000000, 8203.500000, 8196.500000
2126, 113346840.000000, 1300.125000, 8161.500000, 8202.500000, 8196.500000
2127, 113347000.000000, 1250.375000, 8164.000000, 8202.500000, 8199.500000
2128, 113347160.000000, 1206.000000, 8171.000000, 8203.000000, 8203.000000
2129, 113347320.000000, 1169.625000, 8173.000000, 8201.500000, 8203.500000
2130, 113347480.000000, 1147.750000, 8180.500000, 8197.000000, 8198.500000
2131, 113347640.000000, 1138.250000, 8178.500000, 8196.000000, 8196.000000
2132, 113347800.000000, 1135.250000, 8177.500000, 8194.500000, 8192.000000
2133, 113347960.000000, 1127.500000, 8174.500000, 8191.500000, 8187.000000
2134, 113348120.000000, 1109.875000, 8171.500000, 8188.000000, 8181.500000
2135, 113348280.000000, 1079.625000, 8171.500000, 8196.000000, 8195.500000
2136, 113348440.000000, 1057.625000, 8176.000000, 8200.000000, 8204.000000
2137, 113348600.000000, 1097.000000, 8188.000000, 8197.500000, 8201.500000
2138, 113348760.000000, 1282.750000, 8176.000000, 8182.500000, 8174.000000
2139, 113348920.000000, 1686.875000, 8164.000000, 8174.500000, 8157.500000
2140, 113349080.000000, 2149.875000, 8166.000000, 8173.500000, 8156.500000
2141, 113349240.000000, 2463.875000, 8166.000000, 8173.500000, 8156.500000
2142, 113349400.000000, 2665.000000, 8170.500000, 8178.000000, 8164.000000
2143, 113349560.000000, 2762.000000, 8213.500000, 8233.500000, 8241.500000
2144, 113349720.000000, 2716.625000, 8438.500000, 8050.000000, 8147.500000
2145, 113349880.000000, 2555.375000, 8045.500000, 8070.000000, 8037.500000
2146, 113350040.000000, 2304.750000, 8142.000000, 8146.000000, 8134.000000
2147, 113350200.000000, 2068.750000, 8176.500000, 8188.000000, 8173.000000
2148, 113350360.000000, 1855.500000, 8187.000000, 8191.500000, 8179.500000
2149, 113350520.000000, 1698.500000, 8196.000000, 8191.500000, 8181.500000
2150, 113350680.000000, 1613.875000, 8205.000000, 8190.500000, 8184.500000
2151, 113350840.000000, 1590.250000, 8219.500000, 8191.000000, 8189.500000
2152, 113351000.000000, 1607.875000, 8240.500000, 8191.500000, 8198.500000
2153, 113351160.000000, 1643.125000, 8261.000000, 8196.500000, 8211.500000
2154, 113351320.000000, 1674.375000, 8260.500000, 8201.000000, 8215.500000
2155, 113351480.000000, 1686.875000, 8232.000000, 8212.500000, 8217.500000
2156, 113351640.000000, 1671.750000, 8188.000000, 8217.000000, 8208.500000
2157, 113351800.000000, 1636.875000, 8155.000000, 8205.000000, 8184.000000
2158, 113351960.000000, 1594.500000, 8146.500000, 8193.500000, 8167.500000
2159, 113352120.000000, 1541.750000, 8140.500000, 8188.500000, 8158.500000
2160, 113352280.000000, 1483.000000, 8142.500000, 8188.500000, 8158.000000
2161, 113352440.000000, 1423.000000, 8147.500000, 8188.000000, 8159.500000
2162, 113352600.000000, 1368.125000, 8152.000000, 8190.500000, 8163.500000
2163, 113352760.000000, 1317.500000, 8155.500000, 8189.500000, 8162.500000
2164, 113352920.000000, 1268.875000, 8152.500000, 8185.500000, 8153.500000
2165, 113353080.000000, 1221.375000, 8151.000000, 8181.500000, 8147.500000
2166, 113353240.000000, 1178.625000, 8150.000000, 8180.000000, 8145.000000
2167, 113353400.000000, 1135.125000, 8148.000000, 8179.000000, 8143.000000
2168, 113353560.000000, 1106.875000, 8148.000000, 8180.500000, 8142.500000
2169, 113353720.000000, 1138.500000, 8154.000000, 8193.000000, 8167.000000
2170, 113353880.000000, 1307.000000, 8158.000000, 8185.000000, 8154.000000
2171, 113354040.000000, 1604.000000, 8160.000000, 8179.000000, 8146.000000
2172, 113354200.000000, 1969.375000, 8139.500000, 8169.000000, 8119.500000
2173, 113354360.000000, 2308.000000, 8137.500000, 8168.000000, 8116.000000
2174, 113354520.000000, 2574.875000, 8138.500000, 8166.500000, 8114.000000
2175, 113354680.000000, 2747.875000, 8141.000000, 8166.000000, 8113.000000
2176, 113354840.000000, 2816.500000, 8135.500000, 8223.000000, 8178.500000
2177, 113355000.000000, 2786.250000, 8417.500000, 8083.500000, 8137.500000
2178, 113355160.000000, 2658.250000, 8047.500000, 8094.000000, 8039.000000
2179, 113355320.000000, 2462.000000, 8079.000000, 8104.000000, 8046.000000
2180, 113355480.000000, 2227.750000, 8142.500000, 8177.500000, 8124.500000
2181, 113355640.000000, 2005.500000, 8154.000000, 8182.500000, 8130.500000
2182, 113355800.000000, 1829.000000, 8162.500000, 8185.000000, 8135.500000
2183, 113355960.000000, 1716.500000, 8174.000000, 8186.000000, 8143.000000
2184, 113356120.000000, 1669.000000, 8187.000000, 8186.500000, 8146.500000
2185, 113356280.000000, 1662.750000, 8206.000000, 8185.500000, 8154.000000
2186, 113356440.000000, 1678.375000, 8229.500000, 8186.500000, 8163.000000
2187, 113356600.000000, 1699.000000, 8235.500000, 8193.500000, 8174.000000
2188, 113356760.000000, 1714.125000, 8223.000000, 8204.500000, 8181.500000
2189, 113356920.000000, 1713.250000, 8181.000000, 8214.500000, 8181.500000
2190, 113357080.000000, 1697.875000, 8143.500000, 8205.500000, 8160.500000
2191, 113357240.000000, 1665.750000, 8126.500000, 8194.500000, 8142.000000
2192, 113357400.000000, 1624.875000, 8124.000000, 8190.500000, 8138.500000
2193, 113357560.000000, 1575.625000, 8126.000000, 8192.500000, 8143.500000
2194, 113357720.000000, 1519.375000, 8131.000000, 8191.000000, 8143.500000
2195, 113357880.000000, 1466.500000, 8140.000000, 8191.500000, 8148.500000
2196, 113358040.000000, 1426.875000, 8144.500000, 8191.000000, 8152.500000
2197, 113358200.000000, 1403.000000, 8148.000000, 8191.000000, 8155.000000
2198, 113358360.000000, 1381.250000, 8148.000000, 8190.000000, 8155.000000
2199, 113358520.000000, 1350.750000, 8147.000000, 8188.500000, 8152.000000
2200, 113358680.000000, 1305.750000, 8144.500000, 8185.500000, 8149.000000
2201, 113358840.000000, 1255.250000, 8148.500000, 8188.000000, 8155.500000
2202, 113359000.000000, 1250.625000, 8153.500000, 8204.000000, 8185.500000
2203, 113359160.000000, 1356.500000, 8166.000000, 8196.500000, 8176.500000
2204, 113359320.000000, 1621.625000, 8160.000000, 8184.500000, 8160.500000
2205, 113359480.000000, 1989.625000, 8143.500000, 8175.500000, 8138.500000
2206, 113359640.000000, 2359.875000, 8147.500000, 8175.000000, 8141.500000
2207, 113359800.000000, 2655.750000, 8149.000000, 8176.500000, 8144.500000
2208, 113359960.000000, 2840.750000, 8152.000000, 8180.000000, 8152.500000
2209, 113360120.000000, 2921.875000, 8162.500000, 8241.500000, 8226.000000
2210, 113360280.000000, 2897.125000, 8485.500000, 8054.500000, 8160.000000
2211, 113360440.000000, 2784.375000, 8034.500000, 8090.500000, 8053.000000
2212, 113360600.000000, 2594.625000, 8118.500000, 8138.000000, 8122.000000
2213, 113360760.000000, 2357.375000, 8162.500000, 8193.000000, 8171.500000
2214, 113360920.000000, 2118.625000, 8174.000000, 8194.500000, 8177.500000
2215, 113361080.000000, 1917.250000, 8184.000000, 8194.000000, 8179.000000
2216, 113361240.000000, 1781.000000, 8195.000000, 8194.000000, 8184.500000
2217, 113361400.000000, 1708.375000, 8212.500000, 8194.500000, 8192.500000
2218, 113361560.000000, 1691.375000, 8232.000000, 8196.000000, 8203.500000
2219, 113361720.000000, 1699.375000, 8252.000000, 8196.000000, 8209.000000
2220, 113361880.000000, 1709.375000, 8257.000000, 8199.500000, 8215.500000
2221, 113362040.000000, 1702.625000, 8236.500000, 8209.500000, 8221.500000
2222, 113362200.000000, 1675.375000, 8195.500000, 8217.500000, 8219.500000
2223, 113362360.000000, 1631.375000, 8157.000000, 8210.500000, 8197.500000
2224, 113362520.000000, 1581.125000, 8146.500000, 8199.000000, 8181.000000
2225, 113362680.000000, 1529.500000, 8144.000000, 8194.000000, 8175.000000
2226, 113362840.000000, 1476.125000, 8145.000000, 8194.000000, 8175.000000
2227, 113363000.000000, 1425.500000, 8153.500000, 8195.500000, 8181.000000
2228, 113363160.000000, 1376.875000, 8157.000000, 8198.500000, 8187.500000
2229, 113363320.000000, 1332.125000, 8161.500000, 8197.000000, 8187.000000
2230, 113363480.000000, 1291.000000, 8165.500000, 8195.500000, 8187.000000
2231, 113363640.000000, 1252.875000, 8166.000000, 8194.500000, 8186.500000
2232, 113363800.000000, 1215.750000, 8165.000000, 8194.500000, 8187.000000
2233, 113363960.000000, 1178.000000, 8164.000000, 8194.500000, 8185.500000
2234, 113364120.000000, 1150.500000, 8165.000000, 8194.000000, 8187.000000
2235, 113364280.000000, 1176.750000, 8173.000000, 8208.000000, 8216.000000
2236, 113364440.000000, 1322.375000, 8183.000000, 8200.500000, 8207.500000
2237, 113364600.000000, 1603.750000, 8181.500000, 8194.000000, 8198.000000
2238, 113364760.000000, 1959.000000, 8163.500000, 8184.500000, 8173.000000
2239, 113364920.000000, 2299.875000, 8163.000000, 8180.500000, 8168.500000
2240, 113365080.000000, 2561.875000, 8166.000000, 8179.500000, 8169.500000
2241, 113365240.000000, 2734.250000, 8169.000000, 8181.500000, 8171.500000
2242, 113365400.000000, 2800.625000, 8160.000000, 8239.500000, 8238.500000
2243, 113365560.000000, 2773.375000, 8466.500000, 8093.500000, 8200.500000
2244, 113365720.000000, 2651.625000, 8079.500000, 8107.500000, 8098.000000
2245, 113365880.000000, 2461.500000, 8110.500000, 8119.500000, 8110.500000
2246, 113366040.000000, 2234.125000, 8177.000000, 8189.500000, 8186.000000
2247, 113366200.000000, 2010.625000, 8192.000000, 8196.500000, 8196.500000
2248, 113366360.000000, 1831.875000, 8200.000000, 8197.000000, 8201.000000
2249, 113366520.000000, 1710.000000, 8207.500000, 8196.500000, 8201.000000
2250, 113366680.000000, 1645.250000, 8223.500000, 8195.000000, 8208.000000
2251, 113366840.000000, 1618.625000, 8243.500000, 8194.000000, 8213.000000
2252, 113367000.000000, 1613.625000, 8268.500000, 8195.000000, 8225.000000
2253, 113367160.000000, 1613.875000, 8275.500000, 8200.500000, 8233.000000
2254, 113367320.000000, 1610.500000, 8259.500000, 8207.000000, 8236.000000
2255, 113367480.000000, 1595.000000, 8218.000000, 8215.500000, 8231.000000
2256, 113367640.000000, 1565.750000, 8181.500000, 8210.000000, 8215.000000
2257, 113367800.000000, 1524.375000, 8164.000000, 8202.000000, 8200.500000
2258, 113367960.000000, 1470.375000, 8163.000000, 8198.500000, 8196.500000
2259, 113368120.000000, 1411.000000, 8162.500000, 8196.500000, 8196.000000
2260, 113368280.000000, 1352.750000, 8168.500000, 8195.000000, 8196.000000
2261, 113368440.000000, 1299.500000, 8177.500000, 8196.500000, 8202.000000
2262, 113368600.000000, 1257.750000, 8183.000000, 8197.000000, 8206.000000
2263, 113368760.000000, 1222.750000, 8187.000000, 8194.000000, 8204.000000
2264, 113368920.000000, 1193.500000, 8187.500000, 8191.500000, 8201.500000
2265, 113369080.000000, 1162.625000, 8180.500000, 8189.000000, 8194.500000
2266, 113369240.000000, 1120.875000, 8181.500000, 8188.500000, 8194.500000
2267, 113369400.000000, 1078.750000, 8182.000000, 8191.500000, 8199.000000
2268, 113369560.000000, 1078.875000, 8190.000000, 8205.500000, 8227.000000
2269, 113369720.000000, 1203.000000, 8201.000000, 8196.000000, 8216.000000
2270, 113369880.000000, 1474.750000, 8198.500000, 8185.000000, 8200.000000
2271, 113370040.000000, 1845.750000, 8184.000000, 8174.500000, 8176.500000
2272, 113370200.000000, 2209.500000, 8183.500000, 8175.500000, 8177.000000
2273, 113370360.000000, 2503.000000, 8186.000000, 8177.000000, 8180.000000
2274, 113370520.000000, 2690.250000, 8186.500000, 8177.000000, 8180.500000
2275, 113370680.000000, 2774.000000, 8187.500000, 8236.500000, 8249.500000
2276, 113370840.000000, 2760.000000, 8487.500000, 8080.000000, 8197.000000
2277, 113371000.000000, 2662.250000, 8082.000000, 8123.500000, 8123.500000
2278, 113371160.000000, 2498.375000, 8127.000000, 8116.000000, 8115.500000
2279, 113371320.000000, 2286.125000, 8189.500000, 8183.000000, 8188.000000
2280, 113371480.000000, 2062.375000, 8204.500000, 8188.000000, 8194.500000
2281, 113371640.000000, 1861.250000, 8210.000000, 8189.500000, 8198.500000
2282, 113371800.000000, 1715.750000, 8224.000000, 8190.000000, 8206.000000
2283, 113371960.000000, 1625.500000, 8235.000000, 8190.500000, 8212.000000
2284, 113372120.000000, 1590.125000, 8255.000000, 8190.000000, 8217.000000
2285, 113372280.000000, 1588.750000, 8279.000000, 8187.500000, 8221.500000
2286, 113372440.000000, 1597.750000, 8285.000000, 8194.500000, 8231.500000
2287, 113372600.000000, 1600.000000, 8272.500000, 8205.500000, 8240.500000
2288, 113372760.000000, 1598.625000, 8230.000000, 8220.000000, 8243.500000
2289, 113372920.000000, 1591.500000, 8191.500000, 8213.000000, 8223.000000
2290, 113373080.000000, 1577.750000, 8175.000000, 8200.500000, 8204.500000
2291, 113373240.000000, 1557.250000, 8172.000000, 8196.000000, 8198.000000
2292, 113373400.000000, 1531.250000, 8173.000000, 8196.000000, 8200.000000
2293, 113373560.000000, 1503.500000, 8180.000000, 8197.000000, 8205.000000
2294, 113373720.000000, 1473.125000, 8182.500000, 8196.500000, 8205.000000
2295, 113373880.000000, 1437.875000, 8186.500000, 8194.500000, 8203.000000
2296, 113374040.000000, 1397.375000, 8192.000000, 8193.500000, 8204.500000
2297, 113374200.000000, 1358.875000, 8189.000000, 8194.500000, 8202.500000
2298, 113374360.000000, 1323.750000, 8187.000000, 8193.000000, 8201.000000
2299, 113374520.000000, 1285.125000, 8185.000000, 8195.500000, 8204.000000
2300, 113374680.000000, 1241.625000, 8188.500000, 8208.500000, 8227.000000
2301, 113374840.000000, 1224.750000, 8199.000000, 8200.500000, 8218.000000
2302, 113375000.000000, 1303.750000, 8191.000000, 8192.000000, 8202.500000
2303, 113375160.000000, 1530.375000, 8172.000000, 8182.500000, 8178.500000
2304, 113375320.000000, 1866.375000, 8176.000000, 8180.500000, 8175.500000
2305, 113375480.000000, 2220.875000, 8178.000000, 8179.000000, 8176.000000
2306, 113375640.000000, 2507.750000, 8179.000000, 8181.500000, 8181.500000
2307, 113375800.000000, 2707.000000, 8189.500000, 8247.000000, 8258.500000
2308, 113375960.000000, 2808.500000, 8488.000000, 8065.000000, 8186.000000
2309, 113376120.000000, 2817.125000, 8058.500000, 8095.000000, 8080.500000
2310, 113376280.000000, 2743.625000, 8141.500000, 8135.500000, 8138.500000
2311, 113376440.000000, 2598.125000, 8190.000000, 8190.500000, 8192.000000
2312, 113376600.000000, 2402.500000, 8200.500000, 8197.500000, 8201.000000
2313, 113376760.000000, 2194.250000, 8207.500000, 8200.000000, 8205.500000
2314, 113376920.000000, 2011.625000, 8218.000000, 8196.500000, 8205.000000
2315, 113377080.000000, 1873.000000, 8232.000000, 8196.500000, 8211.000000
2316, 113377240.000000, 1784.250000, 8252.500000, 8197.000000, 8218.000000
2317, 113377400.000000, 1744.125000, 8271.500000, 8199.500000, 8228.500000
2318, 113377560.000000, 1741.875000, 8272.000000, 8206.500000, 8236.500000
2319, 113377720.000000, 1762.750000, 8251.000000, 8218.000000, 8241.500000
2320, 113377880.000000, 1789.375000, 8208.000000, 8223.500000, 8234.000000
2321, 113378040.000000, 1803.750000, 8175.000000, 8213.000000, 8214.500000
2322, 113378200.000000, 1787.875000, 8161.500000, 8204.000000, 8200.000000
2323, 113378360.000000, 1752.125000, 8164.000000, 8199.000000, 8193.500000
2324, 113378520.000000, 1698.000000, 8168.500000, 8198.500000, 8195.000000
2325, 113378680.000000, 1630.625000, 8175.000000, 8197.000000, 8195.000000
2326, 113378840.000000, 1560.875000, 8179.000000, 8199.500000, 8201.500000
2327, 113379000.000000, 1497.000000, 8185.000000, 8200.000000, 8203.500000
2328, 113379160.000000, 1443.875000, 8184.500000, 8199.000000, 8203.000000
2329, 113379320.000000, 1401.875000, 8181.500000, 8196.000000, 8197.000000
2330, 113379480.000000, 1363.750000, 8179.000000, 8194.000000, 8196.500000
2331, 113379640.000000, 1325.125000, 8176.000000, 8194.000000, 8194.000000
2332, 113379800.000000, 1282.000000, 8183.000000, 8209.000000, 8222.000000
2333, 113379960.000000, 1267.625000, 8183.500000, 8211.500000, 8225.500000
2334, 113380120.000000, 1347.125000, 8196.000000, 8206.000000, 8218.000000
2335, 113380280.000000, 1579.000000, 8175.000000, 8186.500000, 8183.500000
2336, 113380440.000000, 1928.375000, 8172.500000, 8184.000000, 8176.500000
2337, 113380600.000000, 2301.000000, 8173.000000, 8186.000000, 8182.500000
2338, 113380760.000000, 2603.250000, 8172.000000, 8189.000000, 8187.000000
2339, 113380920.000000, 2807.875000, 8167.500000, 8212.000000, 8213.500000
2340, 113381080.000000, 2904.375000, 8339.500000, 8190.000000, 8249.000000
2341, 113381240.000000, 2905.500000, 8237.000000, 8095.500000, 8138.500000
2342, 113381400.000000, 2826.625000, 8087.000000, 8092.500000, 8074.500000
2343, 113381560.000000, 2680.125000, 8178.500000, 8192.500000, 8197.500000
2344, 113381720.000000, 2487.125000, 8190.500000, 8204.500000, 8205.500000
2345, 113381880.000000, 2272.625000, 8198.500000, 8203.000000, 8205.500000
2346, 113382040.000000, 2078.375000, 8207.000000, 8203.500000, 8207.500000
2347, 113382200.000000, 1921.000000, 8222.500000, 8203.000000, 8214.500000
2348, 113382360.000000, 1811.250000, 8236.500000, 8204.500000, 8220.500000
2349, 113382520.000000, 1744.625000, 8260.500000, 8202.500000, 8226.000000
2350, 113382680.000000, 1705.500000, 8271.000000, 8207.000000, 8233.000000
2351, 113382840.000000, 1678.250000, 8261.500000, 8211.500000, 8236.000000
2352, 113383000.000000, 1649.125000, 8225.000000, 8222.500000, 8237.500000
2353, 113383160.000000, 1613.000000, 8186.500000, 8220.500000, 8223.500000
2354, 113383320.000000, 1567.875000, 8166.000000, 8210.500000, 8202.500000
2355, 113383480.000000, 1514.750000, 8163.500000, 8203.000000, 8193.500000
2356, 113383640.000000, 1459.750000, 8164.000000, 8201.000000, 8192.000000
2357, 113383800.000000, 1405.625000, 8166.500000, 8202.500000, 8195.000000
2358, 113383960.000000, 1356.875000, 8173.000000, 8205.000000, 8202.000000
2359, 113384120.000000, 1312.125000, 8174.000000, 8203.500000, 8200.500000
2360, 113384280.000000, 1271.000000, 8176.000000, 8201.500000, 8198.500000
2361, 113384440.000000, 1231.000000, 8178.500000, 8198.500000, 8197.500000
2362, 113384600.000000, 1193.375000, 8173.500000, 8198.000000, 8195.000000
2363, 113384760.000000, 1154.000000, 8174.500000, 8197.000000, 8192.500000
2364, 113384920.000000, 1116.125000, 8180.500000, 8210.500000, 8219.000000
2365, 113385080.000000, 1099.125000, 8184.500000, 8208.000000, 8216.000000
2366, 113385240.000000, 1163.125000, 8193.000000, 8201.500000, 8210.000000
2367, 113385400.000000, 1374.875000, 8176.500000, 8186.500000, 8181.500000
2368, 113385560.000000, 1720.125000, 8169.000000, 8185.500000, 8174.500000
2369, 113385720.000000, 2106.000000, 8170.000000, 8186.500000, 8178.000000
2370, 113385880.000000, 2441.250000, 8170.000000, 8185.500000, 8174.500000
2371, 113386040.000000, 2691.500000, 8164.500000, 8214.000000, 8208.000000
2372, 113386200.000000, 2839.875000, 8374.500000, 8168.500000, 8235.000000
2373, 113386360.000000, 2886.500000, 8215.000000, 8120.500000, 8153.000000
2374, 113386520.000000, 2836.625000, 8080.500000, 8100.000000, 8075.000000
2375, 113386680.000000, 2702.875000, 8164.000000, 8186.000000, 8178.500000
2376, 113386840.000000, 2511.500000, 8184.500000, 8198.000000, 8190.000000
2377, 113387000.000000, 2299.625000, 8201.000000, 8198.500000, 8197.500000
2378, 113387160.000000, 2110.500000, 8205.500000, 8198.500000, 8199.500000
2379, 113387320.000000, 1960.625000, 8216.000000, 8199.500000, 8204.500000
2380, 113387480.000000, 1855.625000, 8234.000000, 8196.000000, 8207.000000
2381, 113387640.000000, 1790.625000, 8266.500000, 8194.500000, 8217.500000
2382, 113387800.000000, 1756.375000, 8284.000000, 8196.500000, 8226.500000
2383, 113387960.000000, 1745.375000, 8267.500000, 8204.500000, 8229.500000
2384, 113388120.000000, 1740.250000, 8222.000000, 8220.000000, 8230.000000
2385, 113388280.000000, 1730.750000, 8181.000000, 8218.500000, 8216.500000
2386, 113388440.000000, 1705.125000, 8162.500000, 8207.500000, 8197.000000
2387, 113388600.000000, 1666.250000, 8159.500000, 8203.000000, 8193.500000
2388, 113388760.000000, 1617.125000, 8155.000000, 8204.000000, 8192.500000
2389, 113388920.000000, 1565.500000, 8161.000000, 8203.000000, 8193.500000
2390, 113389080.000000, 1513.875000, 8167.000000, 8203.500000, 8196.500000
2391, 113389240.000000, 1465.375000, 8174.500000, 8203.000000, 8200.500000
2392, 113389400.000000, 1420.625000, 8181.000000, 8200.500000, 8200.500000
2393, 113389560.000000, 1379.000000, 8182.000000, 8199.500000, 8200.000000
2394, 113389720.000000, 1341.750000, 8174.500000, 8198.500000, 8194.000000
2395, 113389880.000000, 1305.000000, 8168.000000, 8196.500000, 8189.500000
2396, 113390040.000000, 1263.375000, 8173.500000, 8205.000000, 8206.000000
2397, 113390200.000000, 1236.750000, 8180.500000, 8210.500000, 8220.000000
2398, 113390360.000000, 1279.375000, 8195.000000, 8206.000000, 8216.000000
2399, 113390520.000000, 1466.125000, 8179.000000, 8190.000000, 8186.500000
2400, 113390680.000000, 1792.250000, 8165.500000, 8181.500000, 8168.000000
2401, 113390840.000000, 2173.875000, 8168.000000, 8182.000000, 8169.000000
2402, 113391000.000000, 2516.375000, 8172.500000, 8183.500000, 8173.000000
2403, 113391160.000000, 2771.250000, 8177.000000, 8187.000000, 8180.500000
2404, 113391320.000000, 2920.875000, 8208.500000, 8239.000000, 8246.000000
2405, 113391480.000000, 2960.000000, 8503.000000, 8051.500000, 8178.000000
2406, 113391640.000000, 2897.750000, 8047.500000, 8082.000000, 8052.000000
2407, 113391800.000000, 2753.375000, 8150.500000, 8159.500000, 8156.000000
2408, 113391960.000000, 2550.000000, 8184.000000, 8197.000000, 8190.000000
2409, 113392120.000000, 2328.125000, 8192.000000, 8197.500000, 8192.500000
2410, 113392280.000000, 2123.250000, 8198.500000, 8197.000000, 8191.500000
2411, 113392440.000000, 1963.000000, 8214.500000, 8196.000000, 8197.000000
2412, 113392600.000000, 1855.000000, 8234.000000, 8196.500000, 8206.500000
2413, 113392760.000000, 1796.125000, 8252.500000, 8200.000000, 8216.500000
2414, 113392920.000000, 1771.875000, 8268.000000, 8200.500000, 8224.000000
2415, 113393080.000000, 1769.875000, 8270.500000, 8202.000000, 8225.500000
2416, 113393240.000000, 1774.375000, 8245.000000, 8213.500000, 8228.500000
2417, 113393400.000000, 1775.125000, 8195.500000, 8221.500000, 8224.000000
2418, 113393560.000000, 1762.000000, 8163.500000, 8213.500000, 8203.500000
2419, 113393720.000000, 1731.875000, 8155.500000, 8204.500000, 8190.500000
2420, 113393880.000000, 1688.500000, 8153.500000, 8199.000000, 8183.500000
2421, 113394040.000000, 1636.625000, 8158.000000, 8199.500000, 8184.500000
2422, 113394200.000000, 1580.750000, 8163.000000, 8202.000000, 8191.000000
2423, 113394360.000000, 1523.000000, 8163.500000, 8205.500000, 8197.000000
2424, 113394520.000000, 1468.125000, 8166.500000, 8204.000000, 8196.500000
2425, 113394680.000000, 1420.250000, 8171.000000, 8199.500000, 8195.000000
2426, 113394840.000000, 1380.750000, 8171.000000, 8196.000000, 8191.000000
2427, 113395000.000000, 1344.875000, 8166.000000, 8197.500000, 8189.500000
2428, 113395160.000000, 1310.750000, 8166.000000, 8197.000000, 8189.000000
2429, 113395320.000000, 1283.000000, 8169.000000, 8196.500000, 8188.500000
2430, 113395480.000000, 1305.375000, 8172.000000, 8208.000000, 8213.000000
2431, 113395640.000000, 1443.750000, 8174.000000, 8208.500000, 8211.500000
2432, 113395800.000000, 1734.000000, 8185.000000, 8202.500000, 8206.500000
2433, 113395960.000000, 2117.125000, 8171.500000, 8187.000000, 8176.500000
2434, 113396120.000000, 2493.750000, 8171.000000, 8183.500000, 8170.500000
2435, 113396280.000000, 2791.250000, 8168.500000, 8184.000000, 8171.500000
2436, 113396440.000000, 2979.125000, 8171.000000, 8184.500000, 8174.000000
2437, 113396600.000000, 3054.250000, 8160.500000, 8211.500000, 8203.000000
2438, 113396760.000000, 3027.625000, 8349.500000, 8179.000000, 8234.000000
2439, 113396920.000000, 2913.000000, 8224.000000, 8116.500000, 8152.500000
2440, 113397080.000000, 2727.125000, 8073.500000, 8096.500000, 8068.000000
2441, 113397240.000000, 2502.625000, 8168.500000, 8184.500000, 8177.000000
2442, 113397400.000000, 2276.750000, 8189.000000, 8198.500000, 8192.000000
2443, 113397560.000000, 2078.125000, 8197.000000, 8201.000000, 8196.000000
2444, 113397720.000000, 1931.750000, 8201.500000, 8201.500000, 8200.000000
2445, 113397880.000000, 1846.125000, 8218.000000, 8200.000000, 8202.500000
2446, 113398040.000000, 1825.625000, 8237.000000, 8198.000000, 8208.000000
2447, 113398200.000000, 1863.375000, 8264.500000, 8197.500000, 8218.500000
2448, 113398360.000000, 1924.000000, 8278.500000, 8200.500000, 8227.000000
2449, 113398520.000000, 1971.250000, 8264.500000, 8207.000000, 8230.500000
2450, 113398680.000000, 1975.000000, 8220.000000, 8219.000000, 8225.500000
2451, 113398840.000000, 1939.375000, 8180.000000, 8219.500000, 8215.000000
2452, 113399000.000000, 1876.125000, 8162.500000, 8209.500000, 8200.000000
2453, 113399160.000000, 1794.375000, 8158.000000, 8203.000000, 8191.500000
2454, 113399320.000000, 1703.125000, 8156.000000, 8201.500000, 8188.000000
2455, 113399480.000000, 1614.250000, 8159.000000, 8201.000000, 8190.000000
2456, 113399640.000000, 1535.750000, 8163.500000, 8203.500000, 8193.500000
2457, 113399800.000000, 1467.125000, 8166.000000, 8204.500000, 8197.500000
2458, 113399960.000000, 1412.125000, 8176.000000, 8201.000000, 8196.000000
2459, 113400120.000000, 1364.250000, 8172.500000, 8198.500000, 8193.000000
2460, 113400280.000000, 1325.375000, 8166.000000, 8198.000000, 8190.000000
2461, 113400440.000000, 1286.000000, 8163.000000, 8196.500000, 8187.500000
2462, 113400600.000000, 1243.625000, 8162.500000, 8195.500000, 8185.000000
2463, 113400760.000000, 1212.000000, 8173.500000, 8208.500000, 8213.000000
2464, 113400920.000000, 1253.875000, 8187.500000, 8204.500000, 8213.500000
2465, 113401080.000000, 1433.875000, 8193.500000, 8198.000000, 8205.000000
2466, 113401240.000000, 1779.000000, 8167.000000, 8186.000000, 8172.500000
2467, 113401400.000000, 2193.125000, 8162.000000, 8184.000000, 8167.500000
2468, 113401560.000000, 2580.750000, 8168.500000, 8184.000000, 8171.500000
2469, 113401720.000000, 2873.375000, 8170.500000, 8183.500000, 8171.500000
2470, 113401880.000000, 3048.375000, 8169.500000, 8199.500000, 8190.500000
2471, 113402040.000000, 3100.250000, 8319.500000, 8191.500000, 8235.500000
2472, 113402200.000000, 3037.625000, 8272.000000, 8107.500000, 8157.000000
2473, 113402360.000000, 2884.125000, 8060.500000, 8091.500000, 8059.500000
2474, 113402520.000000, 2663.000000, 8163.000000, 8179.500000, 8171.500000
2475, 113402680.000000, 2422.000000, 8188.500000, 8195.000000, 8188.000000
2476, 113402840.000000, 2200.000000, 8194.000000, 8196.500000, 8190.000000
2477, 113403000.000000, 2027.500000, 8199.000000, 8200.000000, 8196.000000
2478, 113403160.000000, 1915.000000, 8219.000000, 8198.000000, 8204.000000
2479, 113403320.000000, 1857.125000, 8240.500000, 8195.500000, 8208.000000
2480, 113403480.000000, 1842.375000, 8262.000000, 8195.000000, 8216.500000
2481, 113403640.000000, 1853.250000, 8277.500000, 8196.500000, 8223.500000
2482, 113403800.000000, 1866.875000, 8269.000000, 8204.000000, 8229.500000
2483, 113403960.000000, 1870.250000, 8226.500000, 8219.500000, 8232.500000
2484, 113404120.000000, 1852.500000, 8182.000000, 8220.500000, 8219.000000
2485, 113404280.000000, 1814.250000, 8157.000000, 8210.500000, 8198.500000
2486, 113404440.000000, 1761.375000, 8155.000000, 8202.000000, 8189.000000
2487, 113404600.000000, 1703.000000, 8153.500000, 8202.500000, 8189.000000
2488, 113404760.000000, 1646.750000, 8156.000000, 8204.500000, 8193.500000
2489, 113404920.000000, 1593.625000, 8159.000000, 8205.000000, 8196.000000
2490, 113405080.000000, 1543.500000, 8165.000000, 8203.500000, 8195.000000
2491, 113405240.000000, 1495.375000, 8180.000000, 8200.000000, 8199.000000
2492, 113405400.000000, 1452.000000, 8175.000000, 8199.500000, 8193.500000
2493, 113405560.000000, 1413.875000, 8164.000000, 8201.000000, 8193.500000
2494, 113405720.000000, 1372.250000, 8163.000000, 8198.500000, 8188.500000
2495, 113405880.000000, 1327.250000, 8165.000000, 8194.500000, 8185.500000
2496, 113406040.000000, 1284.875000, 8170.000000, 8193.000000, 8184.000000
2497, 113406200.000000, 1285.500000, 8175.500000, 8199.000000, 8199.000000
2498, 113406360.000000, 1412.000000, 8180.000000, 8208.500000, 8217.500000
2499, 113406520.000000, 1686.375000, 8188.500000, 8205.000000, 8211.500000
2500, 113406680.000000, 2069.625000, 8179.500000, 8190.000000, 8186.000000
2501, 113406840.000000, 2452.625000, 8166.000000, 8184.000000, 8170.000000
2502, 113407000.000000, 2764.500000, 8169.500000, 8185.000000, 8172.500000
2503, 113407160.000000, 2968.625000, 8174.000000, 8185.500000, 8176.500000
2504, 113407320.000000, 3054.375000, 8173.000000, 8186.500000, 8178.000000
2505, 113407480.000000, 3033.875000, 8176.000000, 8245.500000, 8243.000000
2506, 113407640.000000, 2906.500000, 8535.500000, 8057.500000, 8194.500000
2507, 113407800.000000, 2704.375000, 8065.000000, 8109.500000, 8094.000000
2508, 113407960.000000, 2458.500000, 8134.000000, 8148.000000, 8143.500000
2509, 113408120.000000, 2220.375000, 8176.500000, 8197.500000, 8188.500000
2510, 113408280.000000, 2025.625000, 8193.500000, 8197.500000, 8191.000000
2511, 113408440.000000, 1892.500000, 8202.000000, 8198.500000, 8193.500000
2512, 113408600.000000, 1824.750000, 8215.500000, 8197.500000, 8200.500000
2513, 113408760.000000, 1807.125000, 8231.500000, 8199.000000, 8209.500000
2514, 113408920.000000, 1821.000000, 8254.000000, 8197.500000, 8214.000000
2515, 113409080.000000, 1837.500000, 8272.500000, 8196.500000, 8219.500000
2516, 113409240.000000, 1836.125000, 8277.500000, 8200.500000, 8225.500000
2517, 113409400.000000, 1814.500000, 8254.000000, 8212.000000, 8231.500000
2518, 113409560.000000, 1772.125000, 8208.000000, 8223.500000, 8230.000000
2519, 113409720.000000, 1714.125000, 8167.000000, 8216.000000, 8207.500000
2520, 113409880.000000, 1652.000000, 8152.000000, 8207.000000, 8192.000000
2521, 113410040.000000, 1592.875000, 8155.500000, 8202.000000, 8188.000000
2522, 113410200.000000, 1537.125000, 8161.500000, 8201.000000, 8190.000000
2523, 113410360.000000, 1484.625000, 8165.500000, 8203.500000, 8195.000000
2524, 113410520.000000, 1434.500000, 8167.000000, 8205.500000, 8198.500000
2525, 113410680.000000, 1385.375000, 8176.500000, 8202.500000, 8200.500000
2526, 113410840.000000, 1343.000000, 8178.000000, 8200.500000, 8198.500000
2527, 113411000.000000, 1305.750000, 8173.000000, 8200.000000, 8196.500000
2528, 113411160.000000, 1274.500000, 8163.500000, 8201.000000, 8193.500000
2529, 113411320.000000, 1240.875000, 8161.500000, 8200.500000, 8192.500000
2530, 113411480.000000, 1201.375000, 8169.000000, 8194.500000, 8187.500000
2531, 113411640.000000, 1181.875000, 8177.000000, 8191.000000, 8186.500000
2532, 113411800.000000, 1253.500000, 8185.500000, 8199.500000, 8205.000000
2533, 113411960.000000, 1485.250000, 8179.000000, 8208.000000, 8215.500000
2534, 113412120.000000, 1860.750000, 8191.500000, 8204.500000, 8213.000000
2535, 113412280.000000, 2290.750000, 8183.000000, 8187.500000, 8184.000000
2536, 113412440.000000, 2665.750000, 8169.000000, 8182.000000, 8170.000000
2537, 113412600.000000, 2943.250000, 8167.500000, 8185.500000, 8175.500000
2538, 113412760.000000, 3089.750000, 8173.000000, 8186.000000, 8177.000000
2539, 113412920.000000, 3116.125000, 8174.000000, 8186.000000, 8179.000000
2540, 113413080.000000, 3027.250000, 8201.500000, 8239.000000, 8244.500000
2541, 113413240.000000, 2840.875000, 8527.000000, 8054.500000, 8190.000000
2542, 113413400.000000, 2590.875000, 8057.000000, 8099.500000, 8078.000000
2543, 113413560.000000, 2323.125000, 8141.000000, 8156.500000, 8152.000000
2544, 113413720.000000, 2092.000000, 8178.500000, 8198.000000, 8189.500000
2545, 113413880.000000, 1921.250000, 8192.500000, 8197.000000, 8189.500000
2546, 113414040.000000, 1821.875000, 8203.500000, 8198.000000, 8195.000000
2547, 113414200.000000, 1780.125000, 8217.000000, 8197.500000, 8201.000000
2548, 113414360.000000, 1779.500000, 8229.000000, 8200.000000, 8210.000000
2549, 113414520.000000, 1793.250000, 8250.000000, 8198.500000, 8216.000000
2550, 113414680.000000, 1802.625000, 8272.000000, 8197.500000, 8222.000000
2551, 113414840.000000, 1792.750000, 8280.500000, 8200.500000, 8227.500000
2552, 113415000.000000, 1762.000000, 8245.000000, 8215.000000, 8232.000000
2553, 113415160.000000, 1715.625000, 8200.000000, 8224.000000, 8229.500000
2554, 113415320.000000, 1655.625000, 8170.000000, 8213.000000, 8207.500000
2555, 113415480.000000, 1590.250000, 8158.000000, 8203.000000, 8190.000000
2556, 113415640.000000, 1528.000000, 8155.500000, 8199.000000, 8185.000000
2557, 113415800.000000, 1469.875000, 8156.000000, 8202.500000, 8192.000000
2558, 113415960.000000, 1416.125000, 8163.500000, 8203.000000, 8194.500000
2559, 113416120.000000, 1365.500000, 8167.000000, 8204.500000, 8198.500000
2560, 113416280.000000, 1320.000000, 8169.000000, 8202.500000, 8196.500000
2561, 113416440.000000, 1283.750000, 8173.000000, 8199.500000, 8194.500000
2562, 113416600.000000, 1250.500000, 8178.500000, 8196.500000, 8194.000000
2563, 113416760.000000, 1219.625000, 8173.500000, 8197.000000, 8192.000000
2564, 113416920.000000, 1187.750000, 8165.500000, 8197.500000, 8189.000000
2565, 113417080.000000, 1150.875000, 8162.500000, 8195.000000, 8185.500000
2566, 113417240.000000, 1134.625000, 8168.000000, 8191.000000, 8182.500000
2567, 113417400.000000, 1197.875000, 8178.000000, 8196.000000, 8195.500000
2568, 113417560.000000, 1416.875000, 8180.000000, 8206.500000, 8215.500000
2569, 113417720.000000, 1781.750000, 8187.000000, 8203.000000, 8207.000000
2570, 113417880.000000, 2209.000000, 8181.000000, 8188.500000, 8184.500000
2571, 113418040.000000, 2596.250000, 8167.000000, 8183.000000, 8170.000000
2572, 113418200.000000, 2879.625000, 8169.000000, 8184.000000, 8172.000000
2573, 113418360.000000, 3032.750000, 8169.500000, 8185.500000, 8174.000000
2574, 113418520.000000, 3061.625000, 8173.000000, 8187.000000, 8178.000000
2575, 113418680.000000, 2976.875000, 8189.500000, 8241.500000, 8243.000000
2576, 113418840.000000, 2801.375000, 8542.000000, 8053.500000, 8193.000000
2577, 113419000.000000, 2563.750000, 8059.000000, 8106.500000, 8087.500000
2578, 113419160.000000, 2295.250000, 8134.500000, 8151.500000, 8146.500000
2579, 113419320.000000, 2046.625000, 8176.500000, 8197.000000, 8188.000000
2580, 113419480.000000, 1859.500000, 8197.000000, 8194.000000, 8192.500000
2581, 113419640.000000, 1744.375000, 8207.500000, 8197.000000, 8196.500000
2582, 113419800.000000, 1692.625000, 8216.000000, 8197.500000, 8202.500000
2583, 113419960.000000, 1686.750000, 8228.000000, 8199.000000, 8208.000000
2584, 113420120.000000, 1702.375000, 8253.000000, 8196.500000, 8214.000000
2585, 113420280.000000, 1719.375000, 8276.000000, 8194.000000, 8220.000000
2586, 113420440.000000, 1713.375000, 8283.500000, 8198.500000, 8226.500000
2587, 113420600.000000, 1686.750000, 8251.500000, 8211.500000, 8231.500000
2588, 113420760.000000, 1639.750000, 8201.500000, 8224.000000, 8228.500000
2589, 113420920.000000, 1580.125000, 8170.000000, 8216.500000, 8211.000000
2590, 113421080.000000, 1516.625000, 8157.500000, 8203.500000, 8192.000000
2591, 113421240.000000, 1456.000000, 8156.500000, 8198.000000, 8185.500000
2592, 113421400.000000, 1396.000000, 8156.500000, 8200.500000, 8188.000000
2593, 113421560.000000, 1336.875000, 8158.000000, 8204.000000, 8192.500000
2594, 113421720.000000, 1284.875000, 8162.000000, 8202.500000, 8193.500000
2595, 113421880.000000, 1242.875000, 8169.500000, 8201.500000, 8195.000000
2596, 113422040.000000, 1209.875000, 8172.000000, 8199.500000, 8195.500000
2597, 113422200.000000, 1185.125000, 8174.000000, 8197.000000, 8194.000000
2598, 113422360.000000, 1164.625000, 8166.500000, 8198.000000, 8190.500000
2599, 113422520.000000, 1142.125000, 8159.500000, 8196.500000, 8186.000000
2600, 113422680.000000, 1114.500000, 8166.000000, 8193.500000, 8183.500000
2601, 113422840.000000, 1089.875000, 8175.000000, 8189.000000, 8182.000000
2602, 113423000.000000, 1131.625000, 8180.500000, 8197.500000, 8198.000000
2603, 113423160.000000, 1306.750000, 8177.000000, 8206.500000, 8213.500000
2604, 113423320.000000, 1650.875000, 8187.000000, 8205.000000, 8208.500000
2605, 113423480.000000, 2084.750000, 8177.500000, 8190.000000, 8183.500000
2606, 113423640.000000, 2498.000000, 8166.000000, 8184.000000, 8168.000000
2607, 113423800.000000, 2814.000000, 8169.000000, 8183.000000, 8171.000000
2608, 113423960.000000, 3000.250000, 8171.000000, 8185.000000, 8174.500000
2609, 113424120.000000, 3063.125000, 8173.000000, 8185.500000, 8176.500000
2610, 113424280.000000, 2999.750000, 8185.500000, 8243.000000, 8245.500000
2611, 113424440.000000, 2840.750000, 8535.000000, 8054.500000, 8189.500000
2612, 113424600.000000, 2606.000000, 8057.000000, 8107.500000, 8087.000000
2613, 113424760.000000, 2339.500000, 8136.000000, 8151.000000, 8146.000000
2614, 113424920.000000, 2087.875000, 8181.000000, 8195.500000, 8188.500000
2615, 113425080.000000, 1887.000000, 8190.000000, 8196.000000, 8189.000000
2616, 113425240.000000, 1756.125000, 8201.000000, 8199.000000, 8196.500000
2617, 113425400.000000, 1690.250000, 8214.500000, 8198.500000, 8201.500000
2618, 113425560.000000, 1674.375000, 8233.500000, 8198.000000, 8209.000000
2619, 113425720.000000, 1685.250000, 8250.500000, 8197.500000, 8215.500000
2620, 113425880.000000, 1699.875000, 8274.500000, 8197.500000, 8223.500000
2621, 113426040.000000, 1704.125000, 8285.000000, 8199.500000, 8231.500000
2622, 113426200.000000, 1686.500000, 8257.000000, 8213.000000, 8234.500000
2623, 113426360.000000, 1647.250000, 8204.500000, 8224.000000, 8230.500000
2624, 113426520.000000, 1594.375000, 8164.500000, 8217.000000, 8210.000000
2625, 113426680.000000, 1533.125000, 8154.000000, 8205.500000, 8192.500000
2626, 113426840.000000, 1467.250000, 8160.000000, 8196.000000, 8185.000000
2627, 113427000.000000, 1403.250000, 8160.500000, 8199.000000, 8188.500000
2628, 113427160.000000, 1345.125000, 8156.500000, 8202.000000, 8191.500000
2629, 113427320.000000, 1295.375000, 8162.000000, 8203.000000, 8194.500000
2630, 113427480.000000, 1252.000000, 8171.500000, 8200.500000, 8195.000000
2631, 113427640.000000, 1213.875000, 8178.000000, 8197.000000, 8193.000000
2632, 113427800.000000, 1179.500000, 8180.500000, 8197.500000, 8195.000000
2633, 113427960.000000, 1153.250000, 8172.500000, 8198.500000, 8192.000000
2634, 113428120.000000, 1129.625000, 8167.500000, 8196.500000, 8188.500000
2635, 113428280.000000, 1103.375000, 8166.000000, 8195.000000, 8186.000000
2636, 113428440.000000, 1078.500000, 8173.500000, 8193.500000, 8185.500000
2637, 113428600.000000, 1105.125000, 8180.500000, 8202.000000, 8204.500000
2638, 113428760.000000, 1251.125000, 8179.500000, 8207.500000, 8214.000000
2639, 113428920.000000, 1564.000000, 8190.500000, 8206.500000, 8212.500000
2640, 113429080.000000, 1983.625000, 8177.500000, 8189.000000, 8182.500000
2641, 113429240.000000, 2406.750000, 8171.000000, 8185.000000, 8172.500000
2642, 113429400.000000, 2745.375000, 8175.500000, 8184.500000, 8173.000000
2643, 113429560.000000, 2965.625000, 8172.000000, 8186.500000, 8174.500000
2644, 113429720.000000, 3047.875000, 8170.500000, 8190.000000, 8178.000000
2645, 113429880.000000, 3005.250000, 8210.000000, 8238.500000, 8244.500000
2646, 113430040.000000, 2855.000000, 8515.500000, 8060.000000, 8191.500000
2647, 113430200.000000, 2626.375000, 8057.000000, 8098.000000, 8075.000000
2648, 113430360.000000, 2358.500000, 8140.500000, 8160.500000, 8153.500000
2649, 113430520.000000, 2099.375000, 8177.000000, 8197.500000, 8185.000000
2650, 113430680.000000, 1890.375000, 8197.000000, 8195.500000, 8188.500000
2651, 113430840.000000, 1744.000000, 8204.000000, 8196.500000, 8193.500000
2652, 113431000.000000, 1665.500000, 8214.500000, 8197.500000, 8199.500000
2653, 113431160.000000, 1637.625000, 8228.500000, 8199.500000, 8206.500000
2654, 113431320.000000, 1644.625000, 8256.500000, 8196.000000, 8213.000000
2655, 113431480.000000, 1664.000000, 8284.000000, 8192.500000, 8221.000000
2656, 113431640.000000, 1673.000000, 8287.000000, 8197.500000, 8226.000000
2657, 113431800.000000, 1663.000000, 8251.000000, 8212.500000, 8231.500000
2658, 113431960.000000, 1630.000000, 8202.500000, 8223.000000, 8227.000000
2659, 113432120.000000, 1579.875000, 8166.000000, 8214.000000, 8206.000000
2660, 113432280.000000, 1517.875000, 8155.000000, 8202.000000, 8187.000000
2661, 113432440.000000, 1452.250000, 8155.000000, 8199.000000, 8183.500000
2662, 113432600.000000, 1390.375000, 8161.000000, 8199.500000, 8188.500000
2663, 113432760.000000, 1334.625000, 8161.000000, 8200.500000, 8190.500000
2664, 113432920.000000, 1277.250000, 8163.000000, 8203.500000, 8194.500000
2665, 113433080.000000, 1227.000000, 8171.000000, 8200.500000, 8194.000000
2666, 113433240.000000, 1191.500000, 8176.500000, 8198.000000, 8192.000000
2667, 113433400.000000, 1163.375000, 8175.500000, 8196.000000, 8191.500000
2668, 113433560.000000, 1133.250000, 8169.500000, 8199.000000, 8189.500000
2669, 113433720.000000, 1096.000000, 8166.000000, 8194.500000, 8184.500000
2670, 113433880.000000, 1069.125000, 8168.000000, 8190.500000, 8179.500000
2671, 113434040.000000, 1110.875000, 8177.000000, 8190.000000, 8184.500000
2672, 113434200.000000, 1293.500000, 8185.500000, 8205.500000, 8215.000000
2673, 113434360.000000, 1645.250000, 8189.000000, 8200.500000, 8205.500000
2674, 113434520.000000, 2081.375000, 8180.000000, 8194.000000, 8192.000000
2675, 113434680.000000, 2501.250000, 8167.000000, 8182.500000, 8167.500000
2676, 113434840.000000, 2813.875000, 8171.000000, 8180.000000, 8165.500000
2677, 113435000.000000, 3023.375000, 8174.000000, 8182.500000, 8171.500000
2678, 113435160.000000, 3047.250000, 8175.500000, 8184.500000, 8173.000000
2679, 113435320.000000, 2938.125000, 8161.000000, 8239.000000, 8231.500000
2680, 113435480.000000, 2732.250000, 8467.000000, 8100.000000, 8200.000000
2681, 113435640.000000, 2468.000000, 8105.000000, 8123.500000, 8118.500000
2682, 113435800.000000, 2186.875000, 8105.500000, 8121.500000, 8105.500000
2683, 113435960.000000, 1943.000000, 8173.500000, 8194.000000, 8183.000000
2684, 113436120.000000, 1769.750000, 8189.000000, 8197.500000, 8190.500000
2685, 113436280.000000, 1669.625000, 8200.500000, 8197.000000, 8193.000000
2686, 113436440.000000, 1631.500000, 8208.000000, 8198.000000, 8197.500000
2687, 113436600.000000, 1634.375000, 8225.500000, 8197.500000, 8202.000000
2688, 113436760.000000, 1655.000000, 8246.500000, 8198.000000, 8213.000000
2689, 113436920.000000, 1671.375000, 8272.500000, 8196.500000, 8220.000000
2690, 113437080.000000, 1665.375000, 8283.000000, 8197.500000, 8225.000000
2691, 113437240.000000, 1639.625000, 8262.500000, 8206.000000, 8227.000000
2692, 113437400.000000, 1595.500000, 8216.500000, 8223.500000, 8230.000000
2693, 113437560.000000, 1540.875000, 8179.000000, 8218.500000, 8214.000000
2694, 113437720.000000, 1479.625000, 8159.500000, 8207.000000, 8194.500000
2695, 113437880.000000, 1418.000000, 8154.000000, 8200.500000, 8183.500000
2696, 113438040.000000, 1355.000000, 8154.000000, 8199.500000, 8185.500000
2697, 113438200.000000, 1295.875000, 8151.500000, 8202.500000, 8187.000000
2698, 113438360.000000, 1245.250000, 8159.500000, 8205.000000, 8194.500000
2699, 113438520.000000, 1205.750000, 8164.000000, 8202.500000, 8191.500000
2700, 113438680.000000, 1174.500000, 8172.000000, 8199.000000, 8191.000000
2701, 113438840.000000, 1146.375000, 8171.000000, 8197.000000, 8190.000000
2702, 113439000.000000, 1120.500000, 8168.000000, 8197.500000, 8189.000000
2703, 113439160.000000, 1088.625000, 8162.000000, 8198.000000, 8187.000000
2704, 113439320.000000, 1066.250000, 8156.500000, 8197.000000, 8182.500000
2705, 113439480.000000, 1093.000000, 8165.500000, 8192.000000, 8179.500000
2706, 113439640.000000, 1263.250000, 8176.000000, 8194.500000, 8190.000000
2707, 113439800.000000, 1596.375000, 8181.000000, 8207.000000, 8213.000000
2708, 113439960.000000, 2036.875000, 8183.000000, 8204.500000, 8206.500000
2709, 113440120.000000, 2464.750000, 8178.000000, 8192.500000, 8188.500000
2710, 113440280.000000, 2802.750000, 8165.500000, 8184.000000, 8167.500000
2711, 113440440.000000, 3013.625000, 8169.000000, 8182.000000, 8167.000000
2712, 113440600.000000, 3085.000000, 8169.500000, 8184.500000, 8172.000000
2713, 113440760.000000, 3034.750000, 8172.500000, 8187.000000, 8176.500000
2714, 113440920.000000, 2869.500000, 8170.500000, 8245.000000, 8243.000000
2715, 113441080.000000, 2628.250000, 8517.000000, 8070.500000, 8193.000000
2716, 113441240.000000, 2346.625000, 8072.000000, 8120.000000, 8106.000000
2717, 113441400.000000, 2076.875000, 8120.500000, 8135.500000, 8125.000000
2718, 113441560.000000, 1861.125000, 8181.000000, 8194.500000, 8184.500000
2719, 113441720.000000, 1718.875000, 8195.000000, 8196.500000, 8190.000000
2720, 113441880.000000, 1652.500000, 8199.000000, 8197.500000, 8191.500000
2721, 113442040.000000, 1642.750000, 8211.000000, 8197.500000, 8199.000000
2722, 113442200.000000, 1664.125000, 8232.000000, 8197.500000, 8205.000000
2723, 113442360.000000, 1690.875000, 8249.500000, 8197.000000, 8213.000000
2724, 113442520.000000, 1701.000000, 8273.000000, 8196.500000, 8220.500000
2725, 113442680.000000, 1688.125000, 8287.000000, 8198.000000, 8226.000000
2726, 113442840.000000, 1654.250000, 8263.500000, 8209.000000, 8231.000000
2727, 113443000.000000, 1604.625000, 8211.500000, 8224.500000, 8231.500000
2728, 113443160.000000, 1543.625000, 8169.000000, 8220.500000, 8212.500000
2729, 113443320.000000, 1479.250000, 8156.000000, 8209.000000, 8196.000000
2730, 113443480.000000, 1416.000000, 8159.000000, 8199.500000, 8185.000000
2731, 113443640.000000, 1357.750000, 8156.500000, 8198.500000, 8184.000000
2732, 113443800.000000, 1306.250000, 8153.000000, 8202.500000, 8187.500000
2733, 113443960.000000, 1263.125000, 8162.000000, 8205.000000, 8194.500000
2734, 113444120.000000, 1227.125000, 8170.500000, 8200.500000, 8193.500000
2735, 113444280.000000, 1198.375000, 8173.500000, 8198.000000, 8192.000000
2736, 113444440.000000, 1173.250000, 8172.500000, 8196.500000, 8189.000000
2737, 113444600.000000, 1147.375000, 8166.000000, 8198.000000, 8188.000000
2738, 113444760.000000, 1116.500000, 8163.500000, 8198.000000, 8186.000000
2739, 113444920.000000, 1095.500000, 8164.500000, 8195.000000, 8183.000000
2740, 113445080.000000, 1133.375000, 8169.000000, 8190.500000, 8179.500000
2741, 113445240.000000, 1319.500000, 8177.500000, 8188.000000, 8180.500000
2742, 113445400.000000, 1671.500000, 8180.000000, 8197.000000, 8195.000000
2743, 113445560.000000, 2122.875000, 8179.000000, 8203.500000, 8207.000000
2744, 113445720.000000, 2554.125000, 8186.500000, 8201.500000, 8202.000000
2745, 113445880.000000, 2894.250000, 8173.500000, 8187.500000, 8177.500000
2746, 113446040.000000, 3092.500000, 8162.500000, 8182.000000, 8163.500000
2747, 113446200.000000, 3155.625000, 8173.500000, 8179.500000, 8164.500000
2748, 113446360.000000, 3087.875000, 8175.000000, 8180.000000, 8166.000000
2749, 113446520.000000, 2917.000000, 8174.000000, 8181.500000, 8167.000000
2750, 113446680.000000, 2675.125000, 8180.500000, 8241.500000, 8236.000000
2751, 113446840.000000, 2397.125000, 8533.500000, 8055.000000, 8183.500000
2752, 113447000.000000, 2132.000000, 8061.500000, 8113.000000, 8092.000000
2753, 113447160.000000, 1919.375000, 8132.500000, 8140.000000, 8129.500000
2754, 113447320.000000, 1783.000000, 8182.500000, 8191.000000, 8179.000000
2755, 113447480.000000, 1716.000000, 8191.000000, 8194.000000, 8183.000000
2756, 113447640.000000, 1707.875000, 8199.000000, 8195.500000, 8187.500000
2757, 113447800.000000, 1730.625000, 8208.500000, 8195.500000, 8192.000000
2758, 113447960.000000, 1753.625000, 8225.500000, 8196.000000, 8198.500000
2759, 113448120.000000, 1761.000000, 8248.000000, 8195.500000, 8208.000000
2760, 113448280.000000, 1742.500000, 8275.500000, 8194.000000, 8215.500000
2761, 113448440.000000, 1704.250000, 8287.000000, 8196.500000, 8224.500000
2762, 113448600.000000, 1645.250000, 8264.500000, 8207.500000, 8230.000000
2763, 113448760.000000, 1576.625000, 8209.000000, 8222.500000, 8227.500000
2764, 113448920.000000, 1504.875000, 8163.000000, 8219.000000, 8208.000000
2765, 113449080.000000, 1439.125000, 8151.500000, 8205.500000, 8187.000000
2766, 113449240.000000, 1380.750000, 8152.500000, 8200.000000, 8182.000000
2767, 113449400.000000, 1325.750000, 8153.000000, 8200.500000, 8183.500000
2768, 113449560.000000, 1272.500000, 8154.500000, 8200.000000, 8184.500000
2769, 113449720.000000, 1227.125000, 8163.500000, 8201.000000, 8188.500000
2770, 113449880.000000, 1193.125000, 8163.000000, 8201.500000, 8189.500000
2771, 113450040.000000, 1166.250000, 8166.000000, 8200.000000, 8189.000000
2772, 113450200.000000, 1142.250000, 8165.500000, 8199.500000, 8189.000000
2773, 113450360.000000, 1115.375000, 8163.500000, 8198.000000, 8188.000000
2774, 113450520.000000, 1087.875000, 8159.000000, 8197.000000, 8182.500000
2775, 113450680.000000, 1070.375000, 8159.000000, 8193.500000, 8179.000000
2776, 113450840.000000, 1124.000000, 8167.000000, 8191.000000, 8179.500000
2777, 113451000.000000, 1316.000000, 8170.500000, 8195.500000, 8188.500000
2778, 113451160.000000, 1696.750000, 8173.000000, 8209.500000, 8214.000000
2779, 113451320.000000, 2168.750000, 8173.500000, 8205.500000, 8202.500000
2780, 113451480.000000, 2620.375000, 8164.500000, 8195.000000, 8185.000000
2781, 113451640.000000, 2963.250000, 8156.000000, 8186.000000, 8167.500000
2782, 113451800.000000, 3169.250000, 8164.000000, 8183.500000, 8168.000000
2783, 113451960.000000, 3227.250000, 8172.000000, 8183.000000, 8171.000000
2784, 113452120.000000, 3151.000000, 8169.000000, 8184.500000, 8170.500000
2785, 113452280.000000, 2972.500000, 8153.500000, 8239.000000, 8229.000000
2786, 113452440.000000, 2721.125000, 8462.000000, 8098.000000, 8197.000000
2787, 113452600.000000, 2443.875000, 8090.000000, 8133.000000, 8127.000000
2788, 113452760.000000, 2184.750000, 8104.000000, 8122.500000, 8107.000000
2789, 113452920.000000, 1981.875000, 8172.500000, 8192.000000, 8179.500000
2790, 113453080.000000, 1852.875000, 8174.000000, 8199.500000, 8185.000000
2791, 113453240.000000, 1793.000000, 8188.000000, 8200.000000, 8192.500000
2792, 113453400.000000, 1785.250000, 8206.500000, 8197.000000, 8196.000000
2793, 113453560.000000, 1806.750000, 8232.500000, 8193.000000, 8204.000000
2794, 113453720.000000, 1831.375000, 8249.500000, 8193.500000, 8210.000000
2795, 113453880.000000, 1843.875000, 8264.000000, 8196.000000, 8218.000000
2796, 113454040.000000, 1831.375000, 8278.500000, 8199.500000, 8227.000000
2797, 113454200.000000, 1807.500000, 8274.000000, 8204.500000, 8233.000000
2798, 113454360.000000, 1773.375000, 8232.000000, 8216.500000, 8231.500000
2799, 113454520.000000, 1730.375000, 8176.500000, 8216.500000, 8212.500000
2800, 113454680.000000, 1676.000000, 8147.500000, 8206.500000, 8191.000000
2801, 113454840.000000, 1616.000000, 8149.000000, 8201.000000, 8184.000000
2802, 113455000.000000, 1556.000000, 8156.000000, 8198.500000, 8185.500000
2803, 113455160.000000, 1496.875000, 8159.000000, 8198.500000, 8186.000000
2804, 113455320.000000, 1443.875000, 8160.500000, 8198.500000, 8187.000000
2805, 113455480.000000, 1402.750000, 8169.000000, 8198.000000, 8191.000000
2806, 113455640.000000, 1372.250000, 8175.000000, 8196.000000, 8191.000000
2807, 113455800.000000, 1351.875000, 8176.000000, 8196.000000, 8191.000000
2808, 113455960.000000, 1333.000000, 8170.000000, 8196.500000, 8189.500000
2809, 113456120.000000, 1312.125000, 8165.500000, 8194.500000, 8184.000000
2810, 113456280.000000, 1288.000000, 8162.500000, 8193.000000, 8180.500000
2811, 113456440.000000, 1295.125000, 8165.000000, 8191.500000, 8180.500000
2812, 113456600.000000, 1411.750000, 8167.000000, 8195.500000, 8189.500000
2813, 113456760.000000, 1704.125000, 8175.500000, 8208.500000, 8217.500000
2814, 113456920.000000, 2132.750000, 8186.500000, 8201.000000, 8205.500000
2815, 113457080.000000, 2588.875000, 8184.500000, 8190.000000, 8190.000000
2816, 113457240.000000, 2963.750000, 8172.000000, 8183.000000, 8170.000000
2817, 113457400.000000, 3210.250000, 8167.500000, 8181.500000, 8169.500000
2818, 113457560.000000, 3304.750000, 8165.500000, 8185.000000, 8172.500000
2819, 113457720.000000, 3270.250000, 8167.000000, 8184.500000, 8171.500000
2820, 113457880.000000, 3122.750000, 8159.500000, 8235.500000, 8227.000000
2821, 113458040.000000, 2892.750000, 8479.000000, 8090.500000, 8192.000000
2822, 113458200.000000, 2617.875000, 8104.500000, 8132.000000, 8129.000000
2823, 113458360.000000, 2334.750000, 8090.000000, 8121.500000, 8101.000000
2824, 113458520.000000, 2092.500000, 8152.500000, 8193.000000, 8178.000000
2825, 113458680.000000, 1915.375000, 8168.000000, 8198.000000, 8181.500000
2826, 113458840.000000, 1817.625000, 8188.500000, 8195.000000, 8187.000000
2827, 113459000.000000, 1783.500000, 8211.500000, 8193.500000, 8193.500000
2828, 113459160.000000, 1798.875000, 8231.500000, 8191.500000, 8200.000000
2829, 113459320.000000, 1835.125000, 8245.500000, 8190.500000, 8204.000000
2830, 113459480.000000, 1864.250000, 8265.000000, 8189.500000, 8209.500000
2831, 113459640.000000, 1869.125000, 8285.000000, 8190.000000, 8218.000000
2832, 113459800.000000, 1841.500000, 8275.500000, 8196.000000, 8222.000000
2833, 113459960.000000, 1781.500000, 8229.500000, 8212.500000, 8223.500000
2834, 113460120.000000, 1697.500000, 8176.000000, 8213.500000, 8207.000000
2835, 113460280.000000, 1602.000000, 8158.000000, 8205.500000, 8189.500000
2836, 113460440.000000, 1503.750000, 8155.500000, 8198.500000, 8181.500000
2837, 113460600.000000, 1417.875000, 8162.000000, 8197.500000, 8183.000000
2838, 113460760.000000, 1354.500000, 8159.500000, 8197.000000, 8183.500000
2839, 113460920.000000, 1313.750000, 8149.500000, 8199.500000, 8183.500000
2840, 113461080.000000, 1290.375000, 8159.500000, 8198.000000, 8188.500000
2841, 113461240.000000, 1275.625000, 8170.500000, 8194.500000, 8189.500000
2842, 113461400.000000, 1262.125000, 8180.500000, 8192.500000, 8190.000000
2843, 113461560.000000, 1247.875000, 8181.000000, 8189.000000, 8187.000000
2844, 113461720.000000, 1225.875000, 8177.000000, 8188.000000, 8183.000000
2845, 113461880.000000, 1199.250000, 8170.500000, 8189.500000, 8184.500000
2846, 113462040.000000, 1206.750000, 8165.500000, 8192.000000, 8187.500000
2847, 113462200.000000, 1326.625000, 8180.000000, 8205.000000, 8214.000000
2848, 113462360.000000, 1625.250000, 8194.000000, 8200.500000, 8209.000000
2849, 113462520.000000, 2065.250000, 8200.000000, 8182.000000, 8187.500000
2850, 113462680.000000, 2546.750000, 8197.000000, 8169.500000, 8169.500000
2851, 113462840.000000, 2961.625000, 8190.000000, 8175.000000, 8173.000000
2852, 113463000.000000, 3240.250000, 8177.500000, 8182.500000, 8177.000000
2853, 113463160.000000, 3358.000000, 8172.000000, 8188.000000, 8181.000000
2854, 113463320.000000, 3327.250000, 8178.500000, 8238.500000, 8238.500000
2855, 113463480.000000, 3179.000000, 8523.000000, 8083.000000, 8203.000000
2856, 113463640.000000, 2948.625000, 8064.000000, 8192.000000, 8176.000000
2857, 113463800.000000, 2677.875000, 8080.500000, 8151.000000, 8128.000000
2858, 113463960.000000, 2409.500000, 8144.500000, 8203.000000, 8184.000000
2859, 113464120.000000, 2188.750000, 8154.000000, 8204.500000, 8185.500000
2860, 113464280.000000, 2036.750000, 8166.500000, 8202.000000, 8186.000000
2861, 113464440.000000, 1953.000000, 8187.000000, 8200.500000, 8191.500000
2862, 113464600.000000, 1921.875000, 8198.500000, 8203.000000, 8198.500000
2863, 113464760.000000, 1928.125000, 8209.000000, 8204.000000, 8206.500000
2864, 113464920.000000, 1953.375000, 8227.000000, 8199.500000, 8210.000000
2865, 113465080.000000, 1971.375000, 8241.000000, 8200.000000, 8216.000000
2866, 113465240.000000, 1960.875000, 8229.500000, 8208.000000, 8220.000000
2867, 113465400.000000, 1914.125000, 8189.000000, 8226.000000, 8220.500000
2868, 113465560.000000, 1834.750000, 8154.000000, 8225.500000, 8207.500000
2869, 113465720.000000, 1731.375000, 8140.500000, 8212.000000, 8189.000000
2870, 113465880.000000, 1629.125000, 8147.000000, 8200.500000, 8179.500000
2871, 113466040.000000, 1545.750000, 8149.000000, 8199.000000, 8180.000000
2872, 113466200.000000, 1485.125000, 8140.000000, 8204.000000, 8183.000000
2873, 113466360.000000, 1433.625000, 8134.500000, 8210.500000, 8188.500000
2874, 113466520.000000, 1370.500000, 8137.000000, 8211.000000, 8190.000000
2875, 113466680.000000, 1292.250000, 8156.000000, 8205.000000, 8189.500000
2876, 113466840.000000, 1204.875000, 8173.000000, 8198.000000, 8187.000000
2877, 113467000.000000, 1122.000000, 8178.000000, 8196.500000, 8184.500000
2878, 113467160.000000, 1054.000000, 8172.500000, 8196.000000, 8182.500000
2879, 113467320.000000, 1002.250000, 8155.000000, 8198.500000, 8181.000000
2880, 113467480.000000, 986.250000, 8156.500000, 8212.500000, 8208.000000
2881, 113467640.000000, 1042.125000, 8175.500000, 8208.500000, 8205.500000
2882, 113467800.000000, 1245.250000, 8190.500000, 8196.500000, 8193.000000
2883, 113467960.000000, 1575.500000, 8179.500000, 8183.500000, 8167.500000
2884, 113468120.000000, 1963.625000, 8175.500000, 8180.500000, 8161.000000
2885, 113468280.000000, 2299.875000, 8176.000000, 8179.000000, 8162.000000
2886, 113468440.000000, 2532.750000, 8179.000000, 8179.500000, 8166.500000
2887, 113468600.000000, 2652.750000, 8163.500000, 8230.000000, 8218.500000
2888, 113468760.000000, 2660.875000, 8434.500000, 8124.500000, 8201.500000
2889, 113468920.000000, 2575.000000, 8150.500000, 8141.000000, 8146.500000
2890, 113469080.000000, 2393.375000, 8095.500000, 8100.000000, 8072.000000
2891, 113469240.000000, 2149.250000, 8182.500000, 8180.500000, 8169.500000
2892, 113469400.000000, 1874.500000, 8198.500000, 8195.000000, 8186.500000
2893, 113469560.000000, 1626.500000, 8208.500000, 8197.500000, 8191.000000
2894, 113469720.000000, 1437.250000, 8219.000000, 8193.500000, 8191.000000
2895, 113469880.000000, 1320.750000, 8231.500000, 8193.000000, 8198.000000
2896, 113470040.000000, 1274.125000, 8253.500000, 8191.000000, 8205.000000
2897, 113470200.000000, 1283.625000, 8280.500000, 8190.500000, 8214.500000
2898, 113470360.000000, 1332.250000, 8293.000000, 8195.500000, 8225.500000
2899, 113470520.000000, 1382.750000, 8283.000000, 8204.500000, 8232.000000
2900, 113470680.000000, 1407.375000, 8237.500000, 8218.500000, 8230.000000
2901, 113470840.000000, 1392.375000, 8191.000000, 8219.000000, 8216.500000
2902, 113471000.000000, 1352.500000, 8166.500000, 8210.000000, 8199.500000
2903, 113471160.000000, 1297.875000, 8160.000000, 8203.000000, 8190.000000
2904, 113471320.000000, 1236.625000, 8161.500000, 8201.500000, 8187.500000
2905, 113471480.000000, 1173.250000, 8162.500000, 8200.000000, 8186.500000
2906, 113471640.000000, 1109.000000, 8168.000000, 8200.500000, 8191.500000
2907, 113471800.000000, 1051.750000, 8174.500000, 8203.500000, 8196.000000
2908, 113471960.000000, 1001.250000, 8179.000000, 8201.500000, 8196.500000
2909, 113472120.000000, 960.875000, 8176.000000, 8196.500000, 8187.500000
2910, 113472280.000000, 927.125000, 8176.500000, 8196.000000, 8188.000000
2911, 113472440.000000, 895.625000, 8181.500000, 8212.000000, 8217.000000
2912, 113472600.000000, 862.125000, 8189.500000, 8209.500000, 8214.000000
2913, 113472760.000000, 839.500000, 8190.000000, 8201.000000, 8204.500000
2914, 113472920.000000, 888.125000, 8164.500000, 8186.500000, 8168.500000
2915, 113473080.000000, 1081.625000, 8162.000000, 8182.500000, 8163.500000
2916, 113473240.000000, 1456.125000, 8161.000000, 8184.500000, 8165.500000
2917, 113473400.000000, 1927.750000, 8164.500000, 8186.500000, 8169.500000
2918, 113473560.000000, 2381.375000, 8159.500000, 8235.000000, 8225.500000
2919, 113473720.000000, 2728.875000, 8417.500000, 8133.000000, 8211.000000
2920, 113473880.000000, 2925.875000, 8117.500000, 8120.500000, 8115.000000
2921, 113474040.000000, 2978.875000, 8092.000000, 8110.000000, 8085.500000
2922, 113474200.000000, 2895.000000, 8169.500000, 8193.500000, 8181.000000
2923, 113474360.000000, 2714.625000, 8186.000000, 8201.000000, 8192.000000
2924, 113474520.000000, 2469.250000, 8195.000000, 8203.000000, 8196.000000
2925, 113474680.000000, 2197.750000, 8206.500000, 8202.000000, 8197.000000
2926, 113474840.000000, 1947.000000, 8223.000000, 8200.500000, 8205.000000
2927, 113475000.000000, 1753.500000, 8245.500000, 8201.500000, 8214.500000
2928, 113475160.000000, 1636.750000, 8276.000000, 8198.000000, 8222.000000
2929, 113475320.000000, 1592.875000, 8294.000000, 8199.500000, 8231.500000
2930, 113475480.000000, 1614.375000, 8282.500000, 8204.500000, 8233.500000
2931, 113475640.000000, 1672.625000, 8226.500000, 8220.000000, 8232.000000
2932, 113475800.000000, 1741.375000, 8172.000000, 8221.000000, 8213.000000
2933, 113475960.000000, 1791.125000, 8150.000000, 8210.500000, 8195.500000
2934, 113476120.000000, 1806.250000, 8155.000000, 8200.500000, 8185.000000
2935, 113476280.000000, 1785.625000, 8158.000000, 8198.000000, 8183.000000
2936, 113476440.000000, 1730.875000, 8158.500000, 8199.500000, 8187.500000
2937, 113476600.000000, 1658.750000, 8165.500000, 8201.500000, 8193.000000
2938, 113476760.000000, 1580.375000, 8166.500000, 8203.000000, 8195.500000
2939, 113476920.000000, 1510.250000, 8169.000000, 8199.500000, 8194.500000
2940, 113477080.000000, 1453.500000, 8170.000000, 8197.000000, 8191.500000
2941, 113477240.000000, 1407.250000, 8169.000000, 8199.000000, 8193.000000
2942, 113477400.000000, 1361.875000, 8170.000000, 8217.500000, 8225.500000
2943, 113477560.000000, 1311.625000, 8181.000000, 8209.500000, 8214.500000
2944, 113477720.000000, 1270.625000, 8177.500000, 8198.500000, 8198.000000
2945, 113477880.000000, 1287.250000, 8165.000000, 8184.500000, 8171.500000
2946, 113478040.000000, 1457.625000, 8164.500000, 8181.500000, 8166.500000
2947, 113478200.000000, 1795.000000, 8164.000000, 8183.500000, 8170.000000
2948, 113478360.000000, 2247.500000, 8167.000000, 8186.000000, 8175.000000
2949, 113478520.000000, 2689.250000, 8157.500000, 8237.500000, 8229.500000
2950, 113478680.000000, 3028.250000, 8463.000000, 8092.500000, 8189.000000
2951, 113478840.000000, 3220.875000, 8093.000000, 8116.500000, 8107.000000
2952, 113479000.000000, 3255.625000, 8100.500000, 8117.000000, 8101.000000
2953, 113479160.000000, 3167.375000, 8170.500000, 8192.000000, 8183.000000
2954, 113479320.000000, 2977.875000, 8187.500000, 8196.000000, 8189.500000
2955, 113479480.000000, 2723.750000, 8195.500000, 8197.000000, 8194.500000
2956, 113479640.000000, 2440.375000, 8201.000000, 8198.500000, 8198.500000
2957, 113479800.000000, 2182.125000, 8219.500000, 8197.500000, 8207.000000
2958, 113479960.000000, 1980.000000, 8247.000000, 8195.500000, 8215.000000
2959, 113480120.000000, 1851.250000, 8276.500000, 8194.000000, 8223.000000
2960, 113480280.000000, 1788.375000, 8292.000000, 8196.500000, 8230.000000
2961, 113480440.000000, 1766.500000, 8276.000000, 8207.000000, 8238.000000
2962, 113480600.000000, 1768.750000, 8212.000000, 8223.000000, 8232.000000
2963, 113480760.000000, 1771.000000, 8164.500000, 8220.000000, 8213.000000
2964, 113480920.000000, 1760.625000, 8147.000000, 8209.000000, 8194.500000
2965, 113481080.000000, 1732.625000, 8150.000000, 8200.000000, 8185.000000
2966, 113481240.000000, 1689.500000, 8153.500000, 8198.500000, 8185.000000
2967, 113481400.000000, 1632.125000, 8148.000000, 8201.000000, 8187.000000
2968, 113481560.000000, 1562.750000, 8149.000000, 8205.000000, 8192.000000
2969, 113481720.000000, 1490.500000, 8153.000000, 8203.500000, 8192.500000
2970, 113481880.000000, 1421.875000, 8167.000000, 8199.000000, 8192.000000
2971, 113482040.000000, 1357.125000, 8170.500000, 8196.000000, 8190.000000
2972, 113482200.000000, 1300.125000, 8170.500000, 8194.500000, 8188.500000
2973, 113482360.000000, 1248.625000, 8169.500000, 8210.500000, 8214.500000
2974, 113482520.000000, 1201.375000, 8165.500000, 8211.500000, 8213.500000
2975, 113482680.000000, 1173.750000, 8176.000000, 8203.000000, 8203.000000
2976, 113482840.000000, 1233.625000, 8170.500000, 8184.500000, 8174.500000
2977, 113483000.000000, 1442.250000, 8171.000000, 8180.000000, 8169.000000
2978, 113483160.000000, 1825.625000, 8164.000000, 8180.500000, 8167.000000
2979, 113483320.000000, 2279.250000, 8160.500000, 8182.500000, 8167.000000
2980, 113483480.000000, 2693.375000, 8162.500000, 8188.000000, 8176.500000
2981, 113483640.000000, 2991.500000, 8244.000000, 8222.000000, 8237.500000
2982, 113483800.000000, 3150.250000, 8458.500000, 8057.000000, 8170.500000
2983, 113483960.000000, 3170.125000, 8047.000000, 8078.500000, 8042.000000
2984, 113484120.000000, 3070.750000, 8143.500000, 8166.500000, 8156.500000
2985, 113484280.000000, 2884.625000, 8171.500000, 8197.500000, 8186.000000
2986, 113484440.000000, 2633.875000, 8187.000000, 8197.500000, 8190.500000
2987, 113484600.000000, 2366.250000, 8198.000000, 8199.500000, 8197.000000
2988, 113484760.000000, 2122.000000, 8214.500000, 8198.500000, 8203.500000
2989, 113484920.000000, 1931.375000, 8238.000000, 8194.500000, 8208.000000
2990, 113485080.000000, 1810.625000, 8267.500000, 8192.500000, 8217.500000
2991, 113485240.000000, 1752.000000, 8280.500000, 8195.500000, 8226.500000
2992, 113485400.000000, 1742.500000, 8286.500000, 8200.500000, 8234.500000
2993, 113485560.000000, 1756.250000, 8248.000000, 8216.000000, 8237.500000
2994, 113485720.000000, 1763.000000, 8193.000000, 8220.500000, 8223.000000
2995, 113485880.000000, 1750.250000, 8160.500000, 8210.500000, 8200.000000
2996, 113486040.000000, 1709.750000, 8147.500000, 8204.000000, 8189.500000
2997, 113486200.000000, 1644.625000, 8153.000000, 8200.500000, 8187.500000
2998, 113486360.000000, 1566.625000, 8158.000000, 8198.500000, 8188.000000
2999, 113486520.000000, 1484.125000, 8156.500000, 8198.500000, 8186.000000
3000, 113486680.000000, 1402.375000, 8157.000000, 8200.000000, 8188.000000
3001, 113486840.000000, 1327.625000, 8159.500000, 8200.500000, 8190.500000
3002, 113487000.000000, 1262.750000, 8164.000000, 8201.000000, 8192.000000
3003, 113487160.000000, 1213.250000, 8172.500000, 8195.500000, 8190.000000
3004, 113487320.000000, 1171.375000, 8173.500000, 8191.000000, 8185.000000
3005, 113487480.000000, 1134.750000, 8167.000000, 8190.000000, 8181.000000
3006, 113487640.000000, 1105.750000, 8159.500000, 8196.000000, 8184.500000
3007, 113487800.000000, 1114.375000, 8167.000000, 8211.500000, 8217.500000
3008, 113487960.000000, 1247.750000, 8185.000000, 8201.500000, 8206.000000
3009, 113488120.000000, 1545.000000, 8189.000000, 8191.000000, 8195.000000
3010, 113488280.000000, 1978.375000, 8166.000000, 8180.000000, 8166.000000
3011, 113488440.000000, 2424.750000, 8162.500000, 8181.500000, 8166.000000
3012, 113488600.000000, 2791.000000, 8163.000000, 8185.000000, 8172.000000
3013, 113488760.000000, 3023.875000, 8164.500000, 8184.500000, 8171.500000
3014, 113488920.000000, 3117.500000, 8155.500000, 8219.000000, 8208.000000
3015, 113489080.000000, 3077.875000, 8387.000000, 8140.500000, 8208.500000
3016, 113489240.000000, 2929.375000, 8185.000000, 8109.000000, 8131.500000
3017, 113489400.000000, 2706.250000, 8075.000000, 8103.000000, 8075.500000
3018, 113489560.000000, 2436.750000, 8162.500000, 8190.500000, 8178.500000
3019, 113489720.000000, 2175.375000, 8187.500000, 8196.500000, 8190.000000
3020, 113489880.000000, 1962.375000, 8195.500000, 8196.000000, 8189.500000
3021, 113490040.000000, 1817.000000, 8200.000000, 8200.500000, 8200.500000
3022, 113490200.000000, 1735.875000, 8217.000000, 8200.000000, 8206.000000
3023, 113490360.000000, 1705.750000, 8243.500000, 8198.000000, 8214.000000
3024, 113490520.000000, 1708.250000, 8272.000000, 8193.500000, 8220.000000
3025, 113490680.000000, 1724.250000, 8290.500000, 8194.500000, 8228.000000
3026, 113490840.000000, 1730.250000, 8279.000000, 8203.500000, 8234.500000
3027, 113491000.000000, 1711.500000, 8228.000000, 8222.000000, 8236.000000
3028, 113491160.000000, 1666.750000, 8177.500000, 8223.000000, 8220.500000
3029, 113491320.000000, 1604.375000, 8156.500000, 8210.000000, 8197.500000
3030, 113491480.000000, 1531.750000, 8159.000000, 8200.500000, 8188.000000
3031, 113491640.000000, 1457.625000, 8159.500000, 8200.000000, 8188.500000
3032, 113491800.000000, 1387.625000, 8154.500000, 8203.500000, 8191.000000
3033, 113491960.000000, 1327.875000, 8156.500000, 8205.000000, 8194.500000
3034, 113492120.000000, 1277.250000, 8161.000000, 8203.500000, 8192.500000
3035, 113492280.000000, 1236.875000, 8168.500000, 8201.000000, 8194.500000
3036, 113492440.000000, 1205.500000, 8170.500000, 8198.500000, 8192.500000
3037, 113492600.000000, 1176.375000, 8172.000000, 8197.000000, 8191.000000
3038, 113492760.000000, 1147.500000, 8167.000000, 8197.000000, 8189.500000
3039, 113492920.000000, 1115.625000, 8160.000000, 8195.500000, 8183.500000
3040, 113493080.000000, 1095.375000, 8160.500000, 8193.000000, 8179.500000
3041, 113493240.000000, 1135.000000, 8169.000000, 8190.500000, 8182.500000
3042, 113493400.000000, 1335.125000, 8175.000000, 8190.500000, 8184.500000
3043, 113493560.000000, 1699.000000, 8172.000000, 8197.000000, 8194.000000
3044, 113493720.000000, 2163.500000, 8169.000000, 8205.000000, 8206.000000
3045, 113493880.000000, 2596.875000, 8185.000000, 8200.000000, 8202.000000
3046, 113494040.000000, 2922.000000, 8184.000000, 8188.000000, 8186.000000
3047, 113494200.000000, 3101.375000, 8170.000000, 8182.500000, 8171.500000
3048, 113494360.000000, 3136.000000, 8166.000000, 8184.500000, 8172.500000
3049, 113494520.000000, 3051.125000, 8163.500000, 8183.500000, 8169.000000
3050, 113494680.000000, 2868.000000, 8170.500000, 8184.000000, 8174.000000
3051, 113494840.000000, 2622.250000, 8169.500000, 8241.000000, 8237.500000
3052, 113495000.000000, 2347.125000, 8520.500000, 8060.500000, 8185.500000
3053, 113495160.000000, 2095.750000, 8075.500000, 8117.500000, 8102.500000
3054, 113495320.000000, 1903.125000, 8120.000000, 8132.500000, 8122.500000
3055, 113495480.000000, 1781.000000, 8176.000000, 8191.500000, 8183.000000
3056, 113495640.000000, 1724.875000, 8190.500000, 8195.500000, 8190.000000
3057, 113495800.000000, 1712.000000, 8199.500000, 8199.500000, 8196.000000
3058, 113495960.000000, 1724.625000, 8207.000000, 8199.500000, 8199.500000
3059, 113496120.000000, 1739.500000, 8227.000000, 8195.500000, 8202.000000
3060, 113496280.000000, 1736.750000, 8253.500000, 8193.500000, 8212.500000
3061, 113496440.000000, 1708.000000, 8276.500000, 8193.500000, 8222.500000
3062, 113496600.000000, 1653.875000, 8292.000000, 8198.500000, 8232.500000
3063, 113496760.000000, 1582.750000, 8274.500000, 8207.000000, 8236.000000
3064, 113496920.000000, 1504.375000, 8223.000000, 8219.500000, 8230.500000
3065, 113497080.000000, 1430.625000, 8175.500000, 8216.500000, 8212.500000
3066, 113497240.000000, 1362.250000, 8157.000000, 8207.000000, 8195.000000
3067, 113497400.000000, 1300.875000, 8161.000000, 8199.000000, 8188.000000
3068, 113497560.000000, 1248.250000, 8157.000000, 8200.500000, 8186.500000
3069, 113497720.000000, 1207.875000, 8151.500000, 8201.500000, 8186.000000
3070, 113497880.000000, 1179.625000, 8155.500000, 8203.000000, 8192.000000
3071, 113498040.000000, 1159.875000, 8165.500000, 8202.500000, 8194.000000
3072, 113498200.000000, 1148.875000, 8176.000000, 8199.500000, 8196.000000
3073, 113498360.000000, 1142.375000, 8172.500000, 8197.000000, 8191.500000
3074, 113498520.000000, 1132.125000, 8170.500000, 8196.000000, 8189.000000
3075, 113498680.000000, 1112.375000, 8165.000000, 8194.000000, 8183.500000
3076, 113498840.000000, 1080.375000, 8164.000000, 8194.000000, 8185.000000
3077, 113499000.000000, 1058.375000, 8166.000000, 8193.000000, 8183.000000
3078, 113499160.000000, 1119.250000, 8173.000000, 8193.000000, 8186.000000
3079, 113499320.000000, 1349.500000, 8180.500000, 8204.500000, 8213.000000
3080, 113499480.000000, 1751.500000, 8187.500000, 8199.000000, 8202.000000
3081, 113499640.000000, 2228.250000, 8186.000000, 8192.000000, 8194.000000
3082, 113499800.000000, 2653.250000, 8165.000000, 8187.000000, 8174.000000
3083, 113499960.000000, 2963.375000, 8168.000000, 8182.500000, 8169.500000
3084, 113500120.000000, 3124.375000, 8170.500000, 8181.500000, 8169.500000
3085, 113500280.000000, 3139.750000, 8172.000000, 8183.000000, 8173.000000
3086, 113500440.000000, 3034.250000, 8162.000000, 8220.500000, 8213.000000
3087, 113500600.000000, 2836.125000, 8394.000000, 8147.500000, 8220.000000
3088, 113500760.000000, 2579.750000, 8184.000000, 8126.000000, 8151.500000
3089, 113500920.000000, 2303.750000, 8081.500000, 8102.500000, 8078.000000
3090, 113501080.000000, 2056.000000, 8170.500000, 8187.000000, 8180.000000
3091, 113501240.000000, 1870.750000, 8190.000000, 8196.500000, 8190.500000
3092, 113501400.000000, 1760.125000, 8199.000000, 8198.500000, 8194.500000
3093, 113501560.000000, 1714.250000, 8204.500000, 8200.500000, 8199.000000
3094, 113501720.000000, 1709.875000, 8218.000000, 8194.500000, 8198.500000
3095, 113501880.000000, 1729.000000, 8245.000000, 8193.000000, 8205.500000
3096, 113502040.000000, 1740.375000, 8269.000000, 8192.500000, 8213.000000
3097, 113502200.000000, 1732.875000, 8284.000000, 8194.000000, 8222.000000
3098, 113502360.000000, 1695.875000, 8273.000000, 8201.000000, 8223.000000
3099, 113502520.000000, 1640.125000, 8221.500000, 8212.000000, 8215.500000
3100, 113502680.000000, 1573.125000, 8174.500000, 8211.000000, 8196.000000
3101, 113502840.000000, 1499.750000, 8146.500000, 8202.000000, 8175.000000
3102, 113503000.000000, 1426.750000, 8142.000000, 8193.000000, 8163.000000
3103, 113503160.000000, 1355.375000, 8141.000000, 8190.000000, 8157.000000
3104, 113503320.000000, 1292.375000, 8135.000000, 8186.500000, 8149.500000
3105, 113503480.000000, 1240.375000, 8138.000000, 8185.000000, 8148.000000
3106, 113503640.000000, 1198.750000, 8143.000000, 8185.000000, 8148.000000
3107, 113503800.000000, 1168.375000, 8147.000000, 8181.000000, 8144.000000
3108, 113503960.000000, 1146.000000, 8147.500000, 8174.000000, 8133.500000
3109, 113504120.000000, 1126.000000, 8146.000000, 8167.500000, 8122.500000
3110, 113504280.000000, 1102.250000, 8136.000000, 8167.000000, 8117.000000
3111, 113504440.000000, 1075.375000, 8134.000000, 8164.500000, 8111.500000
3112, 113504600.000000, 1047.625000, 8141.000000, 8160.000000, 8109.000000
3113, 113504760.000000, 1042.250000, 8146.500000, 8154.500000, 8102.500000
3114, 113504920.000000, 1136.750000, 8139.000000, 8153.000000, 8096.000000
3115, 113505080.000000, 1384.250000, 8136.000000, 8166.000000, 8118.000000
3116, 113505240.000000, 1777.875000, 8143.500000, 8165.500000, 8116.500000
3117, 113505400.000000, 2204.125000, 8156.000000, 8156.500000, 8109.500000
3118, 113505560.000000, 2570.375000, 8139.000000, 8143.000000, 8082.000000
3119, 113505720.000000, 2822.375000, 8132.000000, 8139.500000, 8074.500000
3120, 113505880.000000, 2942.375000, 8125.500000, 8139.500000, 8071.500000
3121, 113506040.000000, 2936.500000, 8127.500000, 8141.500000, 8076.000000
3122, 113506200.000000, 2815.250000, 8131.000000, 8152.000000, 8092.500000
3123, 113506360.000000, 2615.375000, 8269.500000, 8155.000000, 8141.000000
3124, 113506520.000000, 2364.625000, 8304.500000, 8058.500000, 8084.500000
3125, 113506680.000000, 2106.625000, 8013.000000, 8046.000000, 7962.000000
3126, 113506840.000000, 1881.125000, 8113.000000, 8132.500000, 8075.500000
3127, 113507000.000000, 1718.000000, 8145.500000, 8152.000000, 8100.000000
3128, 113507160.000000, 1626.375000, 8158.000000, 8151.500000, 8102.500000
3129, 113507320.000000, 1589.875000, 8164.000000, 8153.000000, 8110.000000
3130, 113507480.000000, 1595.625000, 8175.500000, 8154.500000, 8117.000000
3131, 113507640.000000, 1616.875000, 8196.500000, 8153.500000, 8127.500000
3132, 113507800.000000, 1628.750000, 8224.500000, 8153.500000, 8139.500000
3133, 113507960.000000, 1625.500000, 8246.000000, 8154.000000, 8149.500000
3134, 113508120.000000, 1599.375000, 8245.500000, 8158.500000, 8157.500000
3135, 113508280.000000, 1554.500000, 8204.500000, 8175.000000, 8163.500000
3136, 113508440.000000, 1495.250000, 8150.000000, 8183.500000, 8156.000000
3137, 113508600.000000, 1425.750000, 8116.500000, 8179.500000, 8142.500000
3138, 113508760.000000, 1352.500000, 8114.000000, 8169.000000, 8132.000000
3139, 113508920.000000, 1285.250000, 8119.000000, 8165.000000, 8130.000000
3140, 113509080.000000, 1228.500000, 8117.500000, 8168.500000, 8137.000000
3141, 113509240.000000, 1186.750000, 8118.500000, 8172.500000, 8144.000000
3142, 113509400.000000, 1156.250000, 8125.500000, 8175.000000, 8152.000000
3143, 113509560.000000, 1134.000000, 8133.000000, 8172.500000, 8154.500000
3144, 113509720.000000, 1116.750000, 8136.000000, 8172.000000, 8155.000000
3145, 113509880.000000, 1103.625000, 8139.000000, 8169.500000, 8153.500000
3146, 113510040.000000, 1089.750000, 8133.000000, 8169.500000, 8152.500000
3147, 113510200.000000, 1072.000000, 8131.000000, 8170.000000, 8151.000000
3148, 113510360.000000, 1048.250000, 8134.000000, 8166.000000, 8147.000000
3149, 113510520.000000, 1035.125000, 8138.500000, 8163.500000, 8146.000000
3150, 113510680.000000, 1093.375000, 8143.500000, 8170.500000, 8157.500000
3151, 113510840.000000, 1305.625000, 8144.500000, 8178.500000, 8174.000000
3152, 113511000.000000, 1681.625000, 8159.500000, 8176.500000, 8173.000000
3153, 113511160.000000, 2131.375000, 8150.500000, 8161.500000, 8149.000000
3154, 113511320.000000, 2534.250000, 8141.000000, 8154.500000, 8133.500000
3155, 113511480.000000, 2827.125000, 8143.000000, 8154.500000, 8133.500000
3156, 113511640.000000, 2979.625000, 8144.000000, 8157.000000, 8138.000000
3157, 113511800.000000, 2997.375000, 8144.000000, 8160.000000, 8143.000000
3158, 113511960.000000, 2903.125000, 8143.500000, 8215.500000, 8205.500000
3159, 113512120.000000, 2719.375000, 8517.000000, 8035.000000, 8161.000000
3160, 113512280.000000, 2475.500000, 8055.000000, 8107.000000, 8093.000000
3161, 113512440.000000, 2205.375000, 8107.000000, 8116.500000, 8111.500000
3162, 113512600.000000, 1962.750000, 8159.000000, 8174.500000, 8170.000000
3163, 113512760.000000, 1778.875000, 8173.000000, 8175.500000, 8175.500000
3164, 113512920.000000, 1666.750000, 8188.000000, 8175.000000, 8179.500000
3165, 113513080.000000, 1621.250000, 8204.000000, 8175.500000, 8187.500000
3166, 113513240.000000, 1622.000000, 8221.000000, 8174.500000, 8194.500000
3167, 113513400.000000, 1647.625000, 8246.000000, 8173.000000, 8203.000000
3168, 113513560.000000, 1668.875000, 8266.500000, 8172.000000, 8209.500000
3169, 113513720.000000, 1671.250000, 8281.000000, 8173.000000, 8215.000000
3170, 113513880.000000, 1646.375000, 8267.000000, 8181.000000, 8218.000000
3171, 113514040.000000, 1601.625000, 8215.000000, 8194.500000, 8215.500000
3172, 113514200.000000, 1544.250000, 8170.500000, 8192.500000, 8195.000000
3173, 113514360.000000, 1474.625000, 8151.000000, 8182.000000, 8176.000000
3174, 113514520.000000, 1401.125000, 8156.000000, 8173.000000, 8166.000000
3175, 113514680.000000, 1333.250000, 8157.000000, 8174.500000, 8166.500000
3176, 113514840.000000, 1264.500000, 8153.500000, 8177.500000, 8167.000000
3177, 113515000.000000, 1208.125000, 8157.000000, 8179.000000, 8169.000000
3178, 113515160.000000, 1171.125000, 8161.000000, 8176.500000, 8167.000000
3179, 113515320.000000, 1141.375000, 8166.000000, 8174.500000, 8164.500000
3180, 113515480.000000, 1114.750000, 8174.000000, 8170.500000, 8161.500000
3181, 113515640.000000, 1092.750000, 8178.000000, 8170.500000, 8161.500000
3182, 113515800.000000, 1067.875000, 8167.500000, 8173.500000, 8159.500000
3183, 113515960.000000, 1039.875000, 8160.500000, 8171.500000, 8155.000000
3184, 113516120.000000, 1078.750000, 8162.000000, 8170.000000, 8153.500000
3185, 113516280.000000, 1248.500000, 8163.500000, 8170.500000, 8154.000000
3186, 113516440.000000, 1590.750000, 8162.500000, 8187.000000, 8182.500000
3187, 113516600.000000, 2018.250000, 8164.500000, 8189.000000, 8182.000000
3188, 113516760.000000, 2424.000000, 8174.000000, 8182.000000, 8173.000000
3189, 113516920.000000, 2726.125000, 8154.000000, 8169.000000, 8144.000000
3190, 113517080.000000, 2899.250000, 8150.000000, 8168.500000, 8141.500000
3191, 113517240.000000, 2941.875000, 8153.000000, 8170.000000, 8145.000000
3192, 113517400.000000, 2863.375000, 8155.000000, 8174.000000, 8149.000000
3193, 113517560.000000, 2693.000000, 8143.500000, 8193.500000, 8169.500000
3194, 113517720.000000, 2447.875000, 8305.500000, 8186.500000, 8216.000000
3195, 113517880.000000, 2174.750000, 8271.000000, 8115.500000, 8156.500000
3196, 113518040.000000, 1919.875000, 8050.000000, 8086.000000, 8041.000000
3197, 113518200.000000, 1724.500000, 8152.500000, 8169.500000, 8150.500000
3198, 113518360.000000, 1601.000000, 8173.500000, 8192.500000, 8173.500000
3199, 113518520.000000, 1544.000000, 8183.500000, 8195.000000, 8178.000000
3200, 113518680.000000, 1534.500000, 8197.500000, 8196.000000, 8185.000000
3201, 113518840.000000, 1551.000000, 8217.000000, 8196.500000, 8196.000000
3202, 113519000.000000, 1569.250000, 8238.500000, 8196.500000, 8203.500000
3203, 113519160.000000, 1574.250000, 8266.500000, 8193.500000, 8211.500000
3204, 113519320.000000, 1556.500000, 8286.000000, 8196.000000, 8221.500000
3205, 113519480.000000, 1515.500000, 8288.000000, 8204.000000, 8232.000000
3206, 113519640.000000, 1457.250000, 8254.500000, 8220.500000, 8240.500000
3207, 113519800.000000, 1388.625000, 8207.000000, 8224.500000, 8229.500000
3208, 113519960.000000, 1314.750000, 8180.000000, 8214.000000, 8209.500000
3209, 113520120.000000, 1242.500000, 8172.000000, 8205.000000, 8197.000000
3210, 113520280.000000, 1174.625000, 8176.000000, 8203.500000, 8196.500000
3211, 113520440.000000, 1116.750000, 8177.000000, 8206.500000, 8200.000000
3212, 113520600.000000, 1067.250000, 8185.500000, 8205.000000, 8205.500000
3213, 113520760.000000, 1029.625000, 8191.500000, 8204.500000, 8208.000000
3214, 113520920.000000, 1003.000000, 8198.000000, 8202.000000, 8207.000000
3215, 113521080.000000, 987.625000, 8203.500000, 8203.000000, 8212.500000
3216, 113521240.000000, 972.000000, 8202.000000, 8202.500000, 8212.500000
3217, 113521400.000000, 947.375000, 8203.000000, 8201.500000, 8211.000000
3218, 113521560.000000, 915.125000, 8201.500000, 8202.500000, 8210.000000
3219, 113521720.000000, 899.750000, 8202.500000, 8211.000000, 8228.000000
3220, 113521880.000000, 970.875000, 8208.500000, 8215.500000, 8237.500000
3221, 113522040.000000, 1212.625000, 8229.000000, 8213.000000, 8237.000000
3222, 113522200.000000, 1604.750000, 8210.500000, 8197.000000, 8210.000000
3223, 113522360.000000, 2054.625000, 8199.000000, 8192.000000, 8197.500000
3224, 113522520.000000, 2443.125000, 8203.500000, 8192.000000, 8198.500000
3225, 113522680.000000, 2716.750000, 8202.500000, 8193.000000, 8202.000000
3226, 113522840.000000, 2852.500000, 8206.000000, 8198.500000, 8210.500000
3227, 113523000.000000, 2865.750000, 8272.500000, 8241.500000, 8278.000000
3228, 113523160.000000, 2767.875000, 8454.500000, 8092.000000, 8208.000000
3229, 113523320.000000, 2582.625000, 8075.500000, 8107.000000, 8097.000000
3230, 113523480.000000, 2336.125000, 8170.000000, 8168.500000, 8179.000000
3231, 113523640.000000, 2061.625000, 8199.500000, 8208.500000, 8219.500000
3232, 113523800.000000, 1815.375000, 8207.500000, 8213.500000, 8227.000000
3233, 113523960.000000, 1630.750000, 8211.500000, 8212.500000, 8226.500000
3234, 113524120.000000, 1530.625000, 8225.000000, 8214.000000, 8233.000000
3235, 113524280.000000, 1502.125000, 8249.000000, 8211.000000, 8239.000000
3236, 113524440.000000, 1524.625000, 8278.500000, 8208.000000, 8247.000000
3237, 113524600.000000, 1564.875000, 8308.000000, 8208.500000, 8259.000000
3238, 113524760.000000, 1599.375000, 8307.000000, 8214.000000, 8265.500000
3239, 113524920.000000, 1612.750000, 8283.000000, 8227.000000, 8271.500000
3240, 113525080.000000, 1596.500000, 8234.500000, 8234.000000, 8264.000000
3241, 113525240.000000, 1555.500000, 8204.000000, 8224.500000, 8244.500000
3242, 113525400.000000, 1497.625000, 8192.500000, 8215.000000, 8230.500000
3243, 113525560.000000, 1432.375000, 8190.500000, 8210.500000, 8223.500000
3244, 113525720.000000, 1368.625000, 8193.500000, 8211.500000, 8225.500000
3245, 113525880.000000, 1308.000000, 8199.000000, 8212.000000, 8228.000000
3246, 113526040.000000, 1252.500000, 8204.000000, 8214.000000, 8232.000000
3247, 113526200.000000, 1207.125000, 8208.000000, 8212.500000, 8230.500000
3248, 113526360.000000, 1168.750000, 8209.000000, 8208.000000, 8230.000000
3249, 113526520.000000, 1136.500000, 8209.000000, 8207.000000, 8227.000000
3250, 113526680.000000, 1106.125000, 8207.500000, 8206.500000, 8226.000000
3251, 113526840.000000, 1071.750000, 8209.500000, 8214.500000, 8240.000000
3252, 113527000.000000, 1040.000000, 8212.500000, 8224.000000, 8256.500000
3253, 113527160.000000, 1052.125000, 8224.500000, 8218.000000, 8248.500000
3254, 113527320.000000, 1173.000000, 8214.500000, 8202.500000, 8225.500000
3255, 113527480.000000, 1462.000000, 8198.000000, 8195.500000, 8206.500000
3256, 113527640.000000, 1870.250000, 8201.500000, 8196.000000, 8208.500000
3257, 113527800.000000, 2289.125000, 8201.500000, 8196.000000, 8207.500000
3258, 113527960.000000, 2617.875000, 8201.500000, 8198.000000, 8209.500000
3259, 113528120.000000, 2827.125000, 8219.000000, 8258.000000, 8283.000000
3260, 113528280.000000, 2911.375000, 8530.000000, 8066.500000, 8208.000000
3261, 113528440.000000, 2881.500000, 8073.500000, 8110.500000, 8104.500000
3262, 113528600.000000, 2748.875000, 8166.500000, 8161.000000, 8177.000000
3263, 113528760.000000, 2531.875000, 8208.000000, 8209.000000, 8223.000000
3264, 113528920.000000, 2265.375000, 8219.000000, 8212.500000, 8227.500000
3265, 113529080.000000, 1995.000000, 8225.000000, 8213.500000, 8232.500000
3266, 113529240.000000, 1776.625000, 8236.000000, 8215.500000, 8239.500000
3267, 113529400.000000, 1633.500000, 8251.000000, 8214.000000, 8242.500000
3268, 113529560.000000, 1576.375000, 8272.000000, 8213.500000, 8250.000000
3269, 113529720.000000, 1581.875000, 8294.000000, 8214.000000, 8258.000000
3270, 113529880.000000, 1623.125000, 8300.000000, 8220.000000, 8268.000000
3271, 113530040.000000, 1668.000000, 8277.500000, 8232.000000, 8275.000000
3272, 113530200.000000, 1693.500000, 8227.500000, 8239.500000, 8266.000000
3273, 113530360.000000, 1692.500000, 8188.000000, 8229.000000, 8241.500000
3274, 113530520.000000, 1666.375000, 8174.500000, 8219.500000, 8225.000000
3275, 113530680.000000, 1622.500000, 8174.500000, 8215.500000, 8221.000000
3276, 113530840.000000, 1567.375000, 8175.500000, 8218.000000, 8225.000000
3277, 113531000.000000, 1508.000000, 8178.500000, 8216.500000, 8224.500000
