1325, 108753136.000000, 2328.750000, 8199.000000, 8194.000000, 8188.000000
1326, 108753296.000000, 2178.750000, 8205.000000, 8196.000000, 8192.000000
1327, 108753456.000000, 2039.500000, 8220.000000, 8198.000000, 8200.000000
1328, 108753616.000000, 1938.500000, 8238.000000, 8201.000000, 8211.000000
1329, 108753776.000000, 1877.750000, 8259.000000, 8202.000000, 8220.000000
1330, 108753936.000000, 1842.250000, 8276.000000, 8206.000000, 8229.000000
1331, 108754096.000000, 1813.750000, 8282.000000, 8211.000000, 8238.000000
1332, 108754256.000000, 1788.500000, 8255.000000, 8223.000000, 8246.000000
1333, 108754416.000000, 1764.250000, 8204.000000, 8228.000000, 8235.000000
1334, 108754576.000000, 1747.000000, 8173.000000, 8215.000000, 8206.000000
1335, 108754736.000000, 1739.750000, 8163.000000, 8205.000000, 8189.000000
1336, 108754896.000000, 1724.500000, 8162.000000, 8204.000000, 8191.000000
1337, 108755056.000000, 1671.000000, 8167.000000, 8207.000000, 8194.000000
1338, 108755216.000000, 1576.500000, 8169.000000, 8209.000000, 8199.000000
1339, 108755376.000000, 1462.000000, 8167.000000, 8212.000000, 8201.000000
1340, 108755536.000000, 1379.000000, 8175.000000, 8209.000000, 8199.000000
1341, 108755696.000000, 1349.000000, 8184.000000, 8208.000000, 8202.000000
1342, 108755856.000000, 1349.500000, 8182.000000, 8209.000000, 8202.000000
1343, 108756016.000000, 1342.250000, 8189.000000, 8224.000000, 8231.000000
1344, 108756176.000000, 1301.500000, 8194.000000, 8217.000000, 8221.000000
1345, 108756336.000000, 1243.750000, 8192.000000, 8206.000000, 8207.000000
1346, 108756496.000000, 1218.000000, 8175.000000, 8192.000000, 8180.000000
1347, 108756656.000000, 1312.250000, 8178.000000, 8187.000000, 8175.000000
1348, 108756816.000000, 1556.000000, 8178.000000, 8187.000000, 8175.000000
1349, 108756976.000000, 1901.250000, 8173.000000, 8190.000000, 8177.000000
1350, 108757136.000000, 2259.500000, 8174.000000, 8253.000000, 8246.000000
1351, 108757296.000000, 2563.000000, 8467.000000, 8064.000000, 8168.000000
1352, 108757456.000000, 2783.000000, 8060.000000, 8110.000000, 8087.000000
1353, 108757616.000000, 2890.250000, 8138.000000, 8138.000000, 8127.000000
1354, 108757776.000000, 2875.500000, 8185.000000, 8200.000000, 8191.000000
1355, 108757936.000000, 2740.250000, 8190.000000, 8206.000000, 8196.000000
1356, 108758096.000000, 2518.500000, 8200.000000, 8210.000000, 8205.000000
1357, 108758256.000000, 2260.000000, 8219.000000, 8209.000000, 8212.000000
1358, 108758416.000000, 2013.000000, 8231.000000, 8211.000000, 8220.000000
1359, 108758576.000000, 1801.250000, 8246.000000, 8215.000000, 8228.000000
1360, 108758736.000000, 1635.250000, 8270.000000, 8216.000000, 8237.000000
1361, 108758896.000000, 1518.500000, 8279.000000, 8222.000000, 8247.000000
1362, 108759056.000000, 1454.500000, 8250.000000, 8235.000000, 8255.000000
1363, 108759216.000000, 1433.000000, 8202.000000, 8241.000000, 8247.000000
1364, 108759376.000000, 1429.000000, 8172.000000, 8223.000000, 8215.000000
1365, 108759536.000000, 1425.000000, 8167.000000, 8207.000000, 8196.000000
1366, 108759696.000000, 1406.750000, 8170.000000, 8204.000000, 8193.000000
1367, 108759856.000000, 1383.250000, 8172.000000, 8205.000000, 8197.000000
1368, 108760016.000000, 1371.500000, 8172.000000, 8205.000000, 8195.000000
1369, 108760176.000000, 1366.500000, 8170.000000, 8208.000000, 8199.000000
1370, 108760336.000000, 1355.750000, 8176.000000, 8205.000000, 8196.000000
1371, 108760496.000000, 1328.250000, 8180.000000, 8203.000000, 8194.000000
1372, 108760656.000000, 1293.500000, 8193.000000, 8214.000000, 8224.000000
1373, 108760816.000000, 1262.500000, 8204.000000, 8213.000000, 8226.000000
1374, 108760976.000000, 1245.000000, 8207.000000, 8204.000000, 8215.000000
1375, 108761136.000000, 1233.250000, 8176.000000, 8190.000000, 8181.000000
1376, 108761296.000000, 1228.000000, 8170.000000, 8184.000000, 8173.000000
1377, 108761456.000000, 1293.000000, 8179.000000, 8184.000000, 8173.000000
1378, 108761616.000000, 1485.250000, 8181.000000, 8186.000000, 8178.000000
1379, 108761776.000000, 1800.750000, 8180.000000, 8242.000000, 8245.000000
1380, 108761936.000000, 2148.000000, 8419.000000, 8100.000000, 8188.000000
1381, 108762096.000000, 2455.000000, 8078.000000, 8101.000000, 8088.000000
1382, 108762256.000000, 2678.500000, 8126.000000, 8118.000000, 8105.000000
1383, 108762416.000000, 2810.500000, 8191.000000, 8196.000000, 8196.000000
1384, 108762576.000000, 2839.000000, 8198.000000, 8204.000000, 8203.000000
1385, 108762736.000000, 2773.500000, 8203.000000, 8206.000000, 8206.000000
1386, 108762896.000000, 2647.250000, 8215.000000, 8204.000000, 8208.000000
1387, 108763056.000000, 2472.750000, 8220.000000, 8207.000000, 8215.000000
1388, 108763216.000000, 2266.000000, 8242.000000, 8210.000000, 8224.000000
1389, 108763376.000000, 2050.750000, 8263.000000, 8212.000000, 8232.000000
1390, 108763536.000000, 1867.500000, 8268.000000, 8216.000000, 8238.000000
1391, 108763696.000000, 1742.500000, 8249.000000, 8228.000000, 8249.000000
1392, 108763856.000000, 1682.000000, 8203.000000, 8233.000000, 8243.000000
1393, 108764016.000000, 1661.500000, 8171.000000, 8219.000000, 8214.000000
1394, 108764176.000000, 1648.000000, 8161.000000, 8204.000000, 8195.000000
1395, 108764336.000000, 1626.250000, 8166.000000, 8197.000000, 8187.000000
1396, 108764496.000000, 1601.250000, 8162.000000, 8200.000000, 8189.000000
1397, 108764656.000000, 1572.250000, 8164.000000, 8199.000000, 8190.000000
1398, 108764816.000000, 1533.000000, 8172.000000, 8200.000000, 8196.000000
1399, 108764976.000000, 1487.250000, 8174.000000, 8198.000000, 8195.000000
1400, 108765136.000000, 1431.750000, 8170.000000, 8198.000000, 8189.000000
1401, 108765296.000000, 1365.000000, 8187.000000, 8205.000000, 8209.000000
1402, 108765456.000000, 1301.500000, 8192.000000, 8211.000000, 8220.000000
1403, 108765616.000000, 1251.500000, 8198.000000, 8205.000000, 8214.000000
1404, 108765776.000000, 1210.500000, 8178.000000, 8189.000000, 8183.000000
1405, 108765936.000000, 1175.250000, 8169.000000, 8180.000000, 8168.000000
1406, 108766096.000000, 1203.750000, 8169.000000, 8183.000000, 8167.000000
1407, 108766256.000000, 1350.250000, 8169.000000, 8184.000000, 8170.000000
1408, 108766416.000000, 1616.750000, 8164.000000, 8208.000000, 8197.000000
1409, 108766576.000000, 1932.250000, 8299.000000, 8192.000000, 8230.000000
1410, 108766736.000000, 2229.000000, 8188.000000, 8096.000000, 8116.000000
1411, 108766896.000000, 2464.000000, 8078.000000, 8079.000000, 8044.000000
1412, 108767056.000000, 2620.000000, 8177.000000, 8178.000000, 8169.000000
1413, 108767216.000000, 2689.500000, 8186.000000, 8205.000000, 8194.000000
1414, 108767376.000000, 2673.750000, 8188.000000, 8209.000000, 8200.000000
1415, 108767536.000000, 2589.500000, 8205.000000, 8205.000000, 8201.000000
1416, 108767696.000000, 2443.500000, 8216.000000, 8206.000000, 8207.000000
1417, 108767856.000000, 2260.750000, 8226.000000, 8210.000000, 8214.000000
1418, 108768016.000000, 2082.000000, 8249.000000, 8213.000000, 8226.000000
1419, 108768176.000000, 1937.000000, 8261.000000, 8219.000000, 8238.000000
1420, 108768336.000000, 1838.500000, 8247.000000, 8232.000000, 8246.000000
1421, 108768496.000000, 1787.750000, 8208.000000, 8243.000000, 8247.000000
1422, 108768656.000000, 1764.750000, 8173.000000, 8227.000000, 8220.000000
1423, 108768816.000000, 1760.750000, 8160.000000, 8211.000000, 8197.000000
1424, 108768976.000000, 1770.750000, 8162.000000, 8203.000000, 8190.000000
1425, 108769136.000000, 1773.250000, 8160.000000, 8202.000000, 8190.000000
1426, 108769296.000000, 1764.000000, 8160.000000, 8200.000000, 8188.000000
1427, 108769456.000000, 1739.000000, 8170.000000, 8201.000000, 8192.000000
1428, 108769616.000000, 1706.250000, 8177.000000, 8204.000000, 8199.000000
1429, 108769776.000000, 1668.000000, 8177.000000, 8200.000000, 8195.000000
1430, 108769936.000000, 1624.500000, 8177.000000, 8203.000000, 8198.000000
1431, 108770096.000000, 1578.750000, 8185.000000, 8215.000000, 8223.000000
1432, 108770256.000000, 1530.500000, 8194.000000, 8208.000000, 8218.000000
1433, 108770416.000000, 1470.500000, 8187.000000, 8202.000000, 8204.000000
1434, 108770576.000000, 1410.250000, 8169.000000, 8188.000000, 8174.000000
1435, 108770736.000000, 1401.750000, 8171.000000, 8181.000000, 8166.000000
1436, 108770896.000000, 1511.000000, 8171.000000, 8182.000000, 8167.000000
1437, 108771056.000000, 1752.000000, 8172.000000, 8184.000000, 8170.000000
1438, 108771216.000000, 2051.750000, 8179.000000, 8254.000000, 8256.000000
1439, 108771376.000000, 2328.750000, 8445.000000, 8053.000000, 8153.000000
1440, 108771536.000000, 2543.000000, 8045.000000, 8052.000000, 8021.000000
1441, 108771696.000000, 2683.750000, 8143.000000, 8145.000000, 8136.000000
1442, 108771856.000000, 2750.750000, 8183.000000, 8199.000000, 8190.000000
1443, 108772016.000000, 2728.250000, 8192.000000, 8202.000000, 8195.000000
1444, 108772176.000000, 2621.750000, 8205.000000, 8202.000000, 8198.000000
1445, 108772336.000000, 2449.250000, 8216.000000, 8200.000000, 8201.000000
1446, 108772496.000000, 2243.500000, 8225.000000, 8205.000000, 8208.000000
1447, 108772656.000000, 2048.250000, 8240.000000, 8208.000000, 8217.000000
1448, 108772816.000000, 1889.500000, 8258.000000, 8214.000000, 8231.000000
1449, 108772976.000000, 1768.750000, 8259.000000, 8221.000000, 8239.000000
1450, 108773136.000000, 1676.250000, 8234.000000, 8231.000000, 8244.000000
1451, 108773296.000000, 1612.250000, 8195.000000, 8230.000000, 8231.000000
1452, 108773456.000000, 1586.250000, 8166.000000, 8214.000000, 8204.000000
1453, 108773616.000000, 1582.000000, 8157.000000, 8206.000000, 8192.000000
1454, 108773776.000000, 1579.000000, 8155.000000, 8201.000000, 8184.000000
1455, 108773936.000000, 1558.250000, 8157.000000, 8200.000000, 8184.000000
1456, 108774096.000000, 1517.000000, 8163.000000, 8200.000000, 8186.000000
1457, 108774256.000000, 1467.000000, 8160.000000, 8204.000000, 8192.000000
1458, 108774416.000000, 1418.500000, 8168.000000, 8206.000000, 8197.000000
1459, 108774576.000000, 1372.750000, 8168.000000, 8203.000000, 8192.000000
1460, 108774736.000000, 1317.250000, 8168.000000, 8199.000000, 8188.000000
1461, 108774896.000000, 1255.500000, 8170.000000, 8203.000000, 8194.000000
1462, 108775056.000000, 1186.250000, 8181.000000, 8216.000000, 8222.000000
1463, 108775216.000000, 1123.500000, 8189.000000, 8206.000000, 8211.000000
1464, 108775376.000000, 1092.750000, 8184.000000, 8195.000000, 8191.000000
1465, 108775536.000000, 1151.250000, 8164.000000, 8182.000000, 8165.000000
1466, 108775696.000000, 1329.750000, 8168.000000, 8179.000000, 8162.000000
1467, 108775856.000000, 1615.500000, 8172.000000, 8182.000000, 8166.000000
1468, 108776016.000000, 1918.500000, 8177.000000, 8186.000000, 8175.000000
1469, 108776176.000000, 2181.250000, 8180.000000, 8252.000000, 8253.000000
1470, 108776336.000000, 2370.250000, 8486.000000, 8038.000000, 8159.000000
1471, 108776496.000000, 2475.500000, 8048.000000, 8045.000000, 8014.000000
1472, 108776656.000000, 2490.500000, 8155.000000, 8158.000000, 8158.000000
1473, 108776816.000000, 2421.000000, 8192.000000, 8204.000000, 8201.000000
1474, 108776976.000000, 2286.500000, 8199.000000, 8207.000000, 8203.000000
1475, 108777136.000000, 2109.750000, 8200.000000, 8208.000000, 8205.000000
1476, 108777296.000000, 1923.750000, 8206.000000, 8208.000000, 8208.000000
1477, 108777456.000000, 1751.250000, 8218.000000, 8209.000000, 8215.000000
1478, 108777616.000000, 1611.750000, 8234.000000, 8209.000000, 8222.000000
1479, 108777776.000000, 1517.500000, 8249.000000, 8213.000000, 8230.000000
1480, 108777936.000000, 1468.250000, 8250.000000, 8218.000000, 8236.000000
1481, 108778096.000000, 1446.000000, 8223.000000, 8225.000000, 8237.000000
1482, 108778256.000000, 1425.500000, 8181.000000, 8226.000000, 8226.000000
1483, 108778416.000000, 1397.750000, 8155.000000, 8214.000000, 8203.000000
1484, 108778576.000000, 1369.250000, 8150.000000, 8205.000000, 8192.000000
1485, 108778736.000000, 1343.500000, 8147.000000, 8199.000000, 8182.000000
1486, 108778896.000000, 1314.500000, 8153.000000, 8199.000000, 8186.000000
1487, 108779056.000000, 1274.500000, 8157.000000, 8201.000000, 8193.000000
1488, 108779216.000000, 1223.500000, 8163.000000, 8202.000000, 8196.000000
1489, 108779376.000000, 1167.500000, 8161.000000, 8202.000000, 8193.000000
1490, 108779536.000000, 1118.750000, 8163.000000, 8202.000000, 8192.000000
1491, 108779696.000000, 1078.750000, 8169.000000, 8196.000000, 8190.000000
1492, 108779856.000000, 1044.750000, 8170.000000, 8195.000000, 8188.000000
1493, 108780016.000000, 1008.250000, 8174.000000, 8208.000000, 8215.000000
1494, 108780176.000000, 965.250000, 8177.000000, 8208.000000, 8213.000000
1495, 108780336.000000, 952.500000, 8190.000000, 8204.000000, 8208.000000
1496, 108780496.000000, 1045.500000, 8167.000000, 8188.000000, 8175.000000
1497, 108780656.000000, 1287.000000, 8158.000000, 8183.000000, 8168.000000
1498, 108780816.000000, 1626.750000, 8167.000000, 8182.000000, 8171.000000
1499, 108780976.000000, 1972.000000, 8163.000000, 8183.000000, 8169.000000
1500, 108781136.000000, 2251.000000, 8157.000000, 8194.000000, 8180.000000
1501, 108781296.000000, 2448.000000, 8277.000000, 8215.000000, 8247.000000
1502, 108781456.000000, 2556.000000, 8287.000000, 8078.000000, 8136.000000
1503, 108781616.000000, 2579.500000, 8069.000000, 8079.000000, 8048.000000
1504, 108781776.000000, 2516.500000, 8166.000000, 8187.000000, 8181.000000
1505, 108781936.000000, 2374.500000, 8180.000000, 8199.000000, 8188.000000
1506, 108782096.000000, 2194.750000, 8186.000000, 8200.000000, 8191.000000
1507, 108782256.000000, 2019.500000, 8194.000000, 8201.000000, 8194.000000
1508, 108782416.000000, 1880.500000, 8210.000000, 8201.000000, 8204.000000
1509, 108782576.000000, 1780.500000, 8226.000000, 8200.000000, 8208.000000
1510, 108782736.000000, 1710.750000, 8243.000000, 8200.000000, 8213.000000
1511, 108782896.000000, 1670.000000, 8253.000000, 8202.000000, 8220.000000
1512, 108783056.000000, 1655.750000, 8246.000000, 8209.000000, 8226.000000
1513, 108783216.000000, 1658.500000, 8215.000000, 8219.000000, 8231.000000
1514, 108783376.000000, 1658.250000, 8177.000000, 8213.000000, 8212.000000
1515, 108783536.000000, 1644.000000, 8156.000000, 8200.000000, 8189.000000
1516, 108783696.000000, 1614.500000, 8153.000000, 8195.000000, 8180.000000
1517, 108783856.000000, 1579.500000, 8152.000000, 8193.000000, 8178.000000
1518, 108784016.000000, 1546.250000, 8159.000000, 8195.000000, 8186.000000
1519, 108784176.000000, 1514.500000, 8165.000000, 8198.000000, 8191.000000
1520, 108784336.000000, 1477.500000, 8168.000000, 8195.000000, 8190.000000
1521, 108784496.000000, 1430.750000, 8170.000000, 8195.000000, 8186.000000
1522, 108784656.000000, 1382.750000, 8168.000000, 8193.000000, 8186.000000
1523, 108784816.000000, 1337.750000, 8172.000000, 8191.000000, 8187.000000
1524, 108784976.000000, 1291.000000, 8175.000000, 8188.000000, 8182.000000
1525, 108785136.000000, 1242.750000, 8173.000000, 8188.000000, 8183.000000
1526, 108785296.000000, 1200.000000, 8179.000000, 8201.000000, 8209.000000
1527, 108785456.000000, 1198.500000, 8191.000000, 8196.000000, 8202.000000
1528, 108785616.000000, 1300.000000, 8188.000000, 8191.000000, 8193.000000
1529, 108785776.000000, 1534.750000, 8168.000000, 8180.000000, 8167.000000
1530, 108785936.000000, 1845.500000, 8168.000000, 8178.000000, 8163.000000
1531, 108786096.000000, 2143.250000, 8169.000000, 8176.000000, 8160.000000
1532, 108786256.000000, 2365.000000, 8169.000000, 8177.000000, 8167.000000
1533, 108786416.000000, 2502.750000, 8156.000000, 8238.000000, 8231.000000
1534, 108786576.000000, 2552.250000, 8489.000000, 8067.000000, 8184.000000
1535, 108786736.000000, 2523.250000, 8063.000000, 8078.000000, 8055.000000
1536, 108786896.000000, 2426.250000, 8131.000000, 8137.000000, 8128.000000
1537, 108787056.000000, 2276.750000, 8181.000000, 8192.000000, 8184.000000
1538, 108787216.000000, 2101.750000, 8192.000000, 8197.000000, 8192.000000
1539, 108787376.000000, 1935.750000, 8201.000000, 8197.000000, 8194.000000
1540, 108787536.000000, 1804.500000, 8207.000000, 8195.000000, 8196.000000
1541, 108787696.000000, 1712.000000, 8220.000000, 8195.000000, 8199.000000
1542, 108787856.000000, 1654.750000, 8238.000000, 8198.000000, 8206.000000
1543, 108788016.000000, 1624.750000, 8261.000000, 8203.000000, 8218.000000
1544, 108788176.000000, 1619.250000, 8252.000000, 8205.000000, 8222.000000
1545, 108788336.000000, 1620.000000, 8232.000000, 8210.000000, 8222.000000
1546, 108788496.000000, 1614.000000, 8196.000000, 8214.000000, 8216.000000
1547, 108788656.000000, 1588.000000, 8163.000000, 8207.000000, 8195.000000
1548, 108788816.000000, 1550.500000, 8152.000000, 8201.000000, 8180.000000
1549, 108788976.000000, 1504.750000, 8155.000000, 8197.000000, 8178.000000
1550, 108789136.000000, 1454.000000, 8158.000000, 8194.000000, 8179.000000
1551, 108789296.000000, 1404.000000, 8164.000000, 8196.000000, 8185.000000
1552, 108789456.000000, 1349.250000, 8164.000000, 8199.000000, 8188.000000
1553, 108789616.000000, 1292.500000, 8173.000000, 8196.000000, 8189.000000
1554, 108789776.000000, 1243.000000, 8174.000000, 8197.000000, 8190.000000
1555, 108789936.000000, 1207.250000, 8172.000000, 8194.000000, 8186.000000
1556, 108790096.000000, 1168.500000, 8170.000000, 8188.000000, 8179.000000
1557, 108790256.000000, 1119.500000, 8177.000000, 8191.000000, 8186.000000
1558, 108790416.000000, 1062.500000, 8182.000000, 8205.000000, 8213.000000
1559, 108790576.000000, 1024.500000, 8191.000000, 8202.000000, 8208.000000
1560, 108790736.000000, 1050.000000, 8192.000000, 8196.000000, 8201.000000
1561, 108790896.000000, 1186.000000, 8173.000000, 8177.000000, 8166.000000
1562, 108791056.000000, 1432.750000, 8174.000000, 8176.000000, 8165.000000
1563, 108791216.000000, 1727.500000, 8176.000000, 8177.000000, 8168.000000
1564, 108791376.000000, 1990.500000, 8181.000000, 8177.000000, 8171.000000
1565, 108791536.000000, 2188.250000, 8173.000000, 8228.000000, 8223.000000
1566, 108791696.000000, 2305.500000, 8448.000000, 8109.000000, 8205.000000
1567, 108791856.000000, 2352.250000, 8096.000000, 8113.000000, 8106.000000
1568, 108792016.000000, 2328.750000, 8127.000000, 8115.000000, 8105.000000
1569, 108792176.000000, 2240.000000, 8195.000000, 8187.000000, 8186.000000
1570, 108792336.000000, 2112.000000, 8201.000000, 8191.000000, 8188.000000
1571, 108792496.000000, 1970.000000, 8209.000000, 8194.000000, 8191.000000
1572, 108792656.000000, 1845.250000, 8219.000000, 8194.000000, 8199.000000
1573, 108792816.000000, 1751.000000, 8234.000000, 8196.000000, 8207.000000
1574, 108792976.000000, 1693.000000, 8252.000000, 8197.000000, 8214.000000
1575, 108793136.000000, 1664.000000, 8268.000000, 8197.000000, 8217.000000
1576, 108793296.000000, 1655.000000, 8266.000000, 8202.000000, 8222.000000
1577, 108793456.000000, 1661.000000, 8247.000000, 8214.000000, 8228.000000
1578, 108793616.000000, 1670.750000, 8211.000000, 8223.000000, 8231.000000
1579, 108793776.000000, 1675.000000, 8185.000000, 8210.000000, 8210.000000
1580, 108793936.000000, 1667.500000, 8169.000000, 8196.000000, 8186.000000
1581, 108794096.000000, 1649.250000, 8168.000000, 8191.000000, 8180.000000
1582, 108794256.000000, 1623.250000, 8173.000000, 8193.000000, 8184.000000
1583, 108794416.000000, 1596.750000, 8178.000000, 8195.000000, 8191.000000
1584, 108794576.000000, 1571.500000, 8181.000000, 8195.000000, 8193.000000
1585, 108794736.000000, 1542.250000, 8186.000000, 8194.000000, 8191.000000
1586, 108794896.000000, 1506.250000, 8186.000000, 8191.000000, 8186.000000
1587, 108795056.000000, 1471.250000, 8185.000000, 8190.000000, 8185.000000
1588, 108795216.000000, 1443.750000, 8181.000000, 8191.000000, 8187.000000
1589, 108795376.000000, 1419.750000, 8192.000000, 8204.000000, 8213.000000
1590, 108795536.000000, 1391.250000, 8197.000000, 8200.000000, 8208.000000
1591, 108795696.000000, 1365.500000, 8204.000000, 8191.000000, 8198.000000
1592, 108795856.000000, 1349.000000, 8184.000000, 8178.000000, 8168.000000
1593, 108796016.000000, 1397.500000, 8180.000000, 8177.000000, 8168.000000
1594, 108796176.000000, 1549.750000, 8186.000000, 8177.000000, 8168.000000
1595, 108796336.000000, 1805.250000, 8189.000000, 8176.000000, 8169.000000
1596, 108796496.000000, 2076.500000, 8189.000000, 8233.000000, 8234.000000
1597, 108796656.000000, 2294.250000, 8447.000000, 8091.000000, 8190.000000
1598, 108796816.000000, 2436.500000, 8090.000000, 8128.000000, 8121.000000
1599, 108796976.000000, 2519.000000, 8134.000000, 8116.000000, 8105.000000
1600, 108797136.000000, 2548.250000, 8198.000000, 8186.000000, 8185.000000
1601, 108797296.000000, 2509.500000, 8206.000000, 8195.000000, 8192.000000
1602, 108797456.000000, 2413.500000, 8211.000000, 8198.000000, 8196.000000
1603, 108797616.000000, 2281.500000, 8221.000000, 8196.000000, 8200.000000
1604, 108797776.000000, 2157.000000, 8234.000000, 8200.000000, 8209.000000
1605, 108797936.000000, 2055.250000, 8250.000000, 8198.000000, 8210.000000
1606, 108798096.000000, 1978.500000, 8265.000000, 8200.000000, 8216.000000
1607, 108798256.000000, 1921.750000, 8266.000000, 8207.000000, 8225.000000
1608, 108798416.000000, 1890.000000, 8247.000000, 8219.000000, 8235.000000
1609, 108798576.000000, 1879.250000, 8207.000000, 8226.000000, 8233.000000
1610, 108798736.000000, 1887.000000, 8181.000000, 8214.000000, 8212.000000
1611, 108798896.000000, 1894.500000, 8172.000000, 8198.000000, 8190.000000
1612, 108799056.000000, 1890.500000, 8174.000000, 8198.000000, 8191.000000
1613, 108799216.000000, 1873.000000, 8172.000000, 8200.000000, 8194.000000
1614, 108799376.000000, 1847.000000, 8178.000000, 8202.000000, 8198.000000
1615, 108799536.000000, 1819.500000, 8181.000000, 8200.000000, 8196.000000
1616, 108799696.000000, 1790.750000, 8181.000000, 8196.000000, 8192.000000
1617, 108799856.000000, 1753.250000, 8183.000000, 8196.000000, 8193.000000
1618, 108800016.000000, 1713.000000, 8184.000000, 8199.000000, 8199.000000
1619, 108800176.000000, 1673.000000, 8188.000000, 8211.000000, 8219.000000
1620, 108800336.000000, 1636.500000, 8193.000000, 8205.000000, 8211.000000
1621, 108800496.000000, 1598.250000, 8188.000000, 8193.000000, 8193.000000
1622, 108800656.000000, 1549.000000, 8180.000000, 8182.000000, 8173.000000
1623, 108800816.000000, 1502.000000, 8176.000000, 8183.000000, 8172.000000
1624, 108800976.000000, 1492.250000, 8176.000000, 8182.000000, 8171.000000
1625, 108801136.000000, 1568.250000, 8178.000000, 8183.000000, 8173.000000
1626, 108801296.000000, 1741.000000, 8215.000000, 8237.000000, 8245.000000
1627, 108801456.000000, 1972.250000, 8407.000000, 8073.000000, 8161.000000
1628, 108801616.000000, 2186.750000, 8059.000000, 8110.000000, 8089.000000
1629, 108801776.000000, 2351.250000, 8154.000000, 8140.000000, 8134.000000
1630, 108801936.000000, 2454.750000, 8187.000000, 8191.000000, 8181.000000
1631, 108802096.000000, 2507.250000, 8194.000000, 8196.000000, 8187.000000
1632, 108802256.000000, 2499.250000, 8200.000000, 8199.000000, 8194.000000
1633, 108802416.000000, 2426.500000, 8214.000000, 8200.000000, 8204.000000
1634, 108802576.000000, 2309.750000, 8225.000000, 8203.000000, 8208.000000
1635, 108802736.000000, 2174.500000, 8243.000000, 8203.000000, 8212.000000
1636, 108802896.000000, 2046.750000, 8252.000000, 8207.000000, 8220.000000
1637, 108803056.000000, 1946.750000, 8249.000000, 8219.000000, 8230.000000
1638, 108803216.000000, 1879.250000, 8227.000000, 8233.000000, 8245.000000
1639, 108803376.000000, 1842.750000, 8193.000000, 8231.000000, 8235.000000
1640, 108803536.000000, 1823.750000, 8168.000000, 8214.000000, 8207.000000
1641, 108803696.000000, 1813.750000, 8166.000000, 8201.000000, 8191.000000
1642, 108803856.000000, 1808.500000, 8168.000000, 8200.000000, 8193.000000
1643, 108804016.000000, 1807.000000, 8170.000000, 8202.000000, 8197.000000
1644, 108804176.000000, 1803.250000, 8173.000000, 8204.000000, 8199.000000
1645, 108804336.000000, 1789.250000, 8177.000000, 8200.000000, 8197.000000
1646, 108804496.000000, 1756.000000, 8177.000000, 8198.000000, 8193.000000
1647, 108804656.000000, 1714.250000, 8178.000000, 8198.000000, 8194.000000
1648, 108804816.000000, 1674.250000, 8180.000000, 8208.000000, 8213.000000
1649, 108804976.000000, 1636.750000, 8188.000000, 8211.000000, 8219.000000
1650, 108805136.000000, 1601.000000, 8190.000000, 8206.000000, 8208.000000
1651, 108805296.000000, 1561.000000, 8175.000000, 8185.000000, 8177.000000
1652, 108805456.000000, 1519.250000, 8169.000000, 8178.000000, 8164.000000
1653, 108805616.000000, 1488.000000, 8171.000000, 8182.000000, 8169.000000
1654, 108805776.000000, 1509.500000, 8171.000000, 8184.000000, 8173.000000
1655, 108805936.000000, 1617.000000, 8167.000000, 8219.000000, 8212.000000
1656, 108806096.000000, 1811.500000, 8349.000000, 8149.000000, 8205.000000
1657, 108806256.000000, 2036.750000, 8128.000000, 8109.000000, 8115.000000
1658, 108806416.000000, 2241.250000, 8101.000000, 8098.000000, 8075.000000
1659, 108806576.000000, 2396.250000, 8177.000000, 8188.000000, 8181.000000
1660, 108806736.000000, 2499.000000, 8190.000000, 8200.000000, 8192.000000
1661, 108806896.000000, 2548.500000, 8195.000000, 8201.000000, 8194.000000
1662, 108807056.000000, 2529.750000, 8206.000000, 8204.000000, 8201.000000
1663, 108807216.000000, 2452.000000, 8211.000000, 8206.000000, 8208.000000
1664, 108807376.000000, 2336.500000, 8230.000000, 8210.000000, 8216.000000
1665, 108807536.000000, 2213.250000, 8248.000000, 8211.000000, 8221.000000
1666, 108807696.000000, 2102.000000, 8251.000000, 8217.000000, 8227.000000
1667, 108807856.000000, 2014.500000, 8233.000000, 8228.000000, 8238.000000
1668, 108808016.000000, 1957.500000, 8198.000000, 8234.000000, 8237.000000
1669, 108808176.000000, 1930.750000, 8170.000000, 8219.000000, 8212.000000
1670, 108808336.000000, 1927.500000, 8153.000000, 8206.000000, 8191.000000
1671, 108808496.000000, 1931.750000, 8161.000000, 8199.000000, 8184.000000
1672, 108808656.000000, 1930.250000, 8166.000000, 8199.000000, 8185.000000
1673, 108808816.000000, 1919.250000, 8162.000000, 8200.000000, 8187.000000
1674, 108808976.000000, 1903.500000, 8166.000000, 8204.000000, 8194.000000
1675, 108809136.000000, 1888.500000, 8172.000000, 8200.000000, 8190.000000
1676, 108809296.000000, 1869.750000, 8168.000000, 8197.000000, 8186.000000
1677, 108809456.000000, 1845.750000, 8175.000000, 8198.000000, 8190.000000
1678, 108809616.000000, 1810.750000, 8182.000000, 8211.000000, 8219.000000
1679, 108809776.000000, 1763.750000, 8189.000000, 8203.000000, 8208.000000
1680, 108809936.000000, 1719.000000, 8182.000000, 8197.000000, 8194.000000
1681, 108810096.000000, 1683.250000, 8165.000000, 8182.000000, 8167.000000
1682, 108810256.000000, 1656.750000, 8170.000000, 8178.000000, 8163.000000
1683, 108810416.000000, 1665.000000, 8168.000000, 8180.000000, 8165.000000
1684, 108810576.000000, 1765.000000, 8171.000000, 8179.000000, 8166.000000
1685, 108810736.000000, 1982.500000, 8176.000000, 8243.000000, 8243.000000
1686, 108810896.000000, 2264.750000, 8438.000000, 8049.000000, 8150.000000
1687, 108811056.000000, 2530.250000, 8049.000000, 8061.000000, 8035.000000
1688, 108811216.000000, 2726.250000, 8149.000000, 8147.000000, 8144.000000
1689, 108811376.000000, 2848.250000, 8190.000000, 8196.000000, 8190.000000
1690, 108811536.000000, 2909.250000, 8191.000000, 8199.000000, 8190.000000
1691, 108811696.000000, 2908.500000, 8200.000000, 8201.000000, 8194.000000
1692, 108811856.000000, 2839.000000, 8207.000000, 8201.000000, 8200.000000
1693, 108812016.000000, 2710.750000, 8225.000000, 8203.000000, 8210.000000
1694, 108812176.000000, 2548.000000, 8240.000000, 8206.000000, 8219.000000
1695, 108812336.000000, 2382.750000, 8252.000000, 8209.000000, 8226.000000
1696, 108812496.000000, 2246.750000, 8246.000000, 8215.000000, 8230.000000
1697, 108812656.000000, 2154.500000, 8222.000000, 8226.000000, 8233.000000
1698, 108812816.000000, 2098.000000, 8186.000000, 8225.000000, 8224.000000
1699, 108812976.000000, 2064.750000, 8165.000000, 8209.000000, 8200.000000
1700, 108813136.000000, 2038.250000, 8163.000000, 8196.000000, 8184.000000
1701, 108813296.000000, 2007.250000, 8161.000000, 8194.000000, 8181.000000
1702, 108813456.000000, 1976.000000, 8159.000000, 8198.000000, 8187.000000
1703, 108813616.000000, 1944.500000, 8167.000000, 8200.000000, 8193.000000
1704, 108813776.000000, 1903.000000, 8173.000000, 8201.000000, 8198.000000
1705, 108813936.000000, 1847.000000, 8170.000000, 8197.000000, 8190.000000
1706, 108814096.000000, 1787.000000, 8171.000000, 8196.000000, 8189.000000
1707, 108814256.000000, 1728.500000, 8170.000000, 8194.000000, 8187.000000
1708, 108814416.000000, 1681.750000, 8182.000000, 8210.000000, 8222.000000
1709, 108814576.000000, 1640.250000, 8191.000000, 8204.000000, 8214.000000
1710, 108814736.000000, 1585.750000, 8193.000000, 8197.000000, 8205.000000
1711, 108814896.000000, 1510.000000, 8170.000000, 8182.000000, 8171.000000
1712, 108815056.000000, 1503.500000, 8173.000000, 8181.000000, 8170.000000
1713, 108815216.000000, 1708.000000, 8177.000000, 8182.000000, 8175.000000
1714, 108815376.000000, 2049.500000, 8174.000000, 8185.000000, 8178.000000
1715, 108815536.000000, 2408.500000, 8161.000000, 8242.000000, 8237.000000
1716, 108815696.000000, 2722.750000, 8438.000000, 8088.000000, 8187.000000
1717, 108815856.000000, 2959.250000, 8069.000000, 8064.000000, 8047.000000
1718, 108816016.000000, 3096.500000, 8140.000000, 8132.000000, 8132.000000
1719, 108816176.000000, 3073.000000, 8189.000000, 8196.000000, 8195.000000
1720, 108816336.000000, 2957.250000, 8199.000000, 8199.000000, 8197.000000
1721, 108816496.000000, 2777.750000, 8205.000000, 8201.000000, 8199.000000
1722, 108816656.000000, 2572.750000, 8209.000000, 8201.000000, 8203.000000
1723, 108816816.000000, 2378.250000, 8220.000000, 8204.000000, 8208.000000
1724, 108816976.000000, 2223.500000, 8243.000000, 8206.000000, 8221.000000
1725, 108817136.000000, 2116.000000, 8256.000000, 8208.000000, 8226.000000
1726, 108817296.000000, 2045.250000, 8258.000000, 8210.000000, 8229.000000
1727, 108817456.000000, 1996.000000, 8234.000000, 8224.000000, 8237.000000
1728, 108817616.000000, 1972.500000, 8202.000000, 8227.000000, 8233.000000
1729, 108817776.000000, 1960.000000, 8173.000000, 8214.000000, 8209.000000
1730, 108817936.000000, 1940.750000, 8163.000000, 8204.000000, 8194.000000
1731, 108818096.000000, 1904.000000, 8163.000000, 8199.000000, 8189.000000
1732, 108818256.000000, 1861.500000, 8167.000000, 8199.000000, 8190.000000
1733, 108818416.000000, 1816.500000, 8172.000000, 8202.000000, 8198.000000
1734, 108818576.000000, 1763.750000, 8174.000000, 8204.000000, 8201.000000
1735, 108818736.000000, 1694.500000, 8178.000000, 8203.000000, 8201.000000
1736, 108818896.000000, 1614.000000, 8176.000000, 8201.000000, 8196.000000
1737, 108819056.000000, 1539.000000, 8174.000000, 8199.000000, 8192.000000
1738, 108819216.000000, 1472.500000, 8168.000000, 8200.000000, 8191.000000
1739, 108819376.000000, 1405.750000, 8179.000000, 8213.000000, 8221.000000
1740, 108819536.000000, 1352.750000, 8183.000000, 8211.000000, 8216.000000
1741, 108819696.000000, 1364.500000, 8188.000000, 8203.000000, 8205.000000
1742, 108819856.000000, 1526.500000, 8165.000000, 8186.000000, 8173.000000
1743, 108820016.000000, 1838.750000, 8161.000000, 8186.000000, 8171.000000
1744, 108820176.000000, 2230.000000, 8167.000000, 8187.000000, 8174.000000
1745, 108820336.000000, 2591.000000, 8166.000000, 8185.000000, 8173.000000
1746, 108820496.000000, 2874.500000, 8149.000000, 8223.000000, 8210.000000
1747, 108820656.000000, 3067.000000, 8377.000000, 8138.000000, 8212.000000
1748, 108820816.000000, 3161.250000, 8109.000000, 8085.000000, 8085.000000
1749, 108820976.000000, 3151.750000, 8109.000000, 8119.000000, 8105.000000
1750, 108821136.000000, 3025.500000, 8176.000000, 8197.000000, 8188.000000
1751, 108821296.000000, 2819.250000, 8186.000000, 8200.000000, 8191.000000
1752, 108821456.000000, 2580.750000, 8191.000000, 8204.000000, 8197.000000
1753, 108821616.000000, 2366.750000, 8199.000000, 8205.000000, 8203.000000
1754, 108821776.000000, 2197.250000, 8212.000000, 8207.000000, 8211.000000
1755, 108821936.000000, 2076.500000, 8230.000000, 8206.000000, 8216.000000
1756, 108822096.000000, 1993.500000, 8247.000000, 8208.000000, 8222.000000
1757, 108822256.000000, 1940.000000, 8248.000000, 8214.000000, 8230.000000
1758, 108822416.000000, 1918.000000, 8230.000000, 8222.000000, 8236.000000
1759, 108822576.000000, 1909.000000, 8192.000000, 8231.000000, 8232.000000
1760, 108822736.000000, 1897.500000, 8160.000000, 8217.000000, 8207.000000
1761, 108822896.000000, 1870.000000, 8147.000000, 8204.000000, 8189.000000
1762, 108823056.000000, 1821.000000, 8148.000000, 8200.000000, 8184.000000
1763, 108823216.000000, 1758.500000, 8151.000000, 8201.000000, 8189.000000
1764, 108823376.000000, 1688.000000, 8155.000000, 8205.000000, 8194.000000
1765, 108823536.000000, 1618.750000, 8157.000000, 8204.000000, 8196.000000
1766, 108823696.000000, 1552.750000, 8163.000000, 8201.000000, 8195.000000
1767, 108823856.000000, 1492.750000, 8163.000000, 8202.000000, 8194.000000
1768, 108824016.000000, 1437.250000, 8161.000000, 8199.000000, 8192.000000
1769, 108824176.000000, 1376.250000, 8159.000000, 8197.000000, 8188.000000
1770, 108824336.000000, 1316.750000, 8160.000000, 8193.000000, 8183.000000
1771, 108824496.000000, 1275.000000, 8167.000000, 8204.000000, 8204.000000
1772, 108824656.000000, 1294.750000, 8171.000000, 8205.000000, 8204.000000
1773, 108824816.000000, 1439.250000, 8183.000000, 8202.000000, 8203.000000
1774, 108824976.000000, 1744.750000, 8162.000000, 8188.000000, 8175.000000
1775, 108825136.000000, 2147.250000, 8156.000000, 8183.000000, 8166.000000
1776, 108825296.000000, 2548.250000, 8159.000000, 8180.000000, 8163.000000
1777, 108825456.000000, 2869.000000, 8161.000000, 8182.000000, 8167.000000
1778, 108825616.000000, 3078.250000, 8155.000000, 8206.000000, 8193.000000
1779, 108825776.000000, 3169.750000, 8329.000000, 8184.000000, 8236.000000
1780, 108825936.000000, 3150.500000, 8210.000000, 8104.000000, 8137.000000
1781, 108826096.000000, 3029.000000, 8081.000000, 8094.000000, 8067.000000
1782, 108826256.000000, 2824.750000, 8169.000000, 8190.000000, 8182.000000
1783, 108826416.000000, 2592.000000, 8185.000000, 8199.000000, 8192.000000
1784, 108826576.000000, 2375.750000, 8196.000000, 8204.000000, 8202.000000
1785, 108826736.000000, 2199.000000, 8199.000000, 8202.000000, 8200.000000
1786, 108826896.000000, 2062.000000, 8211.000000, 8201.000000, 8205.000000
1787, 108827056.000000, 1969.500000, 8228.000000, 8200.000000, 8211.000000
1788, 108827216.000000, 1927.500000, 8252.000000, 8203.000000, 8222.000000
1789, 108827376.000000, 1921.750000, 8255.000000, 8209.000000, 8228.000000
1790, 108827536.000000, 1923.750000, 8239.000000, 8213.000000, 8229.000000
1791, 108827696.000000, 1913.000000, 8203.000000, 8219.000000, 8225.000000
1792, 108827856.000000, 1885.250000, 8174.000000, 8210.000000, 8205.000000
1793, 108828016.000000, 1841.750000, 8159.000000, 8203.000000, 8192.000000
1794, 108828176.000000, 1789.000000, 8155.000000, 8200.000000, 8187.000000
1795, 108828336.000000, 1727.250000, 8155.000000, 8197.000000, 8182.000000
1796, 108828496.000000, 1666.750000, 8164.000000, 8194.000000, 8185.000000
1797, 108828656.000000, 1602.500000, 8170.000000, 8196.000000, 8191.000000
1798, 108828816.000000, 1531.750000, 8170.000000, 8198.000000, 8193.000000
1799, 108828976.000000, 1459.000000, 8170.000000, 8199.000000, 8192.000000
1800, 108829136.000000, 1398.500000, 8171.000000, 8194.000000, 8187.000000
1801, 108829296.000000, 1357.000000, 8167.000000, 8188.000000, 8179.000000
1802, 108829456.000000, 1309.000000, 8162.000000, 8189.000000, 8178.000000
1803, 108829616.000000, 1245.500000, 8161.000000, 8190.000000, 8181.000000
1804, 108829776.000000, 1215.000000, 8170.000000, 8203.000000, 8207.000000
1805, 108829936.000000, 1302.500000, 8181.000000, 8200.000000, 8200.000000
1806, 108830096.000000, 1574.750000, 8179.000000, 8192.000000, 8189.000000
1807, 108830256.000000, 1971.250000, 8167.000000, 8179.000000, 8164.000000
1808, 108830416.000000, 2389.750000, 8166.000000, 8179.000000, 8165.000000
1809, 108830576.000000, 2736.250000, 8164.000000, 8182.000000, 8169.000000
1810, 108830736.000000, 2981.250000, 8170.000000, 8181.000000, 8170.000000
1811, 108830896.000000, 3113.000000, 8158.000000, 8235.000000, 8226.000000
1812, 108831056.000000, 3131.000000, 8485.000000, 8080.000000, 8196.000000
1813, 108831216.000000, 3040.500000, 8071.000000, 8098.000000, 8083.000000
1814, 108831376.000000, 2848.000000, 8132.000000, 8136.000000, 8133.000000
1815, 108831536.000000, 2607.500000, 8183.000000, 8191.000000, 8184.000000
1816, 108831696.000000, 2367.750000, 8189.000000, 8196.000000, 8189.000000
1817, 108831856.000000, 2165.250000, 8199.000000, 8200.000000, 8196.000000
1818, 108832016.000000, 2017.000000, 8211.000000, 8200.000000, 8202.000000
1819, 108832176.000000, 1929.000000, 8225.000000, 8200.000000, 8209.000000
1820, 108832336.000000, 1882.750000, 8239.000000, 8199.000000, 8211.000000
1821, 108832496.000000, 1858.750000, 8257.000000, 8202.000000, 8220.000000
1822, 108832656.000000, 1850.750000, 8260.000000, 8206.000000, 8226.000000
1823, 108832816.000000, 1850.750000, 8241.000000, 8215.000000, 8229.000000
1824, 108832976.000000, 1848.500000, 8197.000000, 8221.000000, 8223.000000
1825, 108833136.000000, 1822.500000, 8169.000000, 8208.000000, 8200.000000
1826, 108833296.000000, 1775.000000, 8161.000000, 8198.000000, 8185.000000
1827, 108833456.000000, 1711.500000, 8155.000000, 8196.000000, 8179.000000
1828, 108833616.000000, 1644.750000, 8156.000000, 8196.000000, 8183.000000
1829, 108833776.000000, 1583.000000, 8161.000000, 8197.000000, 8186.000000
1830, 108833936.000000, 1523.000000, 8171.000000, 8194.000000, 8187.000000
1831, 108834096.000000, 1464.750000, 8175.000000, 8192.000000, 8186.000000
1832, 108834256.000000, 1406.250000, 8171.000000, 8195.000000, 8188.000000
1833, 108834416.000000, 1352.250000, 8168.000000, 8195.000000, 8188.000000
1834, 108834576.000000, 1305.750000, 8171.000000, 8192.000000, 8187.000000
1835, 108834736.000000, 1266.750000, 8176.000000, 8190.000000, 8185.000000
1836, 108834896.000000, 1232.750000, 8175.000000, 8192.000000, 8188.000000
1837, 108835056.000000, 1220.500000, 8182.000000, 8206.000000, 8218.000000
1838, 108835216.000000, 1326.000000, 8188.000000, 8200.000000, 8208.000000
1839, 108835376.000000, 1604.500000, 8191.000000, 8196.000000, 8202.000000
1840, 108835536.000000, 2021.500000, 8172.000000, 8184.000000, 8174.000000
1841, 108835696.000000, 2446.750000, 8171.000000, 8180.000000, 8171.000000
1842, 108835856.000000, 2792.000000, 8175.000000, 8180.000000, 8172.000000
1843, 108836016.000000, 3018.500000, 8177.000000, 8184.000000, 8179.000000
1844, 108836176.000000, 3129.750000, 8161.000000, 8241.000000, 8236.000000
1845, 108836336.000000, 3137.500000, 8478.000000, 8093.000000, 8207.000000
1846, 108836496.000000, 3036.250000, 8082.000000, 8101.000000, 8091.000000
1847, 108836656.000000, 2852.000000, 8135.000000, 8134.000000, 8135.000000
1848, 108836816.000000, 2606.000000, 8186.000000, 8194.000000, 8195.000000
1849, 108836976.000000, 2352.500000, 8198.000000, 8199.000000, 8200.000000
1850, 108837136.000000, 2142.500000, 8206.000000, 8200.000000, 8202.000000
1851, 108837296.000000, 2003.500000, 8214.000000, 8199.000000, 8203.000000
1852, 108837456.000000, 1924.000000, 8226.000000, 8199.000000, 8209.000000
1853, 108837616.000000, 1882.250000, 8245.000000, 8201.000000, 8217.000000
1854, 108837776.000000, 1864.250000, 8262.000000, 8204.000000, 8224.000000
1855, 108837936.000000, 1866.750000, 8259.000000, 8208.000000, 8228.000000
1856, 108838096.000000, 1885.750000, 8237.000000, 8214.000000, 8227.000000
1857, 108838256.000000, 1895.750000, 8200.000000, 8220.000000, 8224.000000
1858, 108838416.000000, 1881.500000, 8169.000000, 8209.000000, 8203.000000
1859, 108838576.000000, 1835.500000, 8160.000000, 8200.000000, 8190.000000
1860, 108838736.000000, 1769.500000, 8155.000000, 8199.000000, 8184.000000
1861, 108838896.000000, 1695.250000, 8155.000000, 8196.000000, 8181.000000
1862, 108839056.000000, 1627.750000, 8160.000000, 8196.000000, 8184.000000
1863, 108839216.000000, 1565.500000, 8168.000000, 8199.000000, 8190.000000
1864, 108839376.000000, 1495.500000, 8177.000000, 8197.000000, 8194.000000
1865, 108839536.000000, 1424.750000, 8175.000000, 8196.000000, 8188.000000
1866, 108839696.000000, 1365.000000, 8174.000000, 8193.000000, 8186.000000
1867, 108839856.000000, 1318.250000, 8171.000000, 8190.000000, 8183.000000
1868, 108840016.000000, 1274.250000, 8178.000000, 8190.000000, 8184.000000
1869, 108840176.000000, 1225.000000, 8173.000000, 8189.000000, 8182.000000
1870, 108840336.000000, 1199.250000, 8176.000000, 8202.000000, 8204.000000
1871, 108840496.000000, 1273.500000, 8184.000000, 8202.000000, 8204.000000
1872, 108840656.000000, 1522.750000, 8200.000000, 8195.000000, 8203.000000
1873, 108840816.000000, 1916.000000, 8178.000000, 8181.000000, 8173.000000
1874, 108840976.000000, 2339.250000, 8168.000000, 8180.000000, 8167.000000
1875, 108841136.000000, 2701.000000, 8170.000000, 8181.000000, 8168.000000
1876, 108841296.000000, 2971.750000, 8171.000000, 8181.000000, 8170.000000
1877, 108841456.000000, 3137.750000, 8161.000000, 8203.000000, 8194.000000
1878, 108841616.000000, 3176.750000, 8354.000000, 8170.000000, 8233.000000
1879, 108841776.000000, 3092.750000, 8179.000000, 8123.000000, 8147.000000
1880, 108841936.000000, 2909.000000, 8091.000000, 8096.000000, 8072.000000
1881, 108842096.000000, 2674.500000, 8177.000000, 8181.000000, 8176.000000
1882, 108842256.000000, 2445.250000, 8192.000000, 8191.000000, 8186.000000
1883, 108842416.000000, 2255.250000, 8198.000000, 8196.000000, 8193.000000
1884, 108842576.000000, 2117.250000, 8209.000000, 8195.000000, 8197.000000
1885, 108842736.000000, 2028.000000, 8222.000000, 8194.000000, 8199.000000
1886, 108842896.000000, 1983.250000, 8240.000000, 8194.000000, 8203.000000
1887, 108843056.000000, 1982.500000, 8257.000000, 8197.000000, 8211.000000
1888, 108843216.000000, 2010.500000, 8264.000000, 8199.000000, 8218.000000
1889, 108843376.000000, 2037.250000, 8259.000000, 8207.000000, 8227.000000
1890, 108843536.000000, 2037.500000, 8218.000000, 8217.000000, 8227.000000
1891, 108843696.000000, 2005.750000, 8185.000000, 8209.000000, 8206.000000
1892, 108843856.000000, 1965.250000, 8171.000000, 8196.000000, 8187.000000
1893, 108844016.000000, 1930.250000, 8168.000000, 8192.000000, 8181.000000
1894, 108844176.000000, 1894.000000, 8165.000000, 8193.000000, 8182.000000
1895, 108844336.000000, 1850.500000, 8171.000000, 8192.000000, 8183.000000
1896, 108844496.000000, 1802.500000, 8176.000000, 8191.000000, 8184.000000
1897, 108844656.000000, 1761.000000, 8179.000000, 8192.000000, 8187.000000
1898, 108844816.000000, 1724.750000, 8182.000000, 8192.000000, 8187.000000
1899, 108844976.000000, 1693.250000, 8181.000000, 8192.000000, 8186.000000
1900, 108845136.000000, 1658.500000, 8180.000000, 8188.000000, 8185.000000
1901, 108845296.000000, 1623.500000, 8181.000000, 8188.000000, 8184.000000
1902, 108845456.000000, 1581.750000, 8188.000000, 8200.000000, 8206.000000
1903, 108845616.000000, 1552.250000, 8201.000000, 8196.000000, 8203.000000
1904, 108845776.000000, 1578.500000, 8191.000000, 8185.000000, 8187.000000
1905, 108845936.000000, 1740.500000, 8181.000000, 8175.000000, 8165.000000
1906, 108846096.000000, 2046.250000, 8180.000000, 8173.000000, 8162.000000
1907, 108846256.000000, 2452.750000, 8185.000000, 8174.000000, 8163.000000
1908, 108846416.000000, 2861.750000, 8187.000000, 8177.000000, 8171.000000
1909, 108846576.000000, 3207.250000, 8211.000000, 8236.000000, 8244.000000
1910, 108846736.000000, 3440.500000, 8457.000000, 8074.000000, 8182.000000
1911, 108846896.000000, 3552.250000, 8066.000000, 8098.000000, 8075.000000
1912, 108847056.000000, 3544.000000, 8160.000000, 8144.000000, 8138.000000
1913, 108847216.000000, 3432.750000, 8203.000000, 8187.000000, 8182.000000
1914, 108847376.000000, 3249.250000, 8208.000000, 8193.000000, 8189.000000
1915, 108847536.000000, 3019.500000, 8215.000000, 8194.000000, 8194.000000
1916, 108847696.000000, 2787.000000, 8221.000000, 8192.000000, 8194.000000
1917, 108847856.000000, 2583.500000, 8239.000000, 8191.000000, 8199.000000
1918, 108848016.000000, 2434.250000, 8258.000000, 8195.000000, 8208.000000
1919, 108848176.000000, 2340.250000, 8272.000000, 8200.000000, 8218.000000
1920, 108848336.000000, 2292.750000, 8264.000000, 8207.000000, 8220.000000
1921, 108848496.000000, 2280.250000, 8235.000000, 8217.000000, 8225.000000
1922, 108848656.000000, 2283.000000, 8196.000000, 8220.000000, 8218.000000
1923, 108848816.000000, 2277.250000, 8179.000000, 8207.000000, 8200.000000
1924, 108848976.000000, 2252.750000, 8172.000000, 8198.000000, 8188.000000
1925, 108849136.000000, 2221.250000, 8173.000000, 8194.000000, 8183.000000
1926, 108849296.000000, 2185.500000, 8170.000000, 8194.000000, 8183.000000
1927, 108849456.000000, 2147.250000, 8178.000000, 8195.000000, 8187.000000
1928, 108849616.000000, 2099.500000, 8185.000000, 8195.000000, 8192.000000
1929, 108849776.000000, 2041.250000, 8187.000000, 8195.000000, 8193.000000
1930, 108849936.000000, 1980.250000, 8184.000000, 8196.000000, 8192.000000
1931, 108850096.000000, 1926.000000, 8183.000000, 8194.000000, 8191.000000
1932, 108850256.000000, 1877.250000, 8191.000000, 8205.000000, 8215.000000
1933, 108850416.000000, 1830.000000, 8197.000000, 8202.000000, 8210.000000
1934, 108850576.000000, 1770.750000, 8197.000000, 8197.000000, 8203.000000
1935, 108850736.000000, 1711.000000, 8182.000000, 8182.000000, 8175.000000
1936, 108850896.000000, 1699.250000, 8181.000000, 8178.000000, 8168.000000
1937, 108851056.000000, 1818.000000, 8179.000000, 8179.000000, 8166.000000
1938, 108851216.000000, 2078.500000, 8185.000000, 8180.000000, 8173.000000
1939, 108851376.000000, 2437.500000, 8193.000000, 8242.000000, 8246.000000
1940, 108851536.000000, 2797.250000, 8459.000000, 8076.000000, 8179.000000
1941, 108851696.000000, 3103.500000, 8082.000000, 8135.000000, 8123.000000
1942, 108851856.000000, 3325.750000, 8137.000000, 8126.000000, 8115.000000
1943, 108852016.000000, 3470.250000, 8190.000000, 8189.000000, 8183.000000
1944, 108852176.000000, 3526.500000, 8199.000000, 8198.000000, 8194.000000
1945, 108852336.000000, 3472.000000, 8206.000000, 8200.000000, 8197.000000
1946, 108852496.000000, 3319.500000, 8217.000000, 8197.000000, 8199.000000
1947, 108852656.000000, 3100.000000, 8229.000000, 8198.000000, 8204.000000
1948, 108852816.000000, 2871.250000, 8248.000000, 8198.000000, 8210.000000
1949, 108852976.000000, 2666.000000, 8264.000000, 8200.000000, 8217.000000
1950, 108853136.000000, 2499.500000, 8264.000000, 8208.000000, 8225.000000
1951, 108853296.000000, 2371.000000, 8240.000000, 8220.000000, 8233.000000
1952, 108853456.000000, 2288.500000, 8198.000000, 8224.000000, 8227.000000
1953, 108853616.000000, 2250.250000, 8170.000000, 8212.000000, 8205.000000
1954, 108853776.000000, 2244.250000, 8161.000000, 8205.000000, 8196.000000
1955, 108853936.000000, 2248.750000, 8165.000000, 8200.000000, 8189.000000
1956, 108854096.000000, 2242.500000, 8161.000000, 8200.000000, 8185.000000
1957, 108854256.000000, 2222.500000, 8164.000000, 8202.000000, 8191.000000
1958, 108854416.000000, 2192.000000, 8176.000000, 8199.000000, 8194.000000
1959, 108854576.000000, 2161.250000, 8179.000000, 8200.000000, 8195.000000
1960, 108854736.000000, 2122.500000, 8178.000000, 8197.000000, 8191.000000
1961, 108854896.000000, 2067.500000, 8176.000000, 8197.000000, 8190.000000
1962, 108855056.000000, 1997.250000, 8186.000000, 8207.000000, 8214.000000
1963, 108855216.000000, 1918.750000, 8199.000000, 8203.000000, 8211.000000
1964, 108855376.000000, 1847.250000, 8190.000000, 8196.000000, 8198.000000
1965, 108855536.000000, 1787.250000, 8173.000000, 8184.000000, 8173.000000
1966, 108855696.000000, 1766.500000, 8172.000000, 8181.000000, 8169.000000
1967, 108855856.000000, 1849.250000, 8174.000000, 8181.000000, 8172.000000
1968, 108856016.000000, 2085.000000, 8176.000000, 8185.000000, 8178.000000
1969, 108856176.000000, 2440.000000, 8193.000000, 8249.000000, 8255.000000
1970, 108856336.000000, 2818.500000, 8449.000000, 8065.000000, 8169.000000
1971, 108856496.000000, 3147.750000, 8066.000000, 8101.000000, 8084.000000
1972, 108856656.000000, 3394.750000, 8146.000000, 8142.000000, 8137.000000
1973, 108856816.000000, 3546.000000, 8187.000000, 8195.000000, 8189.000000
1974, 108856976.000000, 3580.000000, 8200.000000, 8202.000000, 8199.000000
1975, 108857136.000000, 3500.750000, 8205.000000, 8203.000000, 8203.000000
1976, 108857296.000000, 3323.250000, 8216.000000, 8201.000000, 8202.000000
1977, 108857456.000000, 3089.500000, 8223.000000, 8201.000000, 8205.000000
1978, 108857616.000000, 2846.250000, 8245.000000, 8203.000000, 8215.000000
1979, 108857776.000000, 2630.250000, 8261.000000, 8208.000000, 8225.000000
1980, 108857936.000000, 2456.750000, 8257.000000, 8218.000000, 8234.000000
1981, 108858096.000000, 2336.500000, 8226.000000, 8230.000000, 8238.000000
1982, 108858256.000000, 2280.750000, 8185.000000, 8229.000000, 8224.000000
1983, 108858416.000000, 2270.750000, 8160.000000, 8213.000000, 8199.000000
1984, 108858576.000000, 2280.500000, 8155.000000, 8203.000000, 8188.000000
1985, 108858736.000000, 2277.000000, 8162.000000, 8197.000000, 8182.000000
1986, 108858896.000000, 2257.000000, 8157.000000, 8196.000000, 8178.000000
1987, 108859056.000000, 2224.500000, 8156.000000, 8197.000000, 8180.000000
1988, 108859216.000000, 2178.250000, 8161.000000, 8199.000000, 8184.000000
1989, 108859376.000000, 2115.000000, 8168.000000, 8198.000000, 8187.000000
1990, 108859536.000000, 2037.750000, 8164.000000, 8197.000000, 8182.000000
1991, 108859696.000000, 1956.250000, 8168.000000, 8197.000000, 8186.000000
1992, 108859856.000000, 1873.000000, 8170.000000, 8207.000000, 8202.000000
1993, 108860016.000000, 1795.500000, 8182.000000, 8202.000000, 8197.000000
1994, 108860176.000000, 1724.250000, 8175.000000, 8191.000000, 8179.000000
1995, 108860336.000000, 1665.500000, 8161.000000, 8180.000000, 8157.000000
1996, 108860496.000000, 1671.500000, 8159.000000, 8178.000000, 8153.000000
1997, 108860656.000000, 1805.750000, 8163.000000, 8179.000000, 8155.000000
1998, 108860816.000000, 2106.250000, 8165.000000, 8182.000000, 8161.000000
1999, 108860976.000000, 2498.500000, 8186.000000, 8247.000000, 8242.000000
2000, 108861136.000000, 2885.750000, 8414.000000, 8042.000000, 8129.000000
2001, 108861296.000000, 3191.500000, 8046.000000, 8074.000000, 8038.000000
2002, 108861456.000000, 3393.250000, 8143.000000, 8151.000000, 8134.000000
2003, 108861616.000000, 3473.000000, 8175.000000, 8196.000000, 8176.000000
2004, 108861776.000000, 3443.000000, 8182.000000, 8201.000000, 8184.000000
2005, 108861936.000000, 3321.500000, 8195.000000, 8203.000000, 8190.000000
2006, 108862096.000000, 3113.750000, 8203.000000, 8201.000000, 8190.000000
2007, 108862256.000000, 2852.000000, 8215.000000, 8205.000000, 8198.000000
2008, 108862416.000000, 2571.250000, 8237.000000, 8205.000000, 8208.000000
2009, 108862576.000000, 2330.500000, 8255.000000, 8211.000000, 8220.000000
2010, 108862736.000000, 2161.500000, 8248.000000, 8218.000000, 8226.000000
2011, 108862896.000000, 2072.500000, 8215.000000, 8230.000000, 8227.000000
2012, 108863056.000000, 2038.500000, 8177.000000, 8222.000000, 8211.000000
2013, 108863216.000000, 2030.250000, 8155.000000, 8208.000000, 8189.000000
2014, 108863376.000000, 2029.000000, 8155.000000, 8202.000000, 8181.000000
2015, 108863536.000000, 2025.000000, 8160.000000, 8196.000000, 8176.000000
2016, 108863696.000000, 2011.750000, 8157.000000, 8197.000000, 8177.000000
2017, 108863856.000000, 1980.000000, 8157.000000, 8197.000000, 8179.000000
2018, 108864016.000000, 1927.000000, 8163.000000, 8199.000000, 8183.000000
2019, 108864176.000000, 1851.750000, 8170.000000, 8197.000000, 8186.000000
2020, 108864336.000000, 1765.000000, 8169.000000, 8196.000000, 8184.000000
2021, 108864496.000000, 1678.250000, 8169.000000, 8192.000000, 8178.000000
2022, 108864656.000000, 1598.500000, 8175.000000, 8204.000000, 8200.000000
2023, 108864816.000000, 1526.000000, 8179.000000, 8205.000000, 8205.000000
2024, 108864976.000000, 1458.750000, 8186.000000, 8202.000000, 8201.000000
2025, 108865136.000000, 1408.500000, 8171.000000, 8186.000000, 8171.000000
2026, 108865296.000000, 1431.250000, 8163.000000, 8177.000000, 8155.000000
2027, 108865456.000000, 1619.500000, 8166.000000, 8177.000000, 8157.000000
2028, 108865616.000000, 1983.000000, 8171.000000, 8181.000000, 8164.000000
2029, 108865776.000000, 2433.500000, 8165.000000, 8194.000000, 8179.000000
2030, 108865936.000000, 2851.250000, 8272.000000, 8219.000000, 8245.000000
2031, 108866096.000000, 3175.750000, 8267.000000, 8053.000000, 8094.000000
2032, 108866256.000000, 3377.500000, 8078.000000, 8070.000000, 8035.000000
2033, 108866416.000000, 3445.500000, 8173.000000, 8183.000000, 8174.000000
2034, 108866576.000000, 3392.000000, 8189.000000, 8200.000000, 8191.000000
2035, 108866736.000000, 3220.750000, 8187.000000, 8206.000000, 8194.000000
2036, 108866896.000000, 2963.500000, 8196.000000, 8205.000000, 8195.000000
2037, 108867056.000000, 2664.250000, 8216.000000, 8202.000000, 8201.000000
2038, 108867216.000000, 2376.500000, 8228.000000, 8203.000000, 8208.000000
2039, 108867376.000000, 2135.500000, 8244.000000, 8208.000000, 8220.000000
2040, 108867536.000000, 1964.250000, 8254.000000, 8214.000000, 8230.000000
2041, 108867696.000000, 1861.750000, 8243.000000, 8219.000000, 8230.000000
2042, 108867856.000000, 1810.000000, 8206.000000, 8229.000000, 8231.000000
2043, 108868016.000000, 1784.250000, 8171.000000, 8219.000000, 8212.000000
2044, 108868176.000000, 1762.750000, 8158.000000, 8206.000000, 8193.000000
2045, 108868336.000000, 1738.500000, 8155.000000, 8199.000000, 8184.000000
2046, 108868496.000000, 1714.750000, 8154.000000, 8195.000000, 8179.000000
2047, 108868656.000000, 1684.000000, 8154.000000, 8196.000000, 8182.000000
2048, 108868816.000000, 1628.750000, 8162.000000, 8197.000000, 8188.000000
2049, 108868976.000000, 1550.250000, 8171.000000, 8197.000000, 8192.000000
2050, 108869136.000000, 1469.250000, 8164.000000, 8197.000000, 8188.000000
2051, 108869296.000000, 1395.000000, 8162.000000, 8193.000000, 8184.000000
2052, 108869456.000000, 1327.000000, 8161.000000, 8192.000000, 8181.000000
2053, 108869616.000000, 1256.250000, 8165.000000, 8188.000000, 8179.000000
2054, 108869776.000000, 1181.750000, 8168.000000, 8189.000000, 8182.000000
2055, 108869936.000000, 1116.250000, 8175.000000, 8204.000000, 8210.000000
2056, 108870096.000000, 1104.500000, 8183.000000, 8196.000000, 8199.000000
2057, 108870256.000000, 1238.250000, 8185.000000, 8192.000000, 8194.000000
2058, 108870416.000000, 1558.500000, 8164.000000, 8180.000000, 8165.000000
2059, 108870576.000000, 2026.000000, 8169.000000, 8179.000000, 8167.000000
2060, 108870736.000000, 2507.750000, 8171.000000, 8179.000000, 8168.000000
2061, 108870896.000000, 2919.750000, 8171.000000, 8179.000000, 8170.000000
2062, 108871056.000000, 3222.250000, 8163.000000, 8215.000000, 8209.000000
2063, 108871216.000000, 3390.000000, 8354.000000, 8144.000000, 8209.000000
2064, 108871376.000000, 3406.500000, 8131.000000, 8074.000000, 8084.000000
2065, 108871536.000000, 3275.000000, 8111.000000, 8105.000000, 8096.000000
2066, 108871696.000000, 3044.500000, 8185.000000, 8189.000000, 8189.000000
2067, 108871856.000000, 2756.000000, 8197.000000, 8195.000000, 8195.000000
2068, 108872016.000000, 2457.000000, 8195.000000, 8205.000000, 8206.000000
2069, 108872176.000000, 2185.250000, 8206.000000, 8205.000000, 8211.000000
2070, 108872336.000000, 1965.500000, 8222.000000, 8203.000000, 8212.000000
2071, 108872496.000000, 1810.500000, 8236.000000, 8204.000000, 8218.000000
2072, 108872656.000000, 1721.500000, 8252.000000, 8208.000000, 8229.000000
2073, 108872816.000000, 1680.750000, 8259.000000, 8214.000000, 8238.000000
2074, 108872976.000000, 1666.000000, 8244.000000, 8224.000000, 8246.000000
2075, 108873136.000000, 1658.500000, 8204.000000, 8230.000000, 8241.000000
2076, 108873296.000000, 1649.500000, 8174.000000, 8215.000000, 8214.000000
2077, 108873456.000000, 1627.250000, 8162.000000, 8202.000000, 8197.000000
2078, 108873616.000000, 1582.500000, 8160.000000, 8197.000000, 8189.000000
2079, 108873776.000000, 1525.000000, 8160.000000, 8200.000000, 8194.000000
2080, 108873936.000000, 1466.000000, 8162.000000, 8196.000000, 8189.000000
2081, 108874096.000000, 1399.250000, 8169.000000, 8196.000000, 8192.000000
2082, 108874256.000000, 1325.250000, 8168.000000, 8199.000000, 8196.000000
2083, 108874416.000000, 1248.500000, 8170.000000, 8198.000000, 8198.000000
2084, 108874576.000000, 1183.500000, 8176.000000, 8196.000000, 8198.000000
2085, 108874736.000000, 1133.750000, 8176.000000, 8193.000000, 8195.000000
2086, 108874896.000000, 1084.750000, 8175.000000, 8191.000000, 8191.000000
2087, 108875056.000000, 1029.750000, 8173.000000, 8189.000000, 8189.000000
2088, 108875216.000000, 979.000000, 8175.000000, 8188.000000, 8188.000000
2089, 108875376.000000, 998.000000, 8181.000000, 8198.000000, 8208.000000
2090, 108875536.000000, 1175.250000, 8183.000000, 8199.000000, 8208.000000
2091, 108875696.000000, 1558.500000, 8193.000000, 8195.000000, 8205.000000
2092, 108875856.000000, 2057.000000, 8179.000000, 8180.000000, 8177.000000
2093, 108876016.000000, 2558.500000, 8172.000000, 8179.000000, 8171.000000
2094, 108876176.000000, 2963.250000, 8174.000000, 8180.000000, 8175.000000
2095, 108876336.000000, 3230.250000, 8180.000000, 8180.000000, 8177.000000
2096, 108876496.000000, 3338.500000, 8179.000000, 8184.000000, 8181.000000
2097, 108876656.000000, 3306.500000, 8241.000000, 8232.000000, 8254.000000
2098, 108876816.000000, 3159.750000, 8371.000000, 8049.000000, 8137.000000
2099, 108876976.000000, 2911.000000, 8071.000000, 8061.000000, 8036.000000
2100, 108877136.000000, 2598.750000, 8176.000000, 8173.000000, 8179.000000
2101, 108877296.000000, 2272.000000, 8200.000000, 8194.000000, 8196.000000
2102, 108877456.000000, 1988.500000, 8202.000000, 8198.000000, 8198.000000
2103, 108877616.000000, 1780.000000, 8205.000000, 8202.000000, 8204.000000
2104, 108877776.000000, 1659.750000, 8215.000000, 8203.000000, 8211.000000
2105, 108877936.000000, 1614.250000, 8233.000000, 8204.000000, 8218.000000
2106, 108878096.000000, 1608.500000, 8249.000000, 8204.000000, 8221.000000
2107, 108878256.000000, 1612.000000, 8262.000000, 8209.000000, 8231.000000
2108, 108878416.000000, 1603.500000, 8257.000000, 8215.000000, 8239.000000
2109, 108878576.000000, 1586.000000, 8227.000000, 8228.000000, 8246.000000
2110, 108878736.000000, 1560.250000, 8190.000000, 8224.000000, 8228.000000
2111, 108878896.000000, 1508.750000, 8162.000000, 8207.000000, 8200.000000
2112, 108879056.000000, 1428.750000, 8160.000000, 8197.000000, 8187.000000
2113, 108879216.000000, 1337.000000, 8161.000000, 8194.000000, 8185.000000
2114, 108879376.000000, 1252.500000, 8166.000000, 8195.000000, 8189.000000
2115, 108879536.000000, 1184.250000, 8167.000000, 8197.000000, 8192.000000
2116, 108879696.000000, 1124.250000, 8171.000000, 8196.000000, 8195.000000
2117, 108879856.000000, 1069.250000, 8174.000000, 8195.000000, 8194.000000
2118, 108880016.000000, 1019.250000, 8173.000000, 8195.000000, 8192.000000
2119, 108880176.000000, 971.750000, 8176.000000, 8193.000000, 8193.000000
2120, 108880336.000000, 925.000000, 8173.000000, 8193.000000, 8190.000000
2121, 108880496.000000, 878.250000, 8170.000000, 8190.000000, 8185.000000
2122, 108880656.000000, 841.000000, 8170.000000, 8188.000000, 8183.000000
2123, 108880816.000000, 838.250000, 8171.000000, 8188.000000, 8185.000000
2124, 108880976.000000, 931.500000, 8169.000000, 8189.000000, 8185.000000
2125, 108881136.000000, 1180.000000, 8177.000000, 8203.000000, 8212.000000
2126, 108881296.000000, 1595.500000, 8188.000000, 8198.000000, 8206.000000
2127, 108881456.000000, 2083.750000, 8193.000000, 8194.000000, 8202.000000
2128, 108881616.000000, 2546.750000, 8169.000000, 8184.000000, 8176.000000
2129, 108881776.000000, 2897.500000, 8171.000000, 8184.000000, 8177.000000
2130, 108881936.000000, 3109.000000, 8176.000000, 8184.000000, 8179.000000
2131, 108882096.000000, 3162.000000, 8174.000000, 8186.000000, 8179.000000
2132, 108882256.000000, 3075.500000, 8167.000000, 8213.000000, 8208.000000
2133, 108882416.000000, 2876.500000, 8342.000000, 8165.000000, 8226.000000
2134, 108882576.000000, 2600.000000, 8164.000000, 8086.000000, 8106.000000
2135, 108882736.000000, 2300.500000, 8107.000000, 8103.000000, 8090.000000
2136, 108882896.000000, 2024.000000, 8183.000000, 8195.000000, 8192.000000
2137, 108883056.000000, 1800.750000, 8195.000000, 8200.000000, 8197.000000
2138, 108883216.000000, 1641.500000, 8200.000000, 8203.000000, 8203.000000
2139, 108883376.000000, 1550.000000, 8209.000000, 8202.000000, 8206.000000
2140, 108883536.000000, 1512.250000, 8220.000000, 8205.000000, 8213.000000
2141, 108883696.000000, 1503.250000, 8236.000000, 8205.000000, 8219.000000
2142, 108883856.000000, 1503.500000, 8253.000000, 8207.000000, 8225.000000
2143, 108884016.000000, 1486.750000, 8264.000000, 8212.000000, 8237.000000
2144, 108884176.000000, 1447.750000, 8253.000000, 8219.000000, 8241.000000
2145, 108884336.000000, 1389.250000, 8214.000000, 8228.000000, 8238.000000
2146, 108884496.000000, 1323.500000, 8182.000000, 8215.000000, 8212.000000
2147, 108884656.000000, 1265.250000, 8164.000000, 8201.000000, 8190.000000
2148, 108884816.000000, 1211.000000, 8164.000000, 8195.000000, 8184.000000
2149, 108884976.000000, 1145.250000, 8161.000000, 8197.000000, 8186.000000
2150, 108885136.000000, 1069.500000, 8166.000000, 8196.000000, 8188.000000
2151, 108885296.000000, 997.750000, 8168.000000, 8196.000000, 8189.000000
2152, 108885456.000000, 941.250000, 8172.000000, 8198.000000, 8192.000000
2153, 108885616.000000, 901.250000, 8172.000000, 8196.000000, 8190.000000
2154, 108885776.000000, 877.250000, 8177.000000, 8197.000000, 8194.000000
2155, 108885936.000000, 862.250000, 8173.000000, 8196.000000, 8191.000000
2156, 108886096.000000, 850.000000, 8173.000000, 8194.000000, 8185.000000
2157, 108886256.000000, 840.000000, 8174.000000, 8192.000000, 8185.000000
2158, 108886416.000000, 824.250000, 8173.000000, 8192.000000, 8183.000000
2159, 108886576.000000, 826.750000, 8176.000000, 8200.000000, 8200.000000
2160, 108886736.000000, 927.500000, 8180.000000, 8206.000000, 8211.000000
2161, 108886896.000000, 1209.000000, 8190.000000, 8203.000000, 8205.000000
2162, 108887056.000000, 1641.500000, 8179.000000, 8189.000000, 8184.000000
2163, 108887216.000000, 2127.750000, 8163.000000, 8185.000000, 8171.000000
2164, 108887376.000000, 2563.500000, 8159.000000, 8189.000000, 8174.000000
2165, 108887536.000000, 2892.250000, 8159.000000, 8191.000000, 8176.000000
2166, 108887696.000000, 3069.500000, 8157.000000, 8193.000000, 8179.000000
2167, 108887856.000000, 3098.000000, 8186.000000, 8249.000000, 8248.000000
2168, 108888016.000000, 2986.750000, 8438.000000, 8079.000000, 8186.000000
2169, 108888176.000000, 2764.500000, 8053.000000, 8088.000000, 8061.000000
2170, 108888336.000000, 2480.000000, 8147.000000, 8168.000000, 8165.000000
2171, 108888496.000000, 2182.250000, 8185.000000, 8198.000000, 8193.000000
2172, 108888656.000000, 1915.500000, 8197.000000, 8202.000000, 8199.000000
2173, 108888816.000000, 1702.000000, 8203.000000, 8204.000000, 8204.000000
2174, 108888976.000000, 1555.000000, 8213.000000, 8203.000000, 8208.000000
2175, 108889136.000000, 1476.750000, 8221.000000, 8205.000000, 8213.000000
2176, 108889296.000000, 1453.750000, 8239.000000, 8206.000000, 8218.000000
2177, 108889456.000000, 1455.750000, 8250.000000, 8209.000000, 8225.000000
2178, 108889616.000000, 1453.000000, 8249.000000, 8214.000000, 8231.000000
2179, 108889776.000000, 1438.000000, 8221.000000, 8224.000000, 8236.000000
2180, 108889936.000000, 1412.500000, 8182.000000, 8222.000000, 8224.000000
2181, 108890096.000000, 1371.000000, 8160.000000, 8207.000000, 8199.000000
2182, 108890256.000000, 1307.250000, 8151.000000, 8198.000000, 8184.000000
2183, 108890416.000000, 1220.250000, 8150.000000, 8197.000000, 8182.000000
2184, 108890576.000000, 1131.750000, 8158.000000, 8197.000000, 8186.000000
2185, 108890736.000000, 1057.750000, 8167.000000, 8198.000000, 8191.000000
2186, 108890896.000000, 997.750000, 8165.000000, 8196.000000, 8189.000000
2187, 108891056.000000, 932.750000, 8171.000000, 8192.000000, 8187.000000
2188, 108891216.000000, 864.750000, 8171.000000, 8194.000000, 8189.000000
2189, 108891376.000000, 808.750000, 8173.000000, 8194.000000, 8189.000000
2190, 108891536.000000, 775.000000, 8172.000000, 8193.000000, 8187.000000
2191, 108891696.000000, 759.250000, 8176.000000, 8187.000000, 8182.000000
2192, 108891856.000000, 744.500000, 8176.000000, 8183.000000, 8176.000000
2193, 108892016.000000, 732.000000, 8183.000000, 8197.000000, 8204.000000
2194, 108892176.000000, 750.500000, 8188.000000, 8199.000000, 8207.000000
2195, 108892336.000000, 872.000000, 8196.000000, 8194.000000, 8200.000000
2196, 108892496.000000, 1150.000000, 8181.000000, 8179.000000, 8171.000000
2197, 108892656.000000, 1572.000000, 8180.000000, 8175.000000, 8168.000000
2198, 108892816.000000, 2030.750000, 8175.000000, 8178.000000, 8168.000000
2199, 108892976.000000, 2425.250000, 8174.000000, 8182.000000, 8173.000000
2200, 108893136.000000, 2704.750000, 8163.000000, 8226.000000, 8216.000000
2201, 108893296.000000, 2864.500000, 8406.000000, 8138.000000, 8210.000000
2202, 108893456.000000, 2911.500000, 8132.000000, 8136.000000, 8139.000000
2203, 108893616.000000, 2829.000000, 8097.000000, 8119.000000, 8101.000000
2204, 108893776.000000, 2624.000000, 8169.000000, 8195.000000, 8187.000000
2205, 108893936.000000, 2349.500000, 8178.000000, 8205.000000, 8195.000000
2206, 108894096.000000, 2073.500000, 8181.000000, 8206.000000, 8196.000000
2207, 108894256.000000, 1842.500000, 8192.000000, 8203.000000, 8198.000000
2208, 108894416.000000, 1678.500000, 8211.000000, 8203.000000, 8207.000000
2209, 108894576.000000, 1582.750000, 8229.000000, 8203.000000, 8217.000000
2210, 108894736.000000, 1542.750000, 8254.000000, 8202.000000, 8226.000000
2211, 108894896.000000, 1543.000000, 8260.000000, 8203.000000, 8227.000000
2212, 108895056.000000, 1562.000000, 8244.000000, 8209.000000, 8227.000000
2213, 108895216.000000, 1580.500000, 8202.000000, 8219.000000, 8225.000000
2214, 108895376.000000, 1576.000000, 8170.000000, 8212.000000, 8212.000000
2215, 108895536.000000, 1540.000000, 8153.000000, 8201.000000, 8192.000000
2216, 108895696.000000, 1473.250000, 8149.000000, 8194.000000, 8179.000000
2217, 108895856.000000, 1393.000000, 8148.000000, 8195.000000, 8179.000000
2218, 108896016.000000, 1318.750000, 8151.000000, 8197.000000, 8181.000000
2219, 108896176.000000, 1263.000000, 8159.000000, 8197.000000, 8186.000000
2220, 108896336.000000, 1220.000000, 8163.000000, 8199.000000, 8189.000000
2221, 108896496.000000, 1179.250000, 8167.000000, 8194.000000, 8185.000000
2222, 108896656.000000, 1130.250000, 8168.000000, 8193.000000, 8186.000000
2223, 108896816.000000, 1078.500000, 8163.000000, 8193.000000, 8183.000000
2224, 108896976.000000, 1055.000000, 8166.000000, 8191.000000, 8183.000000
2225, 108897136.000000, 1051.750000, 8168.000000, 8188.000000, 8179.000000
2226, 108897296.000000, 1045.500000, 8183.000000, 8195.000000, 8200.000000
2227, 108897456.000000, 1096.250000, 8191.000000, 8198.000000, 8204.000000
2228, 108897616.000000, 1410.500000, 8197.000000, 8195.000000, 8203.000000
2229, 108897776.000000, 1901.500000, 8173.000000, 8188.000000, 8181.000000
2230, 108897936.000000, 2391.750000, 8170.000000, 8183.000000, 8174.000000
2231, 108898096.000000, 2778.000000, 8173.000000, 8182.000000, 8173.000000
2232, 108898256.000000, 3026.250000, 8171.000000, 8182.000000, 8175.000000
2233, 108898416.000000, 3131.000000, 8163.000000, 8201.000000, 8195.000000
2234, 108898576.000000, 3118.000000, 8307.000000, 8199.000000, 8239.000000
2235, 108898736.000000, 3005.250000, 8275.000000, 8138.000000, 8196.000000
2236, 108898896.000000, 2817.500000, 8072.000000, 8103.000000, 8076.000000
2237, 108899056.000000, 2580.000000, 8166.000000, 8178.000000, 8174.000000
2238, 108899216.000000, 2325.750000, 8183.000000, 8196.000000, 8193.000000
2239, 108899376.000000, 2092.750000, 8191.000000, 8198.000000, 8198.000000
2240, 108899536.000000, 1930.250000, 8197.000000, 8201.000000, 8203.000000
2241, 108899696.000000, 1857.250000, 8210.000000, 8196.000000, 8203.000000
2242, 108899856.000000, 1839.000000, 8232.000000, 8196.000000, 8208.000000
2243, 108900016.000000, 1843.250000, 8254.000000, 8197.000000, 8221.000000
2244, 108900176.000000, 1850.500000, 8266.000000, 8200.000000, 8228.000000
2245, 108900336.000000, 1857.250000, 8261.000000, 8205.000000, 8230.000000
2246, 108900496.000000, 1858.000000, 8218.000000, 8215.000000, 8227.000000
2247, 108900656.000000, 1834.000000, 8170.000000, 8213.000000, 8208.000000
2248, 108900816.000000, 1776.000000, 8154.000000, 8206.000000, 8194.000000
2249, 108900976.000000, 1682.500000, 8150.000000, 8200.000000, 8189.000000
2250, 108901136.000000, 1576.750000, 8151.000000, 8201.000000, 8189.000000
2251, 108901296.000000, 1479.000000, 8153.000000, 8197.000000, 8186.000000
2252, 108901456.000000, 1400.500000, 8165.000000, 8199.000000, 8192.000000
2253, 108901616.000000, 1341.500000, 8160.000000, 8200.000000, 8192.000000
2254, 108901776.000000, 1285.250000, 8162.000000, 8201.000000, 8194.000000
2255, 108901936.000000, 1226.000000, 8165.000000, 8198.000000, 8191.000000
2256, 108902096.000000, 1169.250000, 8165.000000, 8195.000000, 8188.000000
2257, 108902256.000000, 1129.250000, 8165.000000, 8192.000000, 8183.000000
2258, 108902416.000000, 1106.500000, 8163.000000, 8203.000000, 8201.000000
2259, 108902576.000000, 1120.500000, 8167.000000, 8207.000000, 8207.000000
2260, 108902736.000000, 1241.750000, 8185.000000, 8204.000000, 8208.000000
2261, 108902896.000000, 1524.750000, 8162.000000, 8190.000000, 8177.000000
2262, 108903056.000000, 1950.250000, 8153.000000, 8181.000000, 8164.000000
2263, 108903216.000000, 2403.500000, 8158.000000, 8182.000000, 8165.000000
2264, 108903376.000000, 2791.250000, 8159.000000, 8184.000000, 8169.000000
2265, 108903536.000000, 3052.500000, 8156.000000, 8194.000000, 8181.000000
2266, 108903696.000000, 3178.750000, 8264.000000, 8209.000000, 8226.000000
2267, 108903856.000000, 3170.000000, 8345.000000, 8124.000000, 8201.000000
2268, 108904016.000000, 3054.500000, 8058.000000, 8104.000000, 8068.000000
2269, 108904176.000000, 2849.750000, 8150.000000, 8171.000000, 8162.000000
2270, 108904336.000000, 2571.250000, 8171.000000, 8195.000000, 8184.000000
2271, 108904496.000000, 2274.000000, 8176.000000, 8196.000000, 8181.000000
2272, 108904656.000000, 2014.000000, 8187.000000, 8196.000000, 8186.000000
2273, 108904816.000000, 1826.500000, 8205.000000, 8195.000000, 8193.000000
2274, 108904976.000000, 1710.500000, 8228.000000, 8194.000000, 8203.000000
2275, 108905136.000000, 1659.000000, 8253.000000, 8195.000000, 8213.000000
2276, 108905296.000000, 1651.750000, 8264.000000, 8194.000000, 8215.000000
2277, 108905456.000000, 1661.000000, 8256.000000, 8200.000000, 8218.000000
2278, 108905616.000000, 1662.500000, 8219.000000, 8214.000000, 8221.000000
2279, 108905776.000000, 1651.000000, 8174.000000, 8215.000000, 8208.000000
2280, 108905936.000000, 1615.500000, 8144.000000, 8202.000000, 8183.000000
2281, 108906096.000000, 1547.000000, 8135.000000, 8195.000000, 8172.000000
2282, 108906256.000000, 1460.000000, 8129.000000, 8194.000000, 8169.000000
2283, 108906416.000000, 1375.000000, 8128.000000, 8197.000000, 8172.000000
2284, 108906576.000000, 1296.250000, 8135.000000, 8200.000000, 8181.000000
2285, 108906736.000000, 1222.250000, 8145.000000, 8199.000000, 8183.000000
2286, 108906896.000000, 1155.750000, 8159.000000, 8195.000000, 8184.000000
2287, 108907056.000000, 1097.500000, 8160.000000, 8192.000000, 8182.000000
2288, 108907216.000000, 1047.500000, 8165.000000, 8192.000000, 8185.000000
2289, 108907376.000000, 1002.500000, 8161.000000, 8193.000000, 8184.000000
2290, 108907536.000000, 963.000000, 8158.000000, 8196.000000, 8187.000000
2291, 108907696.000000, 951.750000, 8170.000000, 8202.000000, 8206.000000
2292, 108907856.000000, 1045.250000, 8187.000000, 8197.000000, 8201.000000
2293, 108908016.000000, 1306.500000, 8181.000000, 8187.000000, 8187.000000
2294, 108908176.000000, 1742.750000, 8169.000000, 8183.000000, 8173.000000
2295, 108908336.000000, 2244.250000, 8166.000000, 8185.000000, 8171.000000
2296, 108908496.000000, 2696.250000, 8165.000000, 8182.000000, 8167.000000
2297, 108908656.000000, 3017.750000, 8172.000000, 8186.000000, 8176.000000
2298, 108908816.000000, 3187.750000, 8181.000000, 8242.000000, 8238.000000
2299, 108908976.000000, 3201.500000, 8544.000000, 8068.000000, 8210.000000
2300, 108909136.000000, 3092.250000, 8069.000000, 8116.000000, 8095.000000
2301, 108909296.000000, 2899.000000, 8136.000000, 8160.000000, 8154.000000
2302, 108909456.000000, 2652.000000, 8176.000000, 8197.000000, 8186.000000
2303, 108909616.000000, 2389.250000, 8192.000000, 8200.000000, 8193.000000
2304, 108909776.000000, 2142.750000, 8205.000000, 8200.000000, 8198.000000
2305, 108909936.000000, 1946.000000, 8222.000000, 8200.000000, 8203.000000
2306, 108910096.000000, 1815.000000, 8232.000000, 8196.000000, 8204.000000
2307, 108910256.000000, 1751.000000, 8257.000000, 8195.000000, 8213.000000
2308, 108910416.000000, 1734.250000, 8290.000000, 8197.000000, 8223.000000
2309, 108910576.000000, 1742.750000, 8304.000000, 8200.000000, 8232.000000
2310, 108910736.000000, 1751.500000, 8279.000000, 8212.000000, 8239.000000
2311, 108910896.000000, 1746.500000, 8224.000000, 8217.000000, 8225.000000
2312, 108911056.000000, 1719.000000, 8185.000000, 8208.000000, 8199.000000
2313, 108911216.000000, 1674.000000, 8160.000000, 8199.000000, 8181.000000
2314, 108911376.000000, 1623.500000, 8157.000000, 8198.000000, 8180.000000
2315, 108911536.000000, 1569.250000, 8157.000000, 8196.000000, 8180.000000
2316, 108911696.000000, 1509.250000, 8160.000000, 8197.000000, 8179.000000
2317, 108911856.000000, 1439.250000, 8155.000000, 8202.000000, 8185.000000
2318, 108912016.000000, 1364.750000, 8157.000000, 8203.000000, 8187.000000
2319, 108912176.000000, 1296.500000, 8166.000000, 8200.000000, 8188.000000
2320, 108912336.000000, 1237.750000, 8173.000000, 8197.000000, 8188.000000
2321, 108912496.000000, 1187.000000, 8169.000000, 8194.000000, 8182.000000
2322, 108912656.000000, 1141.000000, 8176.000000, 8205.000000, 8207.000000
2323, 108912816.000000, 1113.250000, 8186.000000, 8206.000000, 8211.000000
2324, 108912976.000000, 1169.500000, 8193.000000, 8200.000000, 8202.000000
2325, 108913136.000000, 1383.000000, 8171.000000, 8186.000000, 8171.000000
2326, 108913296.000000, 1782.250000, 8168.000000, 8182.000000, 8165.000000
2327, 108913456.000000, 2278.000000, 8173.000000, 8180.000000, 8165.000000
2328, 108913616.000000, 2766.250000, 8176.000000, 8184.000000, 8171.000000
2329, 108913776.000000, 3156.250000, 8165.000000, 8216.000000, 8209.000000
2330, 108913936.000000, 3399.000000, 8380.000000, 8153.000000, 8219.000000
2331, 108914096.000000, 3461.250000, 8197.000000, 8135.000000, 8161.000000
2332, 108914256.000000, 3351.750000, 8095.000000, 8104.000000, 8077.000000
2333, 108914416.000000, 3111.750000, 8177.000000, 8186.000000, 8179.000000
2334, 108914576.000000, 2806.500000, 8196.000000, 8198.000000, 8192.000000
2335, 108914736.000000, 2500.250000, 8202.000000, 8201.000000, 8195.000000
2336, 108914896.000000, 2239.000000, 8206.000000, 8202.000000, 8199.000000
2337, 108915056.000000, 2035.000000, 8227.000000, 8199.000000, 8205.000000
2338, 108915216.000000, 1888.000000, 8247.000000, 8197.000000, 8211.000000
2339, 108915376.000000, 1798.000000, 8275.000000, 8201.000000, 8227.000000
2340, 108915536.000000, 1757.750000, 8285.000000, 8207.000000, 8234.000000
2341, 108915696.000000, 1756.000000, 8267.000000, 8216.000000, 8239.000000
2342, 108915856.000000, 1767.000000, 8221.000000, 8224.000000, 8234.000000
2343, 108916016.000000, 1769.750000, 8185.000000, 8217.000000, 8210.000000
2344, 108916176.000000, 1750.500000, 8169.000000, 8206.000000, 8194.000000
2345, 108916336.000000, 1708.750000, 8169.000000, 8200.000000, 8188.000000
2346, 108916496.000000, 1656.500000, 8173.000000, 8197.000000, 8186.000000
2347, 108916656.000000, 1600.750000, 8169.000000, 8197.000000, 8183.000000
2348, 108916816.000000, 1542.250000, 8175.000000, 8200.000000, 8192.000000
2349, 108916976.000000, 1485.750000, 8186.000000, 8200.000000, 8195.000000
2350, 108917136.000000, 1426.250000, 8189.000000, 8196.000000, 8193.000000
2351, 108917296.000000, 1368.000000, 8186.000000, 8195.000000, 8190.000000
2352, 108917456.000000, 1308.500000, 8181.000000, 8194.000000, 8188.000000
2353, 108917616.000000, 1261.750000, 8191.000000, 8206.000000, 8216.000000
2354, 108917776.000000, 1228.000000, 8203.000000, 8206.000000, 8220.000000
2355, 108917936.000000, 1222.750000, 8207.000000, 8198.000000, 8209.000000
2356, 108918096.000000, 1311.250000, 8181.000000, 8182.000000, 8174.000000
2357, 108918256.000000, 1565.500000, 8179.000000, 8181.000000, 8168.000000
2358, 108918416.000000, 2011.250000, 8186.000000, 8180.000000, 8169.000000
2359, 108918576.000000, 2533.000000, 8190.000000, 8182.000000, 8176.000000
2360, 108918736.000000, 3010.000000, 8176.000000, 8214.000000, 8207.000000
2361, 108918896.000000, 3358.000000, 8369.000000, 8158.000000, 8221.000000
2362, 108919056.000000, 3564.500000, 8192.000000, 8119.000000, 8142.000000
2363, 108919216.000000, 3614.250000, 8102.000000, 8095.000000, 8072.000000
2364, 108919376.000000, 3518.750000, 8189.000000, 8184.000000, 8181.000000
2365, 108919536.000000, 3314.750000, 8206.000000, 8196.000000, 8193.000000
2366, 108919696.000000, 3046.750000, 8208.000000, 8199.000000, 8197.000000
2367, 108919856.000000, 2763.000000, 8219.000000, 8197.000000, 8200.000000
2368, 108920016.000000, 2494.500000, 8236.000000, 8198.000000, 8210.000000
2369, 108920176.000000, 2271.250000, 8254.000000, 8200.000000, 8216.000000
2370, 108920336.000000, 2106.750000, 8276.000000, 8200.000000, 8225.000000
2371, 108920496.000000, 2008.500000, 8284.000000, 8206.000000, 8234.000000
2372, 108920656.000000, 1965.250000, 8266.000000, 8214.000000, 8240.000000
2373, 108920816.000000, 1954.500000, 8215.000000, 8224.000000, 8234.000000
2374, 108920976.000000, 1949.750000, 8178.000000, 8214.000000, 8210.000000
2375, 108921136.000000, 1945.750000, 8162.000000, 8202.000000, 8189.000000
2376, 108921296.000000, 1938.250000, 8161.000000, 8196.000000, 8181.000000
2377, 108921456.000000, 1913.250000, 8165.000000, 8194.000000, 8181.000000
2378, 108921616.000000, 1860.250000, 8163.000000, 8196.000000, 8184.000000
2379, 108921776.000000, 1773.500000, 8168.000000, 8198.000000, 8189.000000
2380, 108921936.000000, 1673.500000, 8170.000000, 8200.000000, 8191.000000
2381, 108922096.000000, 1584.250000, 8172.000000, 8198.000000, 8192.000000
2382, 108922256.000000, 1517.500000, 8173.000000, 8194.000000, 8187.000000
2383, 108922416.000000, 1464.250000, 8174.000000, 8198.000000, 8195.000000
2384, 108922576.000000, 1412.000000, 8180.000000, 8211.000000, 8220.000000
2385, 108922736.000000, 1351.750000, 8194.000000, 8203.000000, 8211.000000
2386, 108922896.000000, 1313.250000, 8188.000000, 8192.000000, 8196.000000
2387, 108923056.000000, 1375.500000, 8175.000000, 8182.000000, 8172.000000
2388, 108923216.000000, 1618.750000, 8177.000000, 8181.000000, 8172.000000
2389, 108923376.000000, 2039.750000, 8180.000000, 8184.000000, 8177.000000
2390, 108923536.000000, 2541.000000, 8185.000000, 8186.000000, 8179.000000
2391, 108923696.000000, 3009.000000, 8181.000000, 8248.000000, 8250.000000
2392, 108923856.000000, 3379.500000, 8483.000000, 8081.000000, 8194.000000
2393, 108924016.000000, 3615.000000, 8080.000000, 8093.000000, 8078.000000
2394, 108924176.000000, 3712.000000, 8144.000000, 8135.000000, 8130.000000
2395, 108924336.000000, 3661.750000, 8189.000000, 8197.000000, 8194.000000
2396, 108924496.000000, 3479.750000, 8201.000000, 8202.000000, 8201.000000
2397, 108924656.000000, 3193.750000, 8207.000000, 8204.000000, 8205.000000
2398, 108924816.000000, 2856.000000, 8216.000000, 8204.000000, 8211.000000
2399, 108924976.000000, 2537.250000, 8231.000000, 8205.000000, 8218.000000
2400, 108925136.000000, 2285.500000, 8250.000000, 8207.000000, 8225.000000
2401, 108925296.000000, 2116.500000, 8274.000000, 8209.000000, 8233.000000
2402, 108925456.000000, 2020.500000, 8278.000000, 8216.000000, 8246.000000
2403, 108925616.000000, 1984.000000, 8255.000000, 8228.000000, 8251.000000
2404, 108925776.000000, 1989.250000, 8204.000000, 8233.000000, 8240.000000
2405, 108925936.000000, 2012.750000, 8169.000000, 8217.000000, 8209.000000
2406, 108926096.000000, 2019.750000, 8161.000000, 8202.000000, 8189.000000
2407, 108926256.000000, 1993.000000, 8163.000000, 8198.000000, 8186.000000
2408, 108926416.000000, 1938.250000, 8161.000000, 8202.000000, 8189.000000
2409, 108926576.000000, 1867.250000, 8162.000000, 8202.000000, 8191.000000
2410, 108926736.000000, 1791.250000, 8167.000000, 8202.000000, 8193.000000
2411, 108926896.000000, 1712.000000, 8167.000000, 8200.000000, 8191.000000
2412, 108927056.000000, 1632.250000, 8169.000000, 8201.000000, 8193.000000
2413, 108927216.000000, 1558.250000, 8176.000000, 8199.000000, 8192.000000
2414, 108927376.000000, 1489.500000, 8180.000000, 8207.000000, 8210.000000
2415, 108927536.000000, 1424.500000, 8183.000000, 8212.000000, 8217.000000
2416, 108927696.000000, 1364.750000, 8197.000000, 8204.000000, 8210.000000
2417, 108927856.000000, 1338.000000, 8182.000000, 8190.000000, 8185.000000
2418, 108928016.000000, 1415.250000, 8175.000000, 8184.000000, 8174.000000
2419, 108928176.000000, 1681.500000, 8179.000000, 8183.000000, 8176.000000
2420, 108928336.000000, 2107.500000, 8182.000000, 8182.000000, 8177.000000
2421, 108928496.000000, 2594.750000, 8181.000000, 8184.000000, 8178.000000
2422, 108928656.000000, 3031.750000, 8225.000000, 8236.000000, 8253.000000
2423, 108928816.000000, 3352.250000, 8411.000000, 8051.000000, 8148.000000
2424, 108928976.000000, 3526.750000, 8066.000000, 8083.000000, 8060.000000
2425, 108929136.000000, 3553.000000, 8162.000000, 8158.000000, 8157.000000
2426, 108929296.000000, 3461.500000, 8189.000000, 8194.000000, 8189.000000
2427, 108929456.000000, 3262.750000, 8196.000000, 8198.000000, 8196.000000
2428, 108929616.000000, 2989.750000, 8204.000000, 8201.000000, 8202.000000
2429, 108929776.000000, 2685.500000, 8213.000000, 8201.000000, 8208.000000
2430, 108929936.000000, 2402.750000, 8228.000000, 8205.000000, 8216.000000
2431, 108930096.000000, 2181.000000, 8260.000000, 8201.000000, 8221.000000
2432, 108930256.000000, 2038.500000, 8272.000000, 8207.000000, 8233.000000
2433, 108930416.000000, 1973.000000, 8261.000000, 8217.000000, 8242.000000
2434, 108930576.000000, 1958.750000, 8226.000000, 8234.000000, 8250.000000
2435, 108930736.000000, 1970.750000, 8190.000000, 8226.000000, 8230.000000
2436, 108930896.000000, 1970.750000, 8161.000000, 8209.000000, 8198.000000
2437, 108931056.000000, 1953.500000, 8152.000000, 8198.000000, 8183.000000
2438, 108931216.000000, 1922.250000, 8157.000000, 8195.000000, 8183.000000
2439, 108931376.000000, 1882.500000, 8158.000000, 8197.000000, 8186.000000
2440, 108931536.000000, 1825.500000, 8162.000000, 8197.000000, 8188.000000
2441, 108931696.000000, 1737.750000, 8163.000000, 8195.000000, 8185.000000
2442, 108931856.000000, 1637.750000, 8171.000000, 8194.000000, 8185.000000
2443, 108932016.000000, 1553.500000, 8174.000000, 8194.000000, 8187.000000
2444, 108932176.000000, 1496.250000, 8176.000000, 8194.000000, 8187.000000
2445, 108932336.000000, 1445.500000, 8181.000000, 8202.000000, 8204.000000
2446, 108932496.000000, 1375.250000, 8183.000000, 8204.000000, 8209.000000
2447, 108932656.000000, 1303.000000, 8196.000000, 8197.000000, 8201.000000
2448, 108932816.000000, 1279.750000, 8178.000000, 8182.000000, 8178.000000
2449, 108932976.000000, 1392.750000, 8170.000000, 8180.000000, 8167.000000
2450, 108933136.000000, 1676.500000, 8171.000000, 8180.000000, 8167.000000
2451, 108933296.000000, 2096.250000, 8168.000000, 8180.000000, 8165.000000
2452, 108933456.000000, 2546.750000, 8169.000000, 8188.000000, 8178.000000
2453, 108933616.000000, 2948.250000, 8253.000000, 8228.000000, 8254.000000
2454, 108933776.000000, 3245.000000, 8321.000000, 8062.000000, 8127.000000
2455, 108933936.000000, 3413.500000, 8061.000000, 8074.000000, 8046.000000
2456, 108934096.000000, 3437.000000, 8163.000000, 8167.000000, 8159.000000
2457, 108934256.000000, 3321.500000, 8192.000000, 8197.000000, 8190.000000
2458, 108934416.000000, 3101.250000, 8194.000000, 8201.000000, 8198.000000
2459, 108934576.000000, 2806.500000, 8206.000000, 8205.000000, 8209.000000
2460, 108934736.000000, 2508.250000, 8220.000000, 8202.000000, 8210.000000
2461, 108934896.000000, 2251.500000, 8234.000000, 8203.000000, 8214.000000
2462, 108935056.000000, 2057.000000, 8259.000000, 8206.000000, 8224.000000
2463, 108935216.000000, 1919.500000, 8272.000000, 8215.000000, 8239.000000
2464, 108935376.000000, 1837.000000, 8267.000000, 8224.000000, 8249.000000
2465, 108935536.000000, 1810.500000, 8231.000000, 8237.000000, 8252.000000
2466, 108935696.000000, 1826.000000, 8185.000000, 8224.000000, 8224.000000
2467, 108935856.000000, 1857.750000, 8167.000000, 8207.000000, 8198.000000
2468, 108936016.000000, 1877.250000, 8165.000000, 8198.000000, 8187.000000
2469, 108936176.000000, 1867.250000, 8167.000000, 8196.000000, 8185.000000
2470, 108936336.000000, 1824.750000, 8160.000000, 8198.000000, 8186.000000
2471, 108936496.000000, 1750.500000, 8160.000000, 8194.000000, 8182.000000
2472, 108936656.000000, 1661.000000, 8170.000000, 8196.000000, 8187.000000
2473, 108936816.000000, 1576.000000, 8173.000000, 8197.000000, 8190.000000
2474, 108936976.000000, 1502.750000, 8171.000000, 8197.000000, 8190.000000
2475, 108937136.000000, 1442.750000, 8172.000000, 8192.000000, 8186.000000
2476, 108937296.000000, 1391.750000, 8174.000000, 8188.000000, 8181.000000
2477, 108937456.000000, 1341.000000, 8181.000000, 8202.000000, 8206.000000
2478, 108937616.000000, 1285.000000, 8184.000000, 8205.000000, 8211.000000
2479, 108937776.000000, 1262.500000, 8191.000000, 8201.000000, 8207.000000
2480, 108937936.000000, 1355.500000, 8171.000000, 8185.000000, 8174.000000
2481, 108938096.000000, 1634.500000, 8169.000000, 8178.000000, 8164.000000
2482, 108938256.000000, 2056.750000, 8170.000000, 8177.000000, 8162.000000
2483, 108938416.000000, 2524.000000, 8169.000000, 8180.000000, 8164.000000
2484, 108938576.000000, 2939.250000, 8166.000000, 8195.000000, 8183.000000
2485, 108938736.000000, 3258.750000, 8269.000000, 8224.000000, 8254.000000
2486, 108938896.000000, 3436.500000, 8277.000000, 8037.000000, 8083.000000
2487, 108939056.000000, 3462.500000, 8074.000000, 8062.000000, 8027.000000
2488, 108939216.000000, 3340.500000, 8170.000000, 8181.000000, 8174.000000
2489, 108939376.000000, 3105.000000, 8186.000000, 8199.000000, 8192.000000
2490, 108939536.000000, 2806.000000, 8189.000000, 8203.000000, 8198.000000
2491, 108939696.000000, 2485.750000, 8198.000000, 8203.000000, 8200.000000
2492, 108939856.000000, 2192.000000, 8206.000000, 8201.000000, 8201.000000
2493, 108940016.000000, 1962.500000, 8225.000000, 8204.000000, 8213.000000
2494, 108940176.000000, 1823.750000, 8250.000000, 8207.000000, 8225.000000
2495, 108940336.000000, 1756.250000, 8260.000000, 8212.000000, 8236.000000
2496, 108940496.000000, 1734.250000, 8253.000000, 8219.000000, 8241.000000
2497, 108940656.000000, 1727.500000, 8215.000000, 8229.000000, 8239.000000
2498, 108940816.000000, 1719.250000, 8179.000000, 8214.000000, 8214.000000
2499, 108940976.000000, 1697.500000, 8156.000000, 8201.000000, 8190.000000
2500, 108941136.000000, 1660.000000, 8148.000000, 8194.000000, 8178.000000
2501, 108941296.000000, 1602.500000, 8152.000000, 8191.000000, 8174.000000
2502, 108941456.000000, 1533.500000, 8156.000000, 8189.000000, 8174.000000
2503, 108941616.000000, 1454.500000, 8158.000000, 8193.000000, 8180.000000
2504, 108941776.000000, 1364.750000, 8162.000000, 8194.000000, 8185.000000
2505, 108941936.000000, 1270.500000, 8166.000000, 8192.000000, 8184.000000
2506, 108942096.000000, 1183.250000, 8167.000000, 8191.000000, 8182.000000
2507, 108942256.000000, 1113.250000, 8166.000000, 8187.000000, 8179.000000
2508, 108942416.000000, 1058.750000, 8169.000000, 8187.000000, 8179.000000
2509, 108942576.000000, 1008.000000, 8171.000000, 8186.000000, 8181.000000
2510, 108942736.000000, 964.250000, 8171.000000, 8188.000000, 8181.000000
2511, 108942896.000000, 972.250000, 8177.000000, 8201.000000, 8208.000000
2512, 108943056.000000, 1123.000000, 8185.000000, 8195.000000, 8199.000000
2513, 108943216.000000, 1479.500000, 8187.000000, 8188.000000, 8190.000000
2514, 108943376.000000, 1975.500000, 8170.000000, 8182.000000, 8169.000000
2515, 108943536.000000, 2483.500000, 8169.000000, 8180.000000, 8168.000000
2516, 108943696.000000, 2887.500000, 8171.000000, 8178.000000, 8167.000000
2517, 108943856.000000, 3148.750000, 8175.000000, 8179.000000, 8169.000000
2518, 108944016.000000, 3264.000000, 8169.000000, 8238.000000, 8238.000000
2519, 108944176.000000, 3250.750000, 8416.000000, 8075.000000, 8169.000000
2520, 108944336.000000, 3115.750000, 8070.000000, 8038.000000, 8022.000000
2521, 108944496.000000, 2871.250000, 8140.000000, 8136.000000, 8133.000000
2522, 108944656.000000, 2556.250000, 8187.000000, 8198.000000, 8192.000000
2523, 108944816.000000, 2223.500000, 8197.000000, 8202.000000, 8199.000000
2524, 108944976.000000, 1934.500000, 8198.000000, 8207.000000, 8206.000000
2525, 108945136.000000, 1721.000000, 8208.000000, 8205.000000, 8207.000000
2526, 108945296.000000, 1592.500000, 8216.000000, 8204.000000, 8209.000000
2527, 108945456.000000, 1530.250000, 8234.000000, 8203.000000, 8216.000000
2528, 108945616.000000, 1509.500000, 8259.000000, 8206.000000, 8228.000000
2529, 108945776.000000, 1510.500000, 8266.000000, 8212.000000, 8238.000000
2530, 108945936.000000, 1510.500000, 8242.000000, 8222.000000, 8240.000000
2531, 108946096.000000, 1500.750000, 8197.000000, 8229.000000, 8231.000000
2532, 108946256.000000, 1470.500000, 8167.000000, 8214.000000, 8205.000000
2533, 108946416.000000, 1418.000000, 8157.000000, 8202.000000, 8188.000000
2534, 108946576.000000, 1352.750000, 8158.000000, 8198.000000, 8185.000000
2535, 108946736.000000, 1282.000000, 8155.000000, 8199.000000, 8184.000000
2536, 108946896.000000, 1214.500000, 8158.000000, 8198.000000, 8183.000000
2537, 108947056.000000, 1151.250000, 8164.000000, 8199.000000, 8188.000000
2538, 108947216.000000, 1091.000000, 8167.000000, 8202.000000, 8193.000000
2539, 108947376.000000, 1033.500000, 8169.000000, 8202.000000, 8194.000000
2540, 108947536.000000, 985.750000, 8173.000000, 8198.000000, 8191.000000
2541, 108947696.000000, 947.500000, 8171.000000, 8193.000000, 8184.000000
2542, 108947856.000000, 912.500000, 8172.000000, 8194.000000, 8186.000000
2543, 108948016.000000, 876.500000, 8170.000000, 8195.000000, 8186.000000
2544, 108948176.000000, 852.250000, 8174.000000, 8196.000000, 8189.000000
2545, 108948336.000000, 924.750000, 8176.000000, 8208.000000, 8212.000000
2546, 108948496.000000, 1167.750000, 8176.000000, 8204.000000, 8204.000000
2547, 108948656.000000, 1607.000000, 8191.000000, 8203.000000, 8207.000000
2548, 108948816.000000, 2129.250000, 8173.000000, 8190.000000, 8179.000000
2549, 108948976.000000, 2622.250000, 8165.000000, 8190.000000, 8177.000000
2550, 108949136.000000, 2994.250000, 8162.000000, 8188.000000, 8173.000000
2551, 108949296.000000, 3215.250000, 8167.000000, 8187.000000, 8174.000000
2552, 108949456.000000, 3270.250000, 8169.000000, 8195.000000, 8185.000000
2553, 108949616.000000, 3176.500000, 8240.000000, 8241.000000, 8260.000000
2554, 108949776.000000, 2976.750000, 8359.000000, 8051.000000, 8135.000000
2555, 108949936.000000, 2705.750000, 8063.000000, 8069.000000, 8036.000000
2556, 108950096.000000, 2401.750000, 8167.000000, 8189.000000, 8184.000000
2557, 108950256.000000, 2101.500000, 8190.000000, 8208.000000, 8204.000000
2558, 108950416.000000, 1849.750000, 8190.000000, 8212.000000, 8208.000000
2559, 108950576.000000, 1672.000000, 8201.000000, 8216.000000, 8215.000000
2560, 108950736.000000, 1578.250000, 8214.000000, 8213.000000, 8217.000000
2561, 108950896.000000, 1552.750000, 8228.000000, 8214.000000, 8221.000000
2562, 108951056.000000, 1559.000000, 8249.000000, 8213.000000, 8228.000000
2563, 108951216.000000, 1568.250000, 8266.000000, 8215.000000, 8237.000000
2564, 108951376.000000, 1571.750000, 8262.000000, 8224.000000, 8248.000000
2565, 108951536.000000, 1565.250000, 8226.000000, 8235.000000, 8249.000000
2566, 108951696.000000, 1530.000000, 8181.000000, 8229.000000, 8227.000000
2567, 108951856.000000, 1465.750000, 8164.000000, 8212.000000, 8201.000000
2568, 108952016.000000, 1381.750000, 8160.000000, 8205.000000, 8195.000000
2569, 108952176.000000, 1304.250000, 8160.000000, 8203.000000, 8193.000000
2570, 108952336.000000, 1242.250000, 8157.000000, 8205.000000, 8193.000000
2571, 108952496.000000, 1187.500000, 8158.000000, 8205.000000, 8192.000000
2572, 108952656.000000, 1130.000000, 8160.000000, 8206.000000, 8196.000000
2573, 108952816.000000, 1071.750000, 8162.000000, 8206.000000, 8199.000000
2574, 108952976.000000, 1012.500000, 8162.000000, 8205.000000, 8198.000000
2575, 108953136.000000, 960.750000, 8167.000000, 8205.000000, 8198.000000
2576, 108953296.000000, 918.500000, 8162.000000, 8203.000000, 8194.000000
2577, 108953456.000000, 882.750000, 8164.000000, 8199.000000, 8188.000000
2578, 108953616.000000, 845.250000, 8165.000000, 8198.000000, 8189.000000
2579, 108953776.000000, 840.000000, 8169.000000, 8199.000000, 8191.000000
2580, 108953936.000000, 952.750000, 8167.000000, 8202.000000, 8195.000000
2581, 108954096.000000, 1241.250000, 8174.000000, 8212.000000, 8217.000000
2582, 108954256.000000, 1694.000000, 8183.000000, 8208.000000, 8209.000000
2583, 108954416.000000, 2189.750000, 8180.000000, 8199.000000, 8196.000000
2584, 108954576.000000, 2625.500000, 8162.000000, 8193.000000, 8180.000000
2585, 108954736.000000, 2943.500000, 8163.000000, 8191.000000, 8177.000000
2586, 108954896.000000, 3127.750000, 8166.000000, 8185.000000, 8173.000000
2587, 108955056.000000, 3160.750000, 8166.000000, 8189.000000, 8177.000000
2588, 108955216.000000, 3058.250000, 8162.000000, 8252.000000, 8247.000000
2589, 108955376.000000, 2845.250000, 8487.000000, 8058.000000, 8180.000000
2590, 108955536.000000, 2546.000000, 8057.000000, 8071.000000, 8046.000000
2591, 108955696.000000, 2229.750000, 8138.000000, 8161.000000, 8154.000000
2592, 108955856.000000, 1951.000000, 8180.000000, 8203.000000, 8194.000000
2593, 108956016.000000, 1744.500000, 8192.000000, 8206.000000, 8199.000000
2594, 108956176.000000, 1612.500000, 8195.000000, 8209.000000, 8204.000000
2595, 108956336.000000, 1551.000000, 8203.000000, 8209.000000, 8206.000000
2596, 108956496.000000, 1535.750000, 8220.000000, 8207.000000, 8211.000000
2597, 108956656.000000, 1549.000000, 8242.000000, 8207.000000, 8219.000000
2598, 108956816.000000, 1568.500000, 8255.000000, 8210.000000, 8229.000000
2599, 108956976.000000, 1577.750000, 8260.000000, 8217.000000, 8239.000000
2600, 108957136.000000, 1564.750000, 8239.000000, 8224.000000, 8240.000000
2601, 108957296.000000, 1517.250000, 8194.000000, 8224.000000, 8226.000000
2602, 108957456.000000, 1442.500000, 8163.000000, 8214.000000, 8204.000000
2603, 108957616.000000, 1355.000000, 8152.000000, 8203.000000, 8186.000000
2604, 108957776.000000, 1265.250000, 8158.000000, 8199.000000, 8184.000000
2605, 108957936.000000, 1182.000000, 8155.000000, 8198.000000, 8181.000000
2606, 108958096.000000, 1115.250000, 8159.000000, 8196.000000, 8181.000000
2607, 108958256.000000, 1061.000000, 8167.000000, 8197.000000, 8186.000000
2608, 108958416.000000, 1021.750000, 8176.000000, 8195.000000, 8188.000000
2609, 108958576.000000, 990.750000, 8172.000000, 8196.000000, 8188.000000
2610, 108958736.000000, 963.500000, 8166.000000, 8197.000000, 8187.000000
2611, 108958896.000000, 926.000000, 8166.000000, 8192.000000, 8178.000000
2612, 108959056.000000, 885.500000, 8170.000000, 8189.000000, 8178.000000
2613, 108959216.000000, 854.750000, 8168.000000, 8191.000000, 8180.000000
2614, 108959376.000000, 832.750000, 8172.000000, 8189.000000, 8179.000000
2615, 108959536.000000, 847.750000, 8179.000000, 8202.000000, 8206.000000
2616, 108959696.000000, 973.750000, 8187.000000, 8196.000000, 8198.000000
2617, 108959856.000000, 1278.500000, 8192.000000, 8193.000000, 8196.000000
2618, 108960016.000000, 1711.500000, 8175.000000, 8178.000000, 8168.000000
2619, 108960176.000000, 2166.250000, 8174.000000, 8177.000000, 8164.000000
2620, 108960336.000000, 2534.500000, 8170.000000, 8177.000000, 8162.000000
2621, 108960496.000000, 2778.250000, 8166.000000, 8176.000000, 8160.000000
2622, 108960656.000000, 2883.750000, 8158.000000, 8214.000000, 8199.000000
2623, 108960816.000000, 2867.000000, 8389.000000, 8140.000000, 8214.000000
2624, 108960976.000000, 2742.750000, 8138.000000, 8104.000000, 8113.000000
2625, 108961136.000000, 2523.000000, 8108.000000, 8113.000000, 8100.000000
2626, 108961296.000000, 2245.750000, 8179.000000, 8187.000000, 8182.000000
2627, 108961456.000000, 1959.500000, 8191.000000, 8194.000000, 8187.000000
2628, 108961616.000000, 1725.250000, 8197.000000, 8196.000000, 8193.000000
2629, 108961776.000000, 1567.750000, 8206.000000, 8197.000000, 8199.000000
2630, 108961936.000000, 1487.500000, 8215.000000, 8196.000000, 8202.000000
2631, 108962096.000000, 1462.500000, 8233.000000, 8196.000000, 8208.000000
2632, 108962256.000000, 1471.000000, 8252.000000, 8197.000000, 8216.000000
2633, 108962416.000000, 1491.000000, 8264.000000, 8202.000000, 8227.000000
2634, 108962576.000000, 1509.250000, 8249.000000, 8210.000000, 8229.000000
2635, 108962736.000000, 1521.000000, 8207.000000, 8216.000000, 8223.000000
2636, 108962896.000000, 1524.250000, 8175.000000, 8205.000000, 8201.000000
2637, 108963056.000000, 1511.000000, 8159.000000, 8196.000000, 8183.000000
2638, 108963216.000000, 1481.250000, 8157.000000, 8194.000000, 8180.000000
2639, 108963376.000000, 1437.000000, 8158.000000, 8195.000000, 8184.000000
2640, 108963536.000000, 1382.500000, 8161.000000, 8192.000000, 8181.000000
2641, 108963696.000000, 1323.250000, 8164.000000, 8194.000000, 8183.000000
2642, 108963856.000000, 1264.000000, 8166.000000, 8194.000000, 8184.000000
2643, 108964016.000000, 1204.750000, 8164.000000, 8194.000000, 8185.000000
2644, 108964176.000000, 1148.000000, 8165.000000, 8196.000000, 8187.000000
2645, 108964336.000000, 1102.250000, 8166.000000, 8190.000000, 8182.000000
2646, 108964496.000000, 1064.750000, 8166.000000, 8187.000000, 8179.000000
2647, 108964656.000000, 1033.250000, 8167.000000, 8188.000000, 8181.000000
2648, 108964816.000000, 996.000000, 8166.000000, 8188.000000, 8180.000000
2649, 108964976.000000, 965.000000, 8173.000000, 8202.000000, 8208.000000
2650, 108965136.000000, 990.250000, 8180.000000, 8198.000000, 8203.000000
2651, 108965296.000000, 1153.000000, 8192.000000, 8192.000000, 8199.000000
2652, 108965456.000000, 1472.750000, 8169.000000, 8178.000000, 8168.000000
2653, 108965616.000000, 1884.750000, 8166.000000, 8176.000000, 8164.000000
2654, 108965776.000000, 2281.750000, 8171.000000, 8178.000000, 8169.000000
2655, 108965936.000000, 2592.250000, 8175.000000, 8179.000000, 8171.000000
2656, 108966096.000000, 2779.250000, 8162.000000, 8215.000000, 8208.000000
2657, 108966256.000000, 2838.000000, 8410.000000, 8134.000000, 8218.000000
2658, 108966416.000000, 2782.000000, 8138.000000, 8124.000000, 8137.000000
2659, 108966576.000000, 2613.500000, 8104.000000, 8116.000000, 8101.000000
2660, 108966736.000000, 2361.250000, 8174.000000, 8187.000000, 8180.000000
2661, 108966896.000000, 2067.750000, 8192.000000, 8192.000000, 8187.000000
2662, 108967056.000000, 1794.000000, 8203.000000, 8191.000000, 8193.000000
2663, 108967216.000000, 1585.500000, 8212.000000, 8194.000000, 8200.000000
2664, 108967376.000000, 1460.000000, 8221.000000, 8197.000000, 8207.000000
2665, 108967536.000000, 1406.000000, 8239.000000, 8199.000000, 8213.000000
2666, 108967696.000000, 1394.750000, 8258.000000, 8199.000000, 8216.000000
2667, 108967856.000000, 1409.750000, 8265.000000, 8201.000000, 8225.000000
2668, 108968016.000000, 1433.250000, 8248.000000, 8207.000000, 8231.000000
2669, 108968176.000000, 1448.250000, 8207.000000, 8214.000000, 8225.000000
2670, 108968336.000000, 1441.250000, 8169.000000, 8209.000000, 8205.000000
2671, 108968496.000000, 1412.750000, 8155.000000, 8199.000000, 8184.000000
2672, 108968656.000000, 1365.250000, 8155.000000, 8193.000000, 8178.000000
2673, 108968816.000000, 1306.000000, 8161.000000, 8192.000000, 8183.000000
2674, 108968976.000000, 1249.000000, 8170.000000, 8192.000000, 8187.000000
2675, 108969136.000000, 1199.000000, 8174.000000, 8192.000000, 8189.000000
2676, 108969296.000000, 1150.750000, 8175.000000, 8190.000000, 8188.000000
2677, 108969456.000000, 1097.500000, 8180.000000, 8191.000000, 8188.000000
2678, 108969616.000000, 1047.500000, 8181.000000, 8193.000000, 8189.000000
2679, 108969776.000000, 1008.250000, 8175.000000, 8190.000000, 8184.000000
2680, 108969936.000000, 979.250000, 8173.000000, 8190.000000, 8183.000000
2681, 108970096.000000, 950.250000, 8168.000000, 8191.000000, 8186.000000
2682, 108970256.000000, 918.750000, 8177.000000, 8207.000000, 8214.000000
2683, 108970416.000000, 895.250000, 8192.000000, 8201.000000, 8208.000000
2684, 108970576.000000, 933.500000, 8189.000000, 8189.000000, 8192.000000
2685, 108970736.000000, 1096.250000, 8173.000000, 8180.000000, 8171.000000
2686, 108970896.000000, 1423.750000, 8172.000000, 8178.000000, 8168.000000
2687, 108971056.000000, 1841.250000, 8177.000000, 8177.000000, 8172.000000
2688, 108971216.000000, 2243.500000, 8180.000000, 8181.000000, 8176.000000
2689, 108971376.000000, 2549.750000, 8186.000000, 8238.000000, 8241.000000
2690, 108971536.000000, 2745.500000, 8546.000000, 8070.000000, 8219.000000
2691, 108971696.000000, 2828.750000, 8071.000000, 8103.000000, 8084.000000
2692, 108971856.000000, 2800.250000, 8153.000000, 8153.000000, 8154.000000
2693, 108972016.000000, 2664.750000, 8187.000000, 8193.000000, 8189.000000
2694, 108972176.000000, 2432.500000, 8192.000000, 8195.000000, 8194.000000
2695, 108972336.000000, 2158.000000, 8204.000000, 8195.000000, 8196.000000
2696, 108972496.000000, 1894.500000, 8212.000000, 8195.000000, 8201.000000
2697, 108972656.000000, 1691.250000, 8224.000000, 8196.000000, 8206.000000
2698, 108972816.000000, 1559.000000, 8244.000000, 8199.000000, 8215.000000
2699, 108972976.000000, 1492.500000, 8265.000000, 8199.000000, 8221.000000
2700, 108973136.000000, 1473.250000, 8268.000000, 8202.000000, 8224.000000
2701, 108973296.000000, 1484.750000, 8242.000000, 8209.000000, 8225.000000
2702, 108973456.000000, 1512.500000, 8196.000000, 8214.000000, 8214.000000
2703, 108973616.000000, 1533.500000, 8162.000000, 8205.000000, 8192.000000
2704, 108973776.000000, 1535.750000, 8151.000000, 8198.000000, 8178.000000
2705, 108973936.000000, 1512.250000, 8151.000000, 8192.000000, 8172.000000
2706, 108974096.000000, 1471.000000, 8153.000000, 8193.000000, 8174.000000
2707, 108974256.000000, 1421.000000, 8154.000000, 8192.000000, 8176.000000
2708, 108974416.000000, 1368.250000, 8159.000000, 8196.000000, 8185.000000
2709, 108974576.000000, 1309.250000, 8156.000000, 8199.000000, 8186.000000
2710, 108974736.000000, 1247.000000, 8163.000000, 8194.000000, 8182.000000
2711, 108974896.000000, 1189.500000, 8162.000000, 8189.000000, 8178.000000
2712, 108975056.000000, 1139.250000, 8151.000000, 8188.000000, 8174.000000
2713, 108975216.000000, 1096.000000, 8150.000000, 8193.000000, 8180.000000
2714, 108975376.000000, 1056.000000, 8161.000000, 8206.000000, 8208.000000
2715, 108975536.000000, 1019.250000, 8175.000000, 8200.000000, 8198.000000
2716, 108975696.000000, 1004.750000, 8170.000000, 8190.000000, 8181.000000
2717, 108975856.000000, 1060.750000, 8151.000000, 8184.000000, 8162.000000
2718, 108976016.000000, 1263.000000, 8154.000000, 8182.000000, 8164.000000
2719, 108976176.000000, 1606.750000, 8159.000000, 8185.000000, 8168.000000
2720, 108976336.000000, 2021.000000, 8159.000000, 8187.000000, 8170.000000
2721, 108976496.000000, 2397.750000, 8159.000000, 8247.000000, 8234.000000
2722, 108976656.000000, 2677.250000, 8529.000000, 8076.000000, 8212.000000
2723, 108976816.000000, 2833.500000, 8052.000000, 8113.000000, 8089.000000
2724, 108976976.000000, 2879.000000, 8131.000000, 8156.000000, 8149.000000
2725, 108977136.000000, 2822.500000, 8176.000000, 8197.000000, 8186.000000
2726, 108977296.000000, 2665.500000, 8190.000000, 8198.000000, 8188.000000
2727, 108977456.000000, 2434.500000, 8200.000000, 8201.000000, 8194.000000
2728, 108977616.000000, 2170.500000, 8207.000000, 8202.000000, 8203.000000
2729, 108977776.000000, 1934.500000, 8222.000000, 8200.000000, 8207.000000
2730, 108977936.000000, 1758.500000, 8248.000000, 8200.000000, 8214.000000
2731, 108978096.000000, 1650.250000, 8268.000000, 8201.000000, 8219.000000
2732, 108978256.000000, 1604.500000, 8270.000000, 8210.000000, 8231.000000
2733, 108978416.000000, 1606.250000, 8241.000000, 8221.000000, 8235.000000
2734, 108978576.000000, 1634.500000, 8191.000000, 8224.000000, 8224.000000
2735, 108978736.000000, 1662.250000, 8159.000000, 8212.000000, 8201.000000
2736, 108978896.000000, 1663.750000, 8156.000000, 8202.000000, 8187.000000
2737, 108979056.000000, 1632.000000, 8158.000000, 8201.000000, 8184.000000
2738, 108979216.000000, 1567.750000, 8158.000000, 8203.000000, 8190.000000
2739, 108979376.000000, 1501.250000, 8165.000000, 8202.000000, 8193.000000
2740, 108979536.000000, 1425.500000, 8169.000000, 8200.000000, 8194.000000
2741, 108979696.000000, 1336.250000, 8170.000000, 8201.000000, 8192.000000
2742, 108979856.000000, 1244.250000, 8175.000000, 8201.000000, 8193.000000
2743, 108980016.000000, 1189.250000, 8173.000000, 8201.000000, 8194.000000
2744, 108980176.000000, 1152.750000, 8169.000000, 8198.000000, 8192.000000
2745, 108980336.000000, 1114.250000, 8177.000000, 8209.000000, 8214.000000
2746, 108980496.000000, 1071.500000, 8183.000000, 8206.000000, 8211.000000
2747, 108980656.000000, 1068.750000, 8193.000000, 8200.000000, 8206.000000
2748, 108980816.000000, 1180.750000, 8176.000000, 8185.000000, 8176.000000
2749, 108980976.000000, 1459.500000, 8176.000000, 8182.000000, 8171.000000
2750, 108981136.000000, 1870.000000, 8174.000000, 8183.000000, 8168.000000
2751, 108981296.000000, 2298.250000, 8176.000000, 8186.000000, 8173.000000
2752, 108981456.000000, 2653.250000, 8166.000000, 8214.000000, 8202.000000
2753, 108981616.000000, 2899.750000, 8379.000000, 8169.000000, 8239.000000
2754, 108981776.000000, 3037.250000, 8162.000000, 8139.000000, 8158.000000
2755, 108981936.000000, 3057.000000, 8101.000000, 8100.000000, 8079.000000
2756, 108982096.000000, 2963.000000, 8187.000000, 8185.000000, 8181.000000
2757, 108982256.000000, 2768.250000, 8202.000000, 8195.000000, 8191.000000
2758, 108982416.000000, 2501.500000, 8213.000000, 8198.000000, 8201.000000
2759, 108982576.000000, 2219.500000, 8219.000000, 8197.000000, 8202.000000
2760, 108982736.000000, 1968.500000, 8231.000000, 8196.000000, 8205.000000
2761, 108982896.000000, 1785.250000, 8249.000000, 8196.000000, 8207.000000
2762, 108983056.000000, 1674.750000, 8269.000000, 8199.000000, 8217.000000
2763, 108983216.000000, 1637.500000, 8275.000000, 8204.000000, 8226.000000
2764, 108983376.000000, 1650.250000, 8262.000000, 8215.000000, 8235.000000
2765, 108983536.000000, 1685.250000, 8221.000000, 8223.000000, 8233.000000
2766, 108983696.000000, 1712.750000, 8182.000000, 8211.000000, 8206.000000
2767, 108983856.000000, 1717.750000, 8169.000000, 8198.000000, 8188.000000
2768, 108984016.000000, 1695.750000, 8168.000000, 8195.000000, 8184.000000
2769, 108984176.000000, 1654.750000, 8168.000000, 8196.000000, 8185.000000
2770, 108984336.000000, 1601.250000, 8169.000000, 8195.000000, 8183.000000
2771, 108984496.000000, 1542.000000, 8176.000000, 8196.000000, 8187.000000
2772, 108984656.000000, 1482.000000, 8180.000000, 8196.000000, 8189.000000
2773, 108984816.000000, 1422.750000, 8182.000000, 8196.000000, 8189.000000
2774, 108984976.000000, 1370.250000, 8183.000000, 8195.000000, 8190.000000
2775, 108985136.000000, 1328.500000, 8184.000000, 8198.000000, 8196.000000
2776, 108985296.000000, 1299.000000, 8184.000000, 8206.000000, 8212.000000
2777, 108985456.000000, 1268.250000, 8203.000000, 8203.000000, 8211.000000
2778, 108985616.000000, 1240.500000, 8193.000000, 8187.000000, 8185.000000
2779, 108985776.000000, 1261.000000, 8181.000000, 8178.000000, 8168.000000
2780, 108985936.000000, 1410.500000, 8178.000000, 8177.000000, 8165.000000
2781, 108986096.000000, 1722.000000, 8180.000000, 8176.000000, 8165.000000
2782, 108986256.000000, 2139.000000, 8182.000000, 8179.000000, 8170.000000
2783, 108986416.000000, 2546.250000, 8213.000000, 8237.000000, 8246.000000
2784, 108986576.000000, 2866.500000, 8441.000000, 8078.000000, 8189.000000
2785, 108986736.000000, 3069.500000, 8062.000000, 8076.000000, 8051.000000
2786, 108986896.000000, 3160.250000, 8162.000000, 8151.000000, 8148.000000
2787, 108987056.000000, 3130.750000, 8193.000000, 8191.000000, 8183.000000
2788, 108987216.000000, 2990.750000, 8199.000000, 8196.000000, 8190.000000
2789, 108987376.000000, 2756.500000, 8208.000000, 8198.000000, 8196.000000
2790, 108987536.000000, 2473.250000, 8218.000000, 8197.000000, 8199.000000
2791, 108987696.000000, 2201.250000, 8228.000000, 8195.000000, 8200.000000
2792, 108987856.000000, 1984.500000, 8249.000000, 8198.000000, 8209.000000
2793, 108988016.000000, 1845.500000, 8267.000000, 8203.000000, 8222.000000
2794, 108988176.000000, 1776.750000, 8262.000000, 8209.000000, 8227.000000
2795, 108988336.000000, 1757.750000, 8232.000000, 8223.000000, 8233.000000
2796, 108988496.000000, 1765.250000, 8188.000000, 8219.000000, 8216.000000
2797, 108988656.000000, 1776.250000, 8167.000000, 8204.000000, 8195.000000
2798, 108988816.000000, 1776.250000, 8163.000000, 8197.000000, 8185.000000
2799, 108988976.000000, 1757.000000, 8160.000000, 8196.000000, 8182.000000
2800, 108989136.000000, 1717.000000, 8161.000000, 8195.000000, 8180.000000
2801, 108989296.000000, 1666.250000, 8167.000000, 8194.000000, 8181.000000
2802, 108989456.000000, 1612.000000, 8176.000000, 8196.000000, 8189.000000
2803, 108989616.000000, 1552.750000, 8178.000000, 8198.000000, 8190.000000
2804, 108989776.000000, 1494.000000, 8178.000000, 8195.000000, 8187.000000
2805, 108989936.000000, 1434.750000, 8179.000000, 8204.000000, 8204.000000
2806, 108990096.000000, 1378.000000, 8185.000000, 8206.000000, 8210.000000
2807, 108990256.000000, 1318.000000, 8204.000000, 8202.000000, 8209.000000
2808, 108990416.000000, 1257.750000, 8180.000000, 8189.000000, 8182.000000
2809, 108990576.000000, 1224.250000, 8174.000000, 8180.000000, 8167.000000
2810, 108990736.000000, 1278.750000, 8175.000000, 8180.000000, 8164.000000
2811, 108990896.000000, 1501.500000, 8172.000000, 8179.000000, 8163.000000
2812, 108991056.000000, 1867.500000, 8174.000000, 8186.000000, 8175.000000
2813, 108991216.000000, 2279.750000, 8273.000000, 8218.000000, 8243.000000
2814, 108991376.000000, 2634.500000, 8281.000000, 8107.000000, 8159.000000
2815, 108991536.000000, 2893.000000, 8077.000000, 8076.000000, 8045.000000
2816, 108991696.000000, 3043.750000, 8179.000000, 8168.000000, 8161.000000
2817, 108991856.000000, 3081.750000, 8197.000000, 8193.000000, 8184.000000
2818, 108992016.000000, 3008.500000, 8203.000000, 8199.000000, 8192.000000
2819, 108992176.000000, 2826.500000, 8209.000000, 8199.000000, 8194.000000
2820, 108992336.000000, 2566.250000, 8214.000000, 8199.000000, 8197.000000
2821, 108992496.000000, 2279.000000, 8230.000000, 8200.000000, 8204.000000
2822, 108992656.000000, 2032.000000, 8252.000000, 8201.000000, 8212.000000
2823, 108992816.000000, 1856.000000, 8269.000000, 8207.000000, 8225.000000
2824, 108992976.000000, 1762.750000, 8257.000000, 8216.000000, 8234.000000
2825, 108993136.000000, 1732.250000, 8216.000000, 8227.000000, 8236.000000
2826, 108993296.000000, 1739.000000, 8183.000000, 8218.000000, 8217.000000
2827, 108993456.000000, 1758.250000, 8164.000000, 8205.000000, 8196.000000
2828, 108993616.000000, 1767.750000, 8163.000000, 8201.000000, 8191.000000
2829, 108993776.000000, 1758.750000, 8168.000000, 8199.000000, 8190.000000
2830, 108993936.000000, 1731.500000, 8164.000000, 8197.000000, 8186.000000
2831, 108994096.000000, 1693.000000, 8167.000000, 8198.000000, 8191.000000
2832, 108994256.000000, 1651.750000, 8172.000000, 8198.000000, 8194.000000
2833, 108994416.000000, 1610.250000, 8178.000000, 8199.000000, 8197.000000
2834, 108994576.000000, 1562.500000, 8178.000000, 8197.000000, 8193.000000
2835, 108994736.000000, 1502.500000, 8183.000000, 8208.000000, 8213.000000
2836, 108994896.000000, 1430.500000, 8190.000000, 8205.000000, 8213.000000
2837, 108995056.000000, 1358.000000, 8196.000000, 8200.000000, 8206.000000
2838, 108995216.000000, 1297.500000, 8175.000000, 8184.000000, 8176.000000
2839, 108995376.000000, 1282.000000, 8172.000000, 8181.000000, 8169.000000
2840, 108995536.000000, 1372.000000, 8175.000000, 8179.000000, 8167.000000
2841, 108995696.000000, 1624.250000, 8179.000000, 8179.000000, 8168.000000
2842, 108995856.000000, 1996.000000, 8171.000000, 8218.000000, 8211.000000
2843, 108996016.000000, 2399.750000, 8375.000000, 8144.000000, 8213.000000
2844, 108996176.000000, 2746.250000, 8113.000000, 8122.000000, 8126.000000
2845, 108996336.000000, 2999.000000, 8110.000000, 8103.000000, 8084.000000
2846, 108996496.000000, 3136.500000, 8185.000000, 8183.000000, 8178.000000
2847, 108996656.000000, 3160.000000, 8190.000000, 8195.000000, 8189.000000
2848, 108996816.000000, 3066.500000, 8194.000000, 8199.000000, 8194.000000
2849, 108996976.000000, 2875.250000, 8202.000000, 8200.000000, 8198.000000
2850, 108997136.000000, 2626.250000, 8217.000000, 8199.000000, 8201.000000
2851, 108997296.000000, 2359.250000, 8232.000000, 8198.000000, 8204.000000
2852, 108997456.000000, 2122.500000, 8249.000000, 8203.000000, 8216.000000
2853, 108997616.000000, 1943.000000, 8255.000000, 8210.000000, 8225.000000
2854, 108997776.000000, 1841.000000, 8236.000000, 8222.000000, 8234.000000
2855, 108997936.000000, 1805.500000, 8198.000000, 8226.000000, 8227.000000
2856, 108998096.000000, 1809.750000, 8168.000000, 8210.000000, 8201.000000
2857, 108998256.000000, 1830.000000, 8160.000000, 8197.000000, 8185.000000
2858, 108998416.000000, 1841.000000, 8163.000000, 8192.000000, 8180.000000
2859, 108998576.000000, 1831.750000, 8161.000000, 8195.000000, 8184.000000
2860, 108998736.000000, 1803.500000, 8162.000000, 8195.000000, 8184.000000
2861, 108998896.000000, 1765.250000, 8169.000000, 8194.000000, 8186.000000
2862, 108999056.000000, 1720.250000, 8173.000000, 8197.000000, 8190.000000
2863, 108999216.000000, 1668.500000, 8174.000000, 8197.000000, 8192.000000
2864, 108999376.000000, 1608.500000, 8178.000000, 8197.000000, 8193.000000
2865, 108999536.000000, 1539.250000, 8185.000000, 8210.000000, 8220.000000
2866, 108999696.000000, 1462.000000, 8192.000000, 8198.000000, 8203.000000
2867, 108999856.000000, 1383.500000, 8186.000000, 8193.000000, 8196.000000
2868, 109000016.000000, 1320.750000, 8172.000000, 8180.000000, 8168.000000
2869, 109000176.000000, 1310.750000, 8168.000000, 8177.000000, 8164.000000
2870, 109000336.000000, 1442.250000, 8168.000000, 8177.000000, 8162.000000
2871, 109000496.000000, 1734.250000, 8173.000000, 8175.000000, 8164.000000
2872, 109000656.000000, 2132.250000, 8166.000000, 8236.000000, 8230.000000
2873, 109000816.000000, 2524.000000, 8457.000000, 8057.000000, 8171.000000
2874, 109000976.000000, 2841.750000, 8052.000000, 8055.000000, 8033.000000
2875, 109001136.000000, 3044.000000, 8152.000000, 8140.000000, 8137.000000
2876, 109001296.000000, 3124.500000, 8190.000000, 8191.000000, 8183.000000
2877, 109001456.000000, 3087.250000, 8197.000000, 8197.000000, 8190.000000
2878, 109001616.000000, 2939.000000, 8202.000000, 8202.000000, 8198.000000
2879, 109001776.000000, 2710.500000, 8211.000000, 8198.000000, 8196.000000
2880, 109001936.000000, 2436.000000, 8220.000000, 8197.000000, 8201.000000
2881, 109002096.000000, 2165.750000, 8236.000000, 8198.000000, 8210.000000
2882, 109002256.000000, 1938.500000, 8255.000000, 8200.000000, 8219.000000
2883, 109002416.000000, 1779.500000, 8258.000000, 8208.000000, 8229.000000
2884, 109002576.000000, 1686.250000, 8229.000000, 8219.000000, 8233.000000
2885, 109002736.000000, 1644.750000, 8187.000000, 8220.000000, 8220.000000
2886, 109002896.000000, 1631.500000, 8162.000000, 8206.000000, 8197.000000
2887, 109003056.000000, 1629.000000, 8158.000000, 8198.000000, 8185.000000
2888, 109003216.000000, 1628.750000, 8157.000000, 8197.000000, 8185.000000
2889, 109003376.000000, 1619.500000, 8156.000000, 8199.000000, 8188.000000
2890, 109003536.000000, 1598.500000, 8163.000000, 8197.000000, 8189.000000
2891, 109003696.000000, 1558.500000, 8167.000000, 8200.000000, 8195.000000
2892, 109003856.000000, 1503.750000, 8163.000000, 8203.000000, 8195.000000
2893, 109004016.000000, 1440.500000, 8164.000000, 8202.000000, 8195.000000
2894, 109004176.000000, 1377.500000, 8167.000000, 8198.000000, 8191.000000
2895, 109004336.000000, 1321.750000, 8168.000000, 8200.000000, 8197.000000
2896, 109004496.000000, 1259.000000, 8170.000000, 8212.000000, 8216.000000
2897, 109004656.000000, 1187.250000, 8182.000000, 8206.000000, 8208.000000
2898, 109004816.000000, 1140.750000, 8173.000000, 8192.000000, 8185.000000
2899, 109004976.000000, 1209.500000, 8158.000000, 8184.000000, 8165.000000
2900, 109005136.000000, 1461.750000, 8160.000000, 8183.000000, 8165.000000
2901, 109005296.000000, 1872.000000, 8163.000000, 8183.000000, 8167.000000
2902, 109005456.000000, 2326.500000, 8164.000000, 8186.000000, 8171.000000
2903, 109005616.000000, 2722.750000, 8175.000000, 8248.000000, 8242.000000
2904, 109005776.000000, 3009.500000, 8485.000000, 8051.000000, 8179.000000
2905, 109005936.000000, 3170.750000, 8041.000000, 8065.000000, 8030.000000
2906, 109006096.000000, 3213.000000, 8147.000000, 8162.000000, 8157.000000
2907, 109006256.000000, 3126.000000, 8179.000000, 8200.000000, 8193.000000
2908, 109006416.000000, 2933.250000, 8188.000000, 8203.000000, 8198.000000
2909, 109006576.000000, 2668.250000, 8191.000000, 8205.000000, 8202.000000
2910, 109006736.000000, 2384.000000, 8205.000000, 8202.000000, 8202.000000
2911, 109006896.000000, 2132.000000, 8222.000000, 8203.000000, 8212.000000
2912, 109007056.000000, 1938.250000, 8241.000000, 8205.000000, 8221.000000
2913, 109007216.000000, 1809.250000, 8258.000000, 8209.000000, 8232.000000
2914, 109007376.000000, 1739.000000, 8254.000000, 8214.000000, 8238.000000
2915, 109007536.000000, 1713.250000, 8226.000000, 8223.000000, 8237.000000
2916, 109007696.000000, 1713.750000, 8182.000000, 8221.000000, 8223.000000
2917, 109007856.000000, 1718.750000, 8157.000000, 8207.000000, 8199.000000
2918, 109008016.000000, 1715.750000, 8150.000000, 8200.000000, 8187.000000
2919, 109008176.000000, 1694.000000, 8148.000000, 8196.000000, 8180.000000
2920, 109008336.000000, 1653.000000, 8150.000000, 8195.000000, 8182.000000
2921, 109008496.000000, 1601.250000, 8156.000000, 8196.000000, 8187.000000
2922, 109008656.000000, 1542.750000, 8161.000000, 8197.000000, 8192.000000
2923, 109008816.000000, 1479.250000, 8168.000000, 8196.000000, 8195.000000
2924, 109008976.000000, 1414.500000, 8165.000000, 8197.000000, 8192.000000
