1620, 117829912.000000, 2749.125000, 8243.500000, 8198.000000, 8221.000000
1621, 117830072.000000, 2645.500000, 8265.500000, 8205.500000, 8235.500000
1622, 117830232.000000, 2531.500000, 8281.500000, 8210.500000, 8246.000000
1623, 117830392.000000, 2429.750000, 8265.000000, 8217.500000, 8246.500000
1624, 117830552.000000, 2347.500000, 8212.000000, 8224.500000, 8238.000000
1625, 117830712.000000, 2284.000000, 8173.000000, 8219.500000, 8219.500000
1626, 117830872.000000, 2231.250000, 8161.500000, 8211.500000, 8207.500000
1627, 117831032.000000, 2189.875000, 8162.000000, 8209.000000, 8208.000000
1628, 117831192.000000, 2155.750000, 8167.500000, 8209.000000, 8200.000000
1629, 117831352.000000, 2118.000000, 8170.000000, 8199.000000, 8194.000000
1630, 117831512.000000, 2074.875000, 8177.000000, 8202.000000, 8198.500000
1631, 117831672.000000, 2024.750000, 8188.500000, 8210.000000, 8210.000000
1632, 117831832.000000, 1968.000000, 8187.500000, 8207.000000, 8215.000000
1633, 117831992.000000, 1908.875000, 8192.000000, 8205.000000, 8209.000000
1634, 117832152.000000, 1851.000000, 8199.000000, 8216.000000, 8230.500000
1635, 117832312.000000, 1785.500000, 8200.500000, 8210.000000, 8226.500000
1636, 117832472.000000, 1711.625000, 8195.000000, 8206.500000, 8221.500000
1637, 117832632.000000, 1629.125000, 8178.000000, 8194.500000, 8189.500000
1638, 117832792.000000, 1566.375000, 8176.500000, 8189.500000, 8182.500000
1639, 117832952.000000, 1561.750000, 8174.000000, 8183.500000, 8174.000000
1640, 117833112.000000, 1649.125000, 8173.000000, 8184.000000, 8181.000000
1641, 117833272.000000, 1803.375000, 8161.500000, 8224.500000, 8222.500000
1642, 117833432.000000, 1992.625000, 8385.000000, 8156.500000, 8238.000000
1643, 117833592.000000, 2179.125000, 8167.500000, 8093.000000, 8111.000000
1644, 117833752.000000, 2326.875000, 8088.000000, 8090.500000, 8070.500000
1645, 117833912.000000, 2417.375000, 8174.500000, 8187.000000, 8187.500000
1646, 117834072.000000, 2450.000000, 8189.500000, 8201.500000, 8201.500000
1647, 117834232.000000, 2429.000000, 8198.500000, 8206.500000, 8208.000000
1648, 117834392.000000, 2352.375000, 8217.500000, 8203.000000, 8208.000000
1649, 117834552.000000, 2243.750000, 8232.500000, 8203.000000, 8211.000000
1650, 117834712.000000, 2124.375000, 8247.500000, 8201.500000, 8220.500000
1651, 117834872.000000, 2012.375000, 8277.000000, 8203.500000, 8240.000000
1652, 117835032.000000, 1916.875000, 8279.000000, 8213.000000, 8250.000000
1653, 117835192.000000, 1841.250000, 8259.500000, 8215.000000, 8245.000000
1654, 117835352.000000, 1791.750000, 8208.000000, 8225.000000, 8235.500000
1655, 117835512.000000, 1762.375000, 8165.000000, 8214.000000, 8214.000000
1656, 117835672.000000, 1734.875000, 8159.500000, 8211.500000, 8202.000000
1657, 117835832.000000, 1700.000000, 8157.500000, 8205.000000, 8192.000000
1658, 117835992.000000, 1659.375000, 8155.500000, 8201.500000, 8188.500000
1659, 117836152.000000, 1622.750000, 8154.500000, 8196.500000, 8185.000000
1660, 117836312.000000, 1583.875000, 8164.500000, 8204.500000, 8196.500000
1661, 117836472.000000, 1529.000000, 8172.000000, 8205.500000, 8205.000000
1662, 117836632.000000, 1458.375000, 8172.500000, 8207.500000, 8207.500000
1663, 117836792.000000, 1380.000000, 8170.500000, 8200.500000, 8196.500000
1664, 117836952.000000, 1313.000000, 8166.000000, 8194.500000, 8189.500000
1665, 117837112.000000, 1257.625000, 8172.500000, 8206.000000, 8209.000000
1666, 117837272.000000, 1209.875000, 8181.000000, 8210.500000, 8217.500000
1667, 117837432.000000, 1161.375000, 8185.000000, 8202.500000, 8211.000000
1668, 117837592.000000, 1141.625000, 8164.000000, 8186.500000, 8174.000000
1669, 117837752.000000, 1194.750000, 8156.000000, 8176.500000, 8163.000000
1670, 117837912.000000, 1353.875000, 8166.000000, 8185.500000, 8172.500000
1671, 117838072.000000, 1586.625000, 8162.500000, 8185.000000, 8177.500000
1672, 117838232.000000, 1841.500000, 8157.500000, 8213.500000, 8208.000000
1673, 117838392.000000, 2071.500000, 8341.000000, 8177.000000, 8237.500000
1674, 117838552.000000, 2249.125000, 8225.000000, 8100.000000, 8137.000000
1675, 117838712.000000, 2363.500000, 8062.000000, 8077.000000, 8052.500000
1676, 117838872.000000, 2413.500000, 8165.500000, 8184.000000, 8182.500000
1677, 117839032.000000, 2399.625000, 8177.500000, 8202.000000, 8197.500000
1678, 117839192.000000, 2326.750000, 8190.000000, 8204.000000, 8201.000000
1679, 117839352.000000, 2225.375000, 8207.500000, 8205.000000, 8202.500000
1680, 117839512.000000, 2116.250000, 8220.500000, 8204.500000, 8210.500000
1681, 117839672.000000, 2019.500000, 8242.500000, 8208.500000, 8228.000000
1682, 117839832.000000, 1936.125000, 8263.500000, 8207.500000, 8236.500000
1683, 117839992.000000, 1870.000000, 8275.500000, 8209.500000, 8243.000000
1684, 117840152.000000, 1820.625000, 8263.500000, 8209.500000, 8239.500000
1685, 117840312.000000, 1779.875000, 8217.000000, 8225.000000, 8238.000000
1686, 117840472.000000, 1740.625000, 8173.000000, 8222.000000, 8227.000000
1687, 117840632.000000, 1698.125000, 8152.500000, 8210.500000, 8202.500000
1688, 117840792.000000, 1655.000000, 8154.000000, 8204.000000, 8192.000000
1689, 117840952.000000, 1614.125000, 8154.500000, 8200.500000, 8189.000000
1690, 117841112.000000, 1574.000000, 8159.500000, 8199.000000, 8187.000000
1691, 117841272.000000, 1532.125000, 8170.000000, 8209.000000, 8204.000000
1692, 117841432.000000, 1495.500000, 8170.000000, 8206.500000, 8209.500000
1693, 117841592.000000, 1473.750000, 8174.000000, 8200.500000, 8197.000000
1694, 117841752.000000, 1467.000000, 8174.500000, 8197.000000, 8192.500000
1695, 117841912.000000, 1468.000000, 8169.500000, 8197.000000, 8190.500000
1696, 117842072.000000, 1461.500000, 8173.000000, 8197.500000, 8192.000000
1697, 117842232.000000, 1443.250000, 8166.000000, 8197.500000, 8190.500000
1698, 117842392.000000, 1418.625000, 8172.000000, 8203.500000, 8212.000000
1699, 117842552.000000, 1408.000000, 8189.000000, 8199.500000, 8203.500000
1700, 117842712.000000, 1447.875000, 8183.500000, 8194.000000, 8195.500000
1701, 117842872.000000, 1582.750000, 8169.500000, 8192.500000, 8181.000000
1702, 117843032.000000, 1795.750000, 8166.500000, 8187.000000, 8173.500000
1703, 117843192.000000, 2044.625000, 8168.000000, 8186.500000, 8171.500000
1704, 117843352.000000, 2277.625000, 8172.500000, 8182.500000, 8169.000000
1705, 117843512.000000, 2474.125000, 8161.500000, 8241.500000, 8237.500000
1706, 117843672.000000, 2618.250000, 8485.500000, 8083.500000, 8191.500000
1707, 117843832.000000, 2695.625000, 8095.000000, 8125.500000, 8118.000000
1708, 117843992.000000, 2696.250000, 8109.000000, 8117.500000, 8102.500000
1709, 117844152.000000, 2631.000000, 8176.500000, 8189.000000, 8182.000000
1710, 117844312.000000, 2531.875000, 8189.500000, 8199.500000, 8191.500000
1711, 117844472.000000, 2429.000000, 8203.000000, 8205.000000, 8203.500000
1712, 117844632.000000, 2339.000000, 8215.000000, 8204.500000, 8208.500000
1713, 117844792.000000, 2267.250000, 8232.000000, 8202.000000, 8206.500000
1714, 117844952.000000, 2211.250000, 8253.500000, 8197.500000, 8214.500000
1715, 117845112.000000, 2173.625000, 8270.000000, 8203.000000, 8228.000000
1716, 117845272.000000, 2143.875000, 8276.000000, 8205.000000, 8236.000000
1717, 117845432.000000, 2117.250000, 8258.500000, 8222.000000, 8243.500000
1718, 117845592.000000, 2092.875000, 8202.500000, 8223.000000, 8228.000000
1719, 117845752.000000, 2062.500000, 8165.000000, 8211.000000, 8198.500000
1720, 117845912.000000, 2029.375000, 8149.500000, 8203.000000, 8189.000000
1721, 117846072.000000, 1987.250000, 8149.500000, 8205.500000, 8185.500000
1722, 117846232.000000, 1941.500000, 8149.000000, 8204.000000, 8186.000000
1723, 117846392.000000, 1890.500000, 8159.000000, 8200.500000, 8183.500000
1724, 117846552.000000, 1850.000000, 8167.000000, 8195.000000, 8183.500000
1725, 117846712.000000, 1813.625000, 8169.000000, 8196.000000, 8189.000000
1726, 117846872.000000, 1772.875000, 8174.000000, 8198.000000, 8191.500000
1727, 117847032.000000, 1723.625000, 8171.500000, 8194.500000, 8189.000000
1728, 117847192.000000, 1677.000000, 8170.000000, 8188.000000, 8178.500000
1729, 117847352.000000, 1642.500000, 8173.500000, 8185.000000, 8172.000000
1730, 117847512.000000, 1616.875000, 8173.500000, 8187.500000, 8174.500000
1731, 117847672.000000, 1587.500000, 8170.500000, 8199.000000, 8196.000000
1732, 117847832.000000, 1578.750000, 8175.000000, 8204.500000, 8204.500000
1733, 117847992.000000, 1638.625000, 8189.500000, 8196.500000, 8200.000000
1734, 117848152.000000, 1800.875000, 8176.000000, 8183.000000, 8171.500000
1735, 117848312.000000, 2037.250000, 8162.000000, 8178.000000, 8165.500000
1736, 117848472.000000, 2303.125000, 8174.000000, 8187.500000, 8172.000000
1737, 117848632.000000, 2556.000000, 8174.000000, 8183.500000, 8174.500000
1738, 117848792.000000, 2772.125000, 8173.000000, 8185.000000, 8174.500000
1739, 117848952.000000, 2936.625000, 8211.000000, 8233.500000, 8241.000000
1740, 117849112.000000, 3048.625000, 8509.500000, 8043.000000, 8168.500000
1741, 117849272.000000, 3103.125000, 8060.500000, 8104.000000, 8081.500000
1742, 117849432.000000, 3096.000000, 8141.500000, 8155.000000, 8152.000000
1743, 117849592.000000, 3043.250000, 8182.000000, 8191.500000, 8183.500000
1744, 117849752.000000, 2959.500000, 8193.000000, 8193.000000, 8185.000000
1745, 117849912.000000, 2864.000000, 8207.000000, 8198.000000, 8195.500000
1746, 117850072.000000, 2761.375000, 8219.500000, 8200.000000, 8205.500000
1747, 117850232.000000, 2672.125000, 8237.000000, 8199.500000, 8209.500000
1748, 117850392.000000, 2599.875000, 8258.500000, 8195.500000, 8220.000000
1749, 117850552.000000, 2532.375000, 8281.500000, 8195.000000, 8222.500000
1750, 117850712.000000, 2461.750000, 8283.500000, 8203.000000, 8233.000000
1751, 117850872.000000, 2383.000000, 8251.000000, 8216.000000, 8237.500000
1752, 117851032.000000, 2304.375000, 8194.500000, 8223.000000, 8224.000000
1753, 117851192.000000, 2227.000000, 8163.000000, 8206.500000, 8192.500000
1754, 117851352.000000, 2142.875000, 8152.500000, 8191.000000, 8176.000000
1755, 117851512.000000, 2055.375000, 8154.000000, 8192.000000, 8177.000000
1756, 117851672.000000, 1967.250000, 8161.000000, 8195.500000, 8179.500000
1757, 117851832.000000, 1882.250000, 8162.000000, 8197.500000, 8184.500000
1758, 117851992.000000, 1801.000000, 8169.500000, 8194.500000, 8182.000000
1759, 117852152.000000, 1722.750000, 8171.000000, 8188.500000, 8175.000000
1760, 117852312.000000, 1652.500000, 8170.500000, 8185.000000, 8171.000000
1761, 117852472.000000, 1583.500000, 8174.500000, 8192.500000, 8185.000000
1762, 117852632.000000, 1514.625000, 8170.000000, 8190.500000, 8181.500000
1763, 117852792.000000, 1459.500000, 8168.000000, 8185.000000, 8177.000000
1764, 117852952.000000, 1408.750000, 8166.500000, 8177.500000, 8165.000000
1765, 117853112.000000, 1356.500000, 8170.500000, 8190.500000, 8184.500000
1766, 117853272.000000, 1325.625000, 8176.000000, 8201.000000, 8205.000000
1767, 117853432.000000, 1353.250000, 8192.500000, 8200.000000, 8205.500000
1768, 117853592.000000, 1466.500000, 8176.000000, 8182.500000, 8176.000000
1769, 117853752.000000, 1645.000000, 8164.500000, 8171.000000, 8154.000000
1770, 117853912.000000, 1864.375000, 8166.500000, 8173.000000, 8159.500000
1771, 117854072.000000, 2080.500000, 8171.000000, 8178.000000, 8168.500000
1772, 117854232.000000, 2261.125000, 8172.500000, 8183.500000, 8176.000000
1773, 117854392.000000, 2385.625000, 8211.500000, 8231.000000, 8238.000000
1774, 117854552.000000, 2445.750000, 8516.000000, 8036.500000, 8159.500000
1775, 117854712.000000, 2451.625000, 8059.500000, 8094.000000, 8067.000000
1776, 117854872.000000, 2406.250000, 8154.500000, 8154.000000, 8147.500000
1777, 117855032.000000, 2330.250000, 8184.000000, 8196.000000, 8189.000000
1778, 117855192.000000, 2240.500000, 8194.500000, 8197.000000, 8192.000000
1779, 117855352.000000, 2151.375000, 8204.500000, 8191.500000, 8189.000000
1780, 117855512.000000, 2074.500000, 8221.000000, 8194.500000, 8199.000000
1781, 117855672.000000, 2011.000000, 8239.000000, 8201.000000, 8214.500000
1782, 117855832.000000, 1966.125000, 8265.000000, 8198.000000, 8223.500000
1783, 117855992.000000, 1936.375000, 8287.500000, 8197.500000, 8229.000000
1784, 117856152.000000, 1911.250000, 8289.000000, 8202.000000, 8230.000000
1785, 117856312.000000, 1883.500000, 8253.500000, 8215.500000, 8235.500000
1786, 117856472.000000, 1856.875000, 8198.000000, 8219.000000, 8221.000000
1787, 117856632.000000, 1824.750000, 8159.500000, 8208.500000, 8198.500000
1788, 117856792.000000, 1784.250000, 8153.500000, 8198.000000, 8179.500000
1789, 117856952.000000, 1737.375000, 8152.500000, 8189.500000, 8172.500000
1790, 117857112.000000, 1695.000000, 8152.000000, 8192.000000, 8175.000000
1791, 117857272.000000, 1655.000000, 8158.000000, 8196.500000, 8185.000000
1792, 117857432.000000, 1608.875000, 8160.500000, 8197.500000, 8189.500000
1793, 117857592.000000, 1558.625000, 8168.500000, 8194.500000, 8186.000000
1794, 117857752.000000, 1507.500000, 8167.000000, 8186.500000, 8177.500000
1795, 117857912.000000, 1460.250000, 8168.500000, 8188.000000, 8177.500000
1796, 117858072.000000, 1421.750000, 8170.500000, 8192.000000, 8183.000000
1797, 117858232.000000, 1388.625000, 8163.500000, 8191.500000, 8178.000000
1798, 117858392.000000, 1353.375000, 8167.500000, 8189.000000, 8180.000000
1799, 117858552.000000, 1317.625000, 8167.000000, 8182.500000, 8170.500000
1800, 117858712.000000, 1299.375000, 8173.000000, 8199.500000, 8202.500000
1801, 117858872.000000, 1333.750000, 8184.500000, 8199.500000, 8202.500000
1802, 117859032.000000, 1447.625000, 8185.500000, 8193.500000, 8196.000000
1803, 117859192.000000, 1637.375000, 8167.500000, 8179.500000, 8165.500000
1804, 117859352.000000, 1867.625000, 8163.500000, 8172.500000, 8158.000000
1805, 117859512.000000, 2102.500000, 8168.500000, 8177.500000, 8163.000000
1806, 117859672.000000, 2293.250000, 8165.500000, 8181.000000, 8166.500000
1807, 117859832.000000, 2421.750000, 8159.500000, 8223.000000, 8216.000000
1808, 117859992.000000, 2484.250000, 8396.500000, 8121.500000, 8191.000000
1809, 117860152.000000, 2492.625000, 8183.000000, 8105.000000, 8121.000000
1810, 117860312.000000, 2453.375000, 8085.500000, 8098.000000, 8069.500000
1811, 117860472.000000, 2383.000000, 8169.000000, 8184.500000, 8174.500000
1812, 117860632.000000, 2296.875000, 8186.000000, 8198.000000, 8189.000000
1813, 117860792.000000, 2214.000000, 8193.500000, 8196.500000, 8190.000000
1814, 117860952.000000, 2142.875000, 8201.500000, 8192.000000, 8190.500000
1815, 117861112.000000, 2085.500000, 8221.500000, 8195.500000, 8204.000000
1816, 117861272.000000, 2043.375000, 8247.500000, 8197.500000, 8215.500000
1817, 117861432.000000, 2007.750000, 8274.500000, 8201.500000, 8227.500000
1818, 117861592.000000, 1975.875000, 8293.500000, 8203.500000, 8238.000000
1819, 117861752.000000, 1947.500000, 8280.500000, 8207.500000, 8237.500000
1820, 117861912.000000, 1917.125000, 8232.000000, 8220.000000, 8233.000000
1821, 117862072.000000, 1882.875000, 8179.000000, 8219.000000, 8216.000000
1822, 117862232.000000, 1836.875000, 8154.000000, 8204.000000, 8192.000000
1823, 117862392.000000, 1790.500000, 8149.000000, 8196.000000, 8180.000000
1824, 117862552.000000, 1741.875000, 8151.500000, 8191.500000, 8175.000000
1825, 117862712.000000, 1690.625000, 8152.000000, 8191.500000, 8176.500000
1826, 117862872.000000, 1635.750000, 8157.500000, 8200.500000, 8190.000000
1827, 117863032.000000, 1581.625000, 8163.500000, 8201.000000, 8192.500000
1828, 117863192.000000, 1528.125000, 8164.500000, 8196.500000, 8186.500000
1829, 117863352.000000, 1478.375000, 8163.500000, 8191.500000, 8179.000000
1830, 117863512.000000, 1439.750000, 8166.000000, 8194.500000, 8185.500000
1831, 117863672.000000, 1405.625000, 8166.500000, 8192.000000, 8185.500000
1832, 117863832.000000, 1367.625000, 8173.000000, 8192.000000, 8186.500000
1833, 117863992.000000, 1322.375000, 8165.500000, 8187.500000, 8174.000000
1834, 117864152.000000, 1280.125000, 8166.000000, 8188.000000, 8176.000000
1835, 117864312.000000, 1264.875000, 8173.500000, 8198.500000, 8197.500000
1836, 117864472.000000, 1314.000000, 8174.500000, 8204.000000, 8209.500000
1837, 117864632.000000, 1451.750000, 8185.500000, 8204.000000, 8212.500000
1838, 117864792.000000, 1658.500000, 8175.500000, 8188.500000, 8184.500000
1839, 117864952.000000, 1891.250000, 8164.500000, 8182.500000, 8166.500000
1840, 117865112.000000, 2106.250000, 8171.000000, 8178.500000, 8166.500000
1841, 117865272.000000, 2272.000000, 8171.000000, 8186.000000, 8175.500000
1842, 117865432.000000, 2371.750000, 8172.000000, 8192.000000, 8187.000000
1843, 117865592.000000, 2404.625000, 8225.000000, 8229.000000, 8243.000000
1844, 117865752.000000, 2381.125000, 8492.000000, 8032.500000, 8154.500000
1845, 117865912.000000, 2312.875000, 8059.500000, 8085.500000, 8060.500000
1846, 117866072.000000, 2223.000000, 8160.000000, 8169.500000, 8166.500000
1847, 117866232.000000, 2125.750000, 8191.500000, 8207.000000, 8200.000000
1848, 117866392.000000, 2035.000000, 8193.500000, 8205.000000, 8197.000000
1849, 117866552.000000, 1961.375000, 8205.500000, 8199.500000, 8199.500000
1850, 117866712.000000, 1906.625000, 8213.500000, 8202.000000, 8208.500000
1851, 117866872.000000, 1869.625000, 8236.500000, 8205.000000, 8224.000000
1852, 117867032.000000, 1839.500000, 8263.000000, 8212.000000, 8241.500000
1853, 117867192.000000, 1807.625000, 8289.000000, 8204.500000, 8241.000000
1854, 117867352.000000, 1771.000000, 8298.500000, 8212.500000, 8250.500000
1855, 117867512.000000, 1732.875000, 8260.500000, 8227.500000, 8253.000000
1856, 117867672.000000, 1691.625000, 8195.500000, 8229.500000, 8234.000000
1857, 117867832.000000, 1647.375000, 8167.000000, 8213.500000, 8212.000000
1858, 117867992.000000, 1598.125000, 8151.000000, 8199.500000, 8188.500000
1859, 117868152.000000, 1543.750000, 8150.500000, 8186.000000, 8174.500000
1860, 117868312.000000, 1491.875000, 8157.500000, 8190.000000, 8178.500000
1861, 117868472.000000, 1449.875000, 8164.500000, 8195.500000, 8189.500000
1862, 117868632.000000, 1417.500000, 8157.000000, 8193.000000, 8183.000000
1863, 117868792.000000, 1393.875000, 8158.500000, 8189.000000, 8180.000000
1864, 117868952.000000, 1380.500000, 8168.000000, 8182.000000, 8179.500000
1865, 117869112.000000, 1364.125000, 8163.500000, 8178.500000, 8174.000000
1866, 117869272.000000, 1339.625000, 8167.500000, 8194.000000, 8187.000000
1867, 117869432.000000, 1316.125000, 8170.500000, 8187.000000, 8181.000000
1868, 117869592.000000, 1296.625000, 8170.500000, 8185.000000, 8175.000000
1869, 117869752.000000, 1270.500000, 8159.500000, 8179.000000, 8166.500000
1870, 117869912.000000, 1253.750000, 8165.500000, 8179.500000, 8170.000000
1871, 117870072.000000, 1283.250000, 8177.000000, 8186.500000, 8184.500000
1872, 117870232.000000, 1403.750000, 8174.000000, 8201.000000, 8205.000000
1873, 117870392.000000, 1600.125000, 8181.500000, 8189.500000, 8189.500000
1874, 117870552.000000, 1831.250000, 8191.500000, 8180.500000, 8186.000000
1875, 117870712.000000, 2057.125000, 8170.000000, 8171.000000, 8162.000000
1876, 117870872.000000, 2243.875000, 8176.500000, 8174.000000, 8164.000000
1877, 117871032.000000, 2372.500000, 8177.000000, 8171.000000, 8165.000000
1878, 117871192.000000, 2435.750000, 8174.000000, 8176.500000, 8169.500000
1879, 117871352.000000, 2432.375000, 8158.000000, 8220.000000, 8213.000000
1880, 117871512.000000, 2366.500000, 8430.000000, 8102.500000, 8183.000000
1881, 117871672.000000, 2264.375000, 8168.000000, 8107.000000, 8122.000000
1882, 117871832.000000, 2156.875000, 8092.000000, 8106.000000, 8082.500000
1883, 117871992.000000, 2060.375000, 8173.500000, 8185.000000, 8172.000000
1884, 117872152.000000, 1987.000000, 8187.000000, 8190.500000, 8178.500000
1885, 117872312.000000, 1933.375000, 8195.000000, 8190.500000, 8186.000000
1886, 117872472.000000, 1889.000000, 8208.000000, 8193.000000, 8196.000000
1887, 117872632.000000, 1854.500000, 8222.500000, 8193.500000, 8205.000000
1888, 117872792.000000, 1833.750000, 8246.000000, 8187.500000, 8206.500000
1889, 117872952.000000, 1825.250000, 8278.500000, 8189.000000, 8221.000000
1890, 117873112.000000, 1814.375000, 8291.000000, 8193.500000, 8230.500000
1891, 117873272.000000, 1788.500000, 8283.000000, 8208.000000, 8244.500000
1892, 117873432.000000, 1753.750000, 8225.500000, 8224.500000, 8240.000000
1893, 117873592.000000, 1720.625000, 8174.500000, 8216.500000, 8211.000000
1894, 117873752.000000, 1696.375000, 8155.000000, 8205.500000, 8180.500000
1895, 117873912.000000, 1677.875000, 8141.000000, 8203.000000, 8178.500000
1896, 117874072.000000, 1666.250000, 8144.000000, 8204.500000, 8189.000000
1897, 117874232.000000, 1664.125000, 8141.000000, 8210.000000, 8195.500000
1898, 117874392.000000, 1657.125000, 8140.500000, 8201.000000, 8189.000000
1899, 117874552.000000, 1640.875000, 8156.500000, 8201.500000, 8189.000000
1900, 117874712.000000, 1624.125000, 8160.000000, 8206.000000, 8192.000000
1901, 117874872.000000, 1614.375000, 8166.500000, 8208.000000, 8196.500000
1902, 117875032.000000, 1607.875000, 8163.500000, 8214.500000, 8199.000000
1903, 117875192.000000, 1596.625000, 8158.000000, 8203.000000, 8187.500000
1904, 117875352.000000, 1580.000000, 8166.000000, 8201.000000, 8190.000000
1905, 117875512.000000, 1554.500000, 8157.000000, 8203.500000, 8186.500000
1906, 117875672.000000, 1525.000000, 8163.500000, 8206.500000, 8192.000000
1907, 117875832.000000, 1526.000000, 8170.500000, 8209.500000, 8193.500000
1908, 117875992.000000, 1593.625000, 8171.500000, 8218.500000, 8214.500000
1909, 117876152.000000, 1749.750000, 8184.500000, 8215.000000, 8208.500000
1910, 117876312.000000, 1982.375000, 8193.000000, 8207.000000, 8204.000000
1911, 117876472.000000, 2255.875000, 8177.000000, 8203.000000, 8191.500000
1912, 117876632.000000, 2530.000000, 8169.500000, 8201.000000, 8185.500000
1913, 117876792.000000, 2765.375000, 8169.000000, 8198.500000, 8181.500000
1914, 117876952.000000, 2934.500000, 8166.000000, 8198.000000, 8182.000000
1915, 117877112.000000, 3020.375000, 8160.500000, 8221.500000, 8208.000000
1916, 117877272.000000, 3021.000000, 8334.500000, 8186.500000, 8230.500000
1917, 117877432.000000, 2958.750000, 8304.500000, 8113.500000, 8168.500000
1918, 117877592.000000, 2872.875000, 8065.500000, 8109.000000, 8075.000000
1919, 117877752.000000, 2787.250000, 8164.500000, 8191.000000, 8179.000000
1920, 117877912.000000, 2700.875000, 8190.000000, 8210.000000, 8201.000000
1921, 117878072.000000, 2617.000000, 8194.500000, 8220.000000, 8212.000000
1922, 117878232.000000, 2549.125000, 8203.000000, 8218.000000, 8213.000000
1923, 117878392.000000, 2504.875000, 8218.500000, 8213.000000, 8220.000000
1924, 117878552.000000, 2470.250000, 8236.000000, 8210.500000, 8222.500000
1925, 117878712.000000, 2422.500000, 8265.500000, 8210.500000, 8234.500000
1926, 117878872.000000, 2373.250000, 8299.000000, 8217.500000, 8256.500000
1927, 117879032.000000, 2331.875000, 8297.000000, 8224.500000, 8264.500000
1928, 117879192.000000, 2294.000000, 8246.000000, 8233.000000, 8254.000000
1929, 117879352.000000, 2250.375000, 8187.000000, 8231.500000, 8229.500000
1930, 117879512.000000, 2193.625000, 8153.500000, 8224.000000, 8206.500000
1931, 117879672.000000, 2124.625000, 8140.500000, 8217.000000, 8196.000000
1932, 117879832.000000, 2050.500000, 8143.500000, 8214.500000, 8195.500000
1933, 117879992.000000, 1984.250000, 8144.500000, 8210.000000, 8189.500000
1934, 117880152.000000, 1914.125000, 8156.500000, 8205.000000, 8185.500000
1935, 117880312.000000, 1839.750000, 8151.000000, 8210.000000, 8189.000000
1936, 117880472.000000, 1770.250000, 8157.500000, 8214.000000, 8201.500000
1937, 117880632.000000, 1708.000000, 8155.000000, 8212.000000, 8197.500000
1938, 117880792.000000, 1648.375000, 8157.000000, 8207.000000, 8189.000000
1939, 117880952.000000, 1589.000000, 8158.000000, 8201.000000, 8184.000000
1940, 117881112.000000, 1532.375000, 8160.500000, 8199.000000, 8187.000000
1941, 117881272.000000, 1472.125000, 8161.000000, 8204.000000, 8189.000000
1942, 117881432.000000, 1403.500000, 8162.000000, 8205.500000, 8194.500000
1943, 117881592.000000, 1343.375000, 8160.000000, 8202.000000, 8188.000000
1944, 117881752.000000, 1350.875000, 8158.500000, 8199.000000, 8187.000000
1945, 117881912.000000, 1495.375000, 8169.000000, 8209.500000, 8209.000000
1946, 117882072.000000, 1771.500000, 8185.500000, 8213.000000, 8213.500000
1947, 117882232.000000, 2049.875000, 8174.000000, 8201.500000, 8193.000000
1948, 117882392.000000, 2313.000000, 8163.000000, 8194.500000, 8172.500000
1949, 117882552.000000, 2528.375000, 8164.500000, 8189.500000, 8168.500000
1950, 117882712.000000, 2667.375000, 8167.000000, 8194.500000, 8175.000000
1951, 117882872.000000, 2737.875000, 8166.500000, 8199.000000, 8184.500000
1952, 117883032.000000, 2741.000000, 8175.500000, 8259.000000, 8253.000000
1953, 117883192.000000, 2671.125000, 8565.000000, 8042.500000, 8177.000000
1954, 117883352.000000, 2529.250000, 8054.000000, 8141.000000, 8114.000000
1955, 117883512.000000, 2396.500000, 8110.000000, 8145.000000, 8125.500000
1956, 117883672.000000, 2296.000000, 8175.500000, 8205.500000, 8190.500000
1957, 117883832.000000, 2217.750000, 8183.000000, 8210.000000, 8195.500000
1958, 117883992.000000, 2158.875000, 8197.500000, 8207.000000, 8195.000000
1959, 117884152.000000, 2117.875000, 8198.500000, 8202.500000, 8195.500000
1960, 117884312.000000, 2078.000000, 8226.000000, 8200.500000, 8203.000000
1961, 117884472.000000, 2034.375000, 8251.500000, 8204.500000, 8222.500000
1962, 117884632.000000, 1982.750000, 8278.500000, 8205.500000, 8233.500000
1963, 117884792.000000, 1920.375000, 8290.500000, 8203.500000, 8234.500000
1964, 117884952.000000, 1853.625000, 8269.500000, 8217.500000, 8241.000000
1965, 117885112.000000, 1792.875000, 8216.000000, 8227.000000, 8233.000000
1966, 117885272.000000, 1737.750000, 8168.000000, 8230.000000, 8217.500000
1967, 117885432.000000, 1681.875000, 8136.500000, 8218.000000, 8194.500000
1968, 117885592.000000, 1617.250000, 8139.000000, 8209.000000, 8183.000000
1969, 117885752.000000, 1547.625000, 8140.500000, 8206.500000, 8179.500000
1970, 117885912.000000, 1480.375000, 8144.500000, 8198.500000, 8179.500000
1971, 117886072.000000, 1430.125000, 8152.000000, 8207.500000, 8190.000000
1972, 117886232.000000, 1393.125000, 8151.500000, 8206.000000, 8190.500000
1973, 117886392.000000, 1361.625000, 8152.500000, 8204.000000, 8190.000000
1974, 117886552.000000, 1320.625000, 8157.000000, 8192.500000, 8180.500000
1975, 117886712.000000, 1279.000000, 8163.000000, 8196.000000, 8183.000000
1976, 117886872.000000, 1237.375000, 8160.000000, 8201.500000, 8190.500000
1977, 117887032.000000, 1202.500000, 8158.000000, 8199.500000, 8188.500000
1978, 117887192.000000, 1189.500000, 8159.000000, 8195.000000, 8184.000000
1979, 117887352.000000, 1235.250000, 8168.000000, 8202.500000, 8204.500000
1980, 117887512.000000, 1368.500000, 8172.500000, 8204.500000, 8204.500000
1981, 117887672.000000, 1593.375000, 8177.500000, 8201.500000, 8201.500000
1982, 117887832.000000, 1877.250000, 8156.500000, 8187.500000, 8173.500000
1983, 117887992.000000, 2173.375000, 8160.500000, 8183.500000, 8174.000000
1984, 117888152.000000, 2430.875000, 8168.000000, 8186.500000, 8169.500000
1985, 117888312.000000, 2632.250000, 8167.500000, 8185.000000, 8173.000000
1986, 117888472.000000, 2761.125000, 8154.500000, 8227.500000, 8222.000000
1987, 117888632.000000, 2808.125000, 8385.500000, 8144.000000, 8216.000000
1988, 117888792.000000, 2780.250000, 8174.000000, 8138.500000, 8162.500000
1989, 117888952.000000, 2698.625000, 8078.500000, 8092.500000, 8062.000000
1990, 117889112.000000, 2591.125000, 8171.500000, 8177.000000, 8175.500000
1991, 117889272.000000, 2481.375000, 8188.500000, 8200.500000, 8197.500000
1992, 117889432.000000, 2384.500000, 8189.500000, 8200.000000, 8199.500000
1993, 117889592.000000, 2300.875000, 8202.500000, 8197.000000, 8203.000000
1994, 117889752.000000, 2233.625000, 8220.500000, 8195.000000, 8203.000000
1995, 117889912.000000, 2179.250000, 8241.000000, 8192.000000, 8212.500000
1996, 117890072.000000, 2146.000000, 8268.000000, 8194.500000, 8227.000000
1997, 117890232.000000, 2128.000000, 8284.000000, 8201.500000, 8238.000000
1998, 117890392.000000, 2104.250000, 8276.500000, 8212.500000, 8246.000000
1999, 117890552.000000, 2077.500000, 8233.000000, 8224.000000, 8244.500000
2000, 117890712.000000, 2035.500000, 8180.000000, 8223.000000, 8225.000000
2001, 117890872.000000, 1979.125000, 8154.500000, 8214.000000, 8206.500000
2002, 117891032.000000, 1921.500000, 8145.500000, 8207.000000, 8197.000000
2003, 117891192.000000, 1878.000000, 8145.500000, 8197.000000, 8189.500000
2004, 117891352.000000, 1839.000000, 8146.500000, 8199.000000, 8187.000000
2005, 117891512.000000, 1795.250000, 8151.500000, 8198.000000, 8189.000000
2006, 117891672.000000, 1746.875000, 8160.000000, 8208.500000, 8200.500000
2007, 117891832.000000, 1706.750000, 8167.500000, 8206.000000, 8203.000000
2008, 117891992.000000, 1674.250000, 8164.000000, 8197.000000, 8194.500000
2009, 117892152.000000, 1653.875000, 8169.500000, 8192.000000, 8188.500000
2010, 117892312.000000, 1639.375000, 8161.500000, 8187.500000, 8187.000000
2011, 117892472.000000, 1614.625000, 8168.000000, 8210.000000, 8220.000000
2012, 117892632.000000, 1577.000000, 8179.000000, 8209.000000, 8219.000000
2013, 117892792.000000, 1548.750000, 8182.500000, 8199.000000, 8208.000000
2014, 117892952.000000, 1591.625000, 8167.500000, 8186.500000, 8177.500000
2015, 117893112.000000, 1732.000000, 8164.000000, 8180.000000, 8174.500000
2016, 117893272.000000, 1967.375000, 8163.500000, 8185.500000, 8178.000000
2017, 117893432.000000, 2241.000000, 8163.500000, 8189.000000, 8182.500000
2018, 117893592.000000, 2511.125000, 8166.000000, 8220.500000, 8217.500000
2019, 117893752.000000, 2734.875000, 8353.500000, 8147.000000, 8208.500000
2020, 117893912.000000, 2902.500000, 8180.000000, 8128.000000, 8154.000000
2021, 117894072.000000, 3006.875000, 8075.000000, 8095.000000, 8067.500000
2022, 117894232.000000, 3036.000000, 8168.000000, 8179.500000, 8177.000000
2023, 117894392.000000, 2984.875000, 8182.500000, 8195.500000, 8192.500000
2024, 117894552.000000, 2881.125000, 8190.000000, 8197.000000, 8192.000000
2025, 117894712.000000, 2766.750000, 8205.000000, 8200.500000, 8201.000000
2026, 117894872.000000, 2653.500000, 8218.500000, 8197.000000, 8210.500000
2027, 117895032.000000, 2549.875000, 8238.000000, 8199.000000, 8219.500000
2028, 117895192.000000, 2466.125000, 8268.000000, 8193.000000, 8223.500000
2029, 117895352.000000, 2396.250000, 8279.000000, 8198.500000, 8232.500000
2030, 117895512.000000, 2344.000000, 8269.500000, 8206.500000, 8243.000000
2031, 117895672.000000, 2308.625000, 8227.500000, 8234.500000, 8252.500000
2032, 117895832.000000, 2279.125000, 8179.500000, 8228.500000, 8233.000000
2033, 117895992.000000, 2241.125000, 8160.500000, 8210.500000, 8202.500000
2034, 117896152.000000, 2203.375000, 8154.500000, 8198.500000, 8188.000000
2035, 117896312.000000, 2166.750000, 8152.000000, 8196.500000, 8186.500000
2036, 117896472.000000, 2126.500000, 8158.500000, 8206.000000, 8199.000000
2037, 117896632.000000, 2074.625000, 8158.500000, 8202.000000, 8196.000000
2038, 117896792.000000, 2023.875000, 8167.000000, 8201.500000, 8197.000000
2039, 117896952.000000, 1977.250000, 8168.000000, 8196.500000, 8192.500000
2040, 117897112.000000, 1933.000000, 8167.500000, 8196.500000, 8194.500000
2041, 117897272.000000, 1894.000000, 8165.000000, 8201.000000, 8197.500000
2042, 117897432.000000, 1849.125000, 8172.000000, 8214.500000, 8224.000000
2043, 117897592.000000, 1789.125000, 8181.500000, 8210.500000, 8217.500000
2044, 117897752.000000, 1732.625000, 8184.000000, 8200.500000, 8206.000000
2045, 117897912.000000, 1703.750000, 8158.000000, 8186.500000, 8178.000000
2046, 117898072.000000, 1737.000000, 8166.000000, 8193.000000, 8184.000000
2047, 117898232.000000, 1854.500000, 8161.000000, 8189.500000, 8178.500000
2048, 117898392.000000, 2066.375000, 8162.500000, 8182.500000, 8175.000000
2049, 117898552.000000, 2321.875000, 8163.000000, 8231.500000, 8231.000000
2050, 117898712.000000, 2574.250000, 8382.000000, 8128.000000, 8198.000000
2051, 117898872.000000, 2784.500000, 8123.500000, 8118.000000, 8123.500000
2052, 117899032.000000, 2935.500000, 8087.500000, 8097.500000, 8071.000000
2053, 117899192.000000, 3016.125000, 8169.500000, 8187.000000, 8181.500000
2054, 117899352.000000, 3022.125000, 8181.500000, 8200.500000, 8192.500000
2055, 117899512.000000, 2967.625000, 8190.500000, 8202.000000, 8198.500000
2056, 117899672.000000, 2856.875000, 8206.500000, 8207.000000, 8209.500000
2057, 117899832.000000, 2714.750000, 8217.000000, 8207.000000, 8214.500000
2058, 117899992.000000, 2557.125000, 8234.500000, 8200.500000, 8213.500000
2059, 117900152.000000, 2418.375000, 8261.000000, 8200.000000, 8222.000000
2060, 117900312.000000, 2317.625000, 8277.500000, 8208.000000, 8237.000000
2061, 117900472.000000, 2245.375000, 8259.500000, 8224.000000, 8252.000000
2062, 117900632.000000, 2184.375000, 8219.000000, 8237.500000, 8249.500000
2063, 117900792.000000, 2128.625000, 8172.500000, 8220.000000, 8214.000000
2064, 117900952.000000, 2077.250000, 8156.000000, 8208.500000, 8192.500000
2065, 117901112.000000, 2032.250000, 8155.000000, 8203.000000, 8187.500000
2066, 117901272.000000, 1987.125000, 8145.000000, 8202.500000, 8186.500000
2067, 117901432.000000, 1928.125000, 8155.000000, 8201.000000, 8189.500000
2068, 117901592.000000, 1860.875000, 8157.500000, 8196.500000, 8183.000000
2069, 117901752.000000, 1798.875000, 8165.000000, 8192.000000, 8180.000000
2070, 117901912.000000, 1743.125000, 8163.000000, 8195.000000, 8183.000000
2071, 117902072.000000, 1689.875000, 8168.500000, 8198.000000, 8191.500000
2072, 117902232.000000, 1621.875000, 8163.000000, 8200.500000, 8196.500000
2073, 117902392.000000, 1548.875000, 8172.500000, 8209.000000, 8212.000000
2074, 117902552.000000, 1476.875000, 8179.500000, 8193.000000, 8195.000000
2075, 117902712.000000, 1416.625000, 8177.000000, 8188.500000, 8184.000000
2076, 117902872.000000, 1396.625000, 8162.500000, 8183.000000, 8168.500000
2077, 117903032.000000, 1452.625000, 8156.000000, 8184.500000, 8166.500000
2078, 117903192.000000, 1615.250000, 8156.000000, 8178.500000, 8162.000000
2079, 117903352.000000, 1858.750000, 8161.500000, 8180.000000, 8160.000000
2080, 117903512.000000, 2149.625000, 8179.500000, 8250.000000, 8251.500000
2081, 117903672.000000, 2431.625000, 8464.500000, 8033.000000, 8135.000000
2082, 117903832.000000, 2663.875000, 8046.500000, 8088.500000, 8062.500000
2083, 117903992.000000, 2812.250000, 8133.000000, 8134.000000, 8121.000000
2084, 117904152.000000, 2878.625000, 8180.500000, 8189.500000, 8175.500000
2085, 117904312.000000, 2867.625000, 8192.000000, 8200.500000, 8190.500000
2086, 117904472.000000, 2789.875000, 8201.500000, 8204.500000, 8202.000000
2087, 117904632.000000, 2671.500000, 8211.500000, 8205.000000, 8205.000000
2088, 117904792.000000, 2525.500000, 8228.000000, 8202.500000, 8208.500000
2089, 117904952.000000, 2376.250000, 8249.000000, 8200.000000, 8214.000000
2090, 117905112.000000, 2238.875000, 8274.500000, 8202.500000, 8224.500000
2091, 117905272.000000, 2128.000000, 8282.000000, 8214.500000, 8241.500000
2092, 117905432.000000, 2036.250000, 8255.500000, 8226.500000, 8248.000000
2093, 117905592.000000, 1957.625000, 8202.500000, 8225.000000, 8221.500000
2094, 117905752.000000, 1891.750000, 8166.500000, 8203.000000, 8184.500000
2095, 117905912.000000, 1846.875000, 8154.500000, 8195.500000, 8175.000000
2096, 117906072.000000, 1813.750000, 8155.000000, 8197.500000, 8175.000000
2097, 117906232.000000, 1777.875000, 8161.000000, 8195.500000, 8176.000000
2098, 117906392.000000, 1728.750000, 8158.000000, 8186.000000, 8163.000000
2099, 117906552.000000, 1659.125000, 8168.500000, 8187.000000, 8165.500000
2100, 117906712.000000, 1563.250000, 8169.000000, 8189.500000, 8170.500000
2101, 117906872.000000, 1460.875000, 8166.500000, 8190.500000, 8175.000000
2102, 117907032.000000, 1384.375000, 8166.500000, 8187.000000, 8173.500000
2103, 117907192.000000, 1332.375000, 8169.500000, 8184.000000, 8165.500000
2104, 117907352.000000, 1270.500000, 8172.500000, 8187.500000, 8175.000000
2105, 117907512.000000, 1201.250000, 8173.500000, 8198.500000, 8192.500000
2106, 117907672.000000, 1174.375000, 8189.500000, 8194.500000, 8189.000000
2107, 117907832.000000, 1260.250000, 8185.000000, 8183.500000, 8174.000000
2108, 117907992.000000, 1471.625000, 8167.500000, 8170.000000, 8146.000000
2109, 117908152.000000, 1781.375000, 8173.500000, 8170.000000, 8147.000000
2110, 117908312.000000, 2139.750000, 8165.500000, 8170.500000, 8147.000000
2111, 117908472.000000, 2496.625000, 8165.000000, 8179.500000, 8162.500000
2112, 117908632.000000, 2796.000000, 8209.500000, 8235.000000, 8238.500000
2113, 117908792.000000, 3006.625000, 8465.500000, 8006.500000, 8108.000000
2114, 117908952.000000, 3116.375000, 8054.500000, 8049.000000, 8005.500000
2115, 117909112.000000, 3139.250000, 8156.000000, 8150.500000, 8135.500000
2116, 117909272.000000, 3089.250000, 8187.500000, 8193.000000, 8177.000000
2117, 117909432.000000, 2983.000000, 8195.500000, 8195.500000, 8182.000000
2118, 117909592.000000, 2843.500000, 8206.500000, 8190.500000, 8179.500000
2119, 117909752.000000, 2690.750000, 8223.500000, 8189.500000, 8185.500000
2120, 117909912.000000, 2543.375000, 8234.500000, 8191.000000, 8196.500000
2121, 117910072.000000, 2420.500000, 8259.500000, 8194.500000, 8210.500000
2122, 117910232.000000, 2325.625000, 8283.000000, 8198.000000, 8225.500000
2123, 117910392.000000, 2251.500000, 8289.000000, 8196.500000, 8227.500000
2124, 117910552.000000, 2188.750000, 8252.000000, 8208.500000, 8227.500000
2125, 117910712.000000, 2134.625000, 8202.000000, 8215.000000, 8212.000000
2126, 117910872.000000, 2077.625000, 8166.000000, 8202.000000, 8187.000000
2127, 117911032.000000, 2005.875000, 8159.000000, 8196.000000, 8177.000000
2128, 117911192.000000, 1925.000000, 8155.500000, 8189.500000, 8164.500000
2129, 117911352.000000, 1842.250000, 8157.000000, 8182.000000, 8165.000000
2130, 117911512.000000, 1761.625000, 8159.500000, 8186.500000, 8172.000000
2131, 117911672.000000, 1673.625000, 8162.500000, 8189.500000, 8177.500000
2132, 117911832.000000, 1583.500000, 8169.000000, 8192.000000, 8182.000000
2133, 117911992.000000, 1496.250000, 8167.500000, 8182.500000, 8176.500000
2134, 117912152.000000, 1421.125000, 8163.500000, 8182.000000, 8170.500000
2135, 117912312.000000, 1351.375000, 8166.500000, 8185.000000, 8174.500000
2136, 117912472.000000, 1276.375000, 8172.500000, 8194.000000, 8182.000000
2137, 117912632.000000, 1207.000000, 8172.500000, 8186.000000, 8179.500000
2138, 117912792.000000, 1188.625000, 8177.000000, 8191.000000, 8187.500000
2139, 117912952.000000, 1292.250000, 8180.500000, 8193.000000, 8197.000000
2140, 117913112.000000, 1534.000000, 8188.500000, 8190.000000, 8195.000000
2141, 117913272.000000, 1895.500000, 8182.500000, 8183.500000, 8181.500000
2142, 117913432.000000, 2304.750000, 8169.500000, 8179.500000, 8168.000000
2143, 117913592.000000, 2690.750000, 8174.000000, 8176.500000, 8162.500000
2144, 117913752.000000, 2992.625000, 8173.500000, 8168.500000, 8155.500000
2145, 117913912.000000, 3193.375000, 8177.500000, 8171.500000, 8163.000000
2146, 117914072.000000, 3282.625000, 8177.500000, 8242.500000, 8241.000000
2147, 117914232.000000, 3273.125000, 8555.000000, 8010.500000, 8146.500000
2148, 117914392.000000, 3188.500000, 8061.000000, 8086.000000, 8059.000000
2149, 117914552.000000, 3033.625000, 8140.500000, 8138.500000, 8125.500000
2150, 117914712.000000, 2850.500000, 8186.500000, 8192.000000, 8179.500000
2151, 117914872.000000, 2664.125000, 8196.000000, 8195.500000, 8188.500000
2152, 117915032.000000, 2495.375000, 8203.500000, 8196.000000, 8195.500000
2153, 117915192.000000, 2345.125000, 8216.000000, 8195.000000, 8193.500000
2154, 117915352.000000, 2226.375000, 8230.000000, 8191.000000, 8199.500000
2155, 117915512.000000, 2137.125000, 8257.500000, 8188.500000, 8212.000000
2156, 117915672.000000, 2054.500000, 8285.000000, 8192.000000, 8225.000000
2157, 117915832.000000, 1962.500000, 8299.500000, 8202.000000, 8241.000000
2158, 117915992.000000, 1884.500000, 8272.500000, 8207.500000, 8236.000000
2159, 117916152.000000, 1817.250000, 8215.000000, 8215.500000, 8219.500000
2160, 117916312.000000, 1748.125000, 8167.500000, 8202.000000, 8190.000000
2161, 117916472.000000, 1665.500000, 8157.500000, 8194.500000, 8181.000000
2162, 117916632.000000, 1570.375000, 8152.500000, 8188.500000, 8171.500000
2163, 117916792.000000, 1470.875000, 8152.500000, 8188.500000, 8167.500000
2164, 117916952.000000, 1378.250000, 8156.500000, 8184.500000, 8165.500000
2165, 117917112.000000, 1296.000000, 8168.500000, 8183.000000, 8169.500000
2166, 117917272.000000, 1215.000000, 8171.000000, 8188.500000, 8179.500000
2167, 117917432.000000, 1136.000000, 8173.500000, 8191.500000, 8183.500000
2168, 117917592.000000, 1063.500000, 8171.000000, 8181.000000, 8173.000000
2169, 117917752.000000, 996.250000, 8172.000000, 8182.000000, 8169.000000
2170, 117917912.000000, 931.625000, 8172.500000, 8184.000000, 8170.500000
2171, 117918072.000000, 870.000000, 8172.000000, 8183.000000, 8176.000000
2172, 117918232.000000, 831.375000, 8179.000000, 8179.500000, 8172.500000
2173, 117918392.000000, 877.750000, 8177.000000, 8182.500000, 8177.000000
2174, 117918552.000000, 1070.625000, 8178.000000, 8186.500000, 8189.500000
2175, 117918712.000000, 1392.125000, 8198.500000, 8190.000000, 8191.500000
2176, 117918872.000000, 1774.750000, 8187.500000, 8182.000000, 8181.000000
2177, 117919032.000000, 2136.125000, 8174.500000, 8171.500000, 8159.500000
2178, 117919192.000000, 2423.250000, 8174.500000, 8170.000000, 8157.000000
2179, 117919352.000000, 2612.250000, 8168.500000, 8167.000000, 8153.000000
2180, 117919512.000000, 2708.625000, 8175.500000, 8175.000000, 8165.500000
2181, 117919672.000000, 2712.000000, 8167.000000, 8241.500000, 8237.500000
2182, 117919832.000000, 2633.625000, 8560.000000, 8032.000000, 8164.500000
2183, 117919992.000000, 2487.375000, 8094.000000, 8107.500000, 8089.500000
2184, 117920152.000000, 2297.375000, 8129.000000, 8124.000000, 8113.500000
2185, 117920312.000000, 2107.000000, 8179.500000, 8181.000000, 8181.000000
2186, 117920472.000000, 1952.125000, 8191.000000, 8194.000000, 8191.500000
2187, 117920632.000000, 1829.875000, 8193.500000, 8192.000000, 8194.000000
2188, 117920792.000000, 1716.875000, 8209.500000, 8185.500000, 8188.000000
2189, 117920952.000000, 1621.250000, 8228.000000, 8183.000000, 8193.000000
2190, 117921112.000000, 1544.500000, 8255.500000, 8184.000000, 8207.500000
2191, 117921272.000000, 1479.125000, 8280.000000, 8186.500000, 8221.000000
2192, 117921432.000000, 1417.375000, 8294.000000, 8186.000000, 8230.000000
2193, 117921592.000000, 1357.125000, 8284.000000, 8196.500000, 8233.000000
2194, 117921752.000000, 1287.625000, 8220.000000, 8203.500000, 8216.500000
2195, 117921912.000000, 1195.875000, 8172.000000, 8202.000000, 8195.000000
2196, 117922072.000000, 1094.625000, 8149.000000, 8198.000000, 8179.000000
2197, 117922232.000000, 995.875000, 8145.000000, 8190.500000, 8170.500000
2198, 117922392.000000, 906.625000, 8150.000000, 8185.500000, 8168.500000
2199, 117922552.000000, 827.750000, 8152.000000, 8180.500000, 8167.000000
2200, 117922712.000000, 759.625000, 8153.500000, 8189.000000, 8177.500000
2201, 117922872.000000, 702.375000, 8160.000000, 8197.000000, 8188.000000
2202, 117923032.000000, 662.000000, 8168.000000, 8192.500000, 8184.000000
2203, 117923192.000000, 625.625000, 8165.500000, 8187.000000, 8178.500000
2204, 117923352.000000, 588.000000, 8167.000000, 8185.000000, 8177.500000
2205, 117923512.000000, 551.750000, 8172.000000, 8191.000000, 8183.000000
2206, 117923672.000000, 518.250000, 8166.000000, 8186.000000, 8177.000000
2207, 117923832.000000, 505.000000, 8169.500000, 8191.000000, 8185.500000
2208, 117923992.000000, 571.750000, 8169.000000, 8181.500000, 8174.500000
2209, 117924152.000000, 770.000000, 8183.000000, 8194.000000, 8202.000000
2210, 117924312.000000, 1113.000000, 8184.000000, 8191.000000, 8198.500000
2211, 117924472.000000, 1530.625000, 8182.000000, 8190.000000, 8194.000000
2212, 117924632.000000, 1944.125000, 8169.500000, 8179.000000, 8167.500000
2213, 117924792.000000, 2301.375000, 8168.000000, 8176.000000, 8164.000000
2214, 117924952.000000, 2565.750000, 8172.000000, 8171.500000, 8159.500000
2215, 117925112.000000, 2724.125000, 8173.000000, 8177.000000, 8169.500000
2216, 117925272.000000, 2768.375000, 8166.000000, 8200.000000, 8195.000000
2217, 117925432.000000, 2737.000000, 8310.000000, 8186.500000, 8225.000000
2218, 117925592.000000, 2639.625000, 8363.000000, 8081.500000, 8161.500000
2219, 117925752.000000, 2504.250000, 8064.500000, 8092.500000, 8062.000000
2220, 117925912.000000, 2356.625000, 8154.500000, 8166.000000, 8157.500000
2221, 117926072.000000, 2221.375000, 8181.500000, 8198.500000, 8190.000000
2222, 117926232.000000, 2115.875000, 8185.500000, 8198.000000, 8191.000000
2223, 117926392.000000, 2036.500000, 8199.000000, 8195.500000, 8192.500000
2224, 117926552.000000, 1983.875000, 8205.000000, 8190.000000, 8195.000000
2225, 117926712.000000, 1941.875000, 8233.500000, 8196.000000, 8212.500000
2226, 117926872.000000, 1905.375000, 8262.000000, 8196.500000, 8226.000000
2227, 117927032.000000, 1862.250000, 8291.000000, 8201.500000, 8239.500000
2228, 117927192.000000, 1811.375000, 8289.500000, 8198.500000, 8235.500000
2229, 117927352.000000, 1751.125000, 8252.500000, 8214.500000, 8235.000000
2230, 117927512.000000, 1678.750000, 8189.000000, 8219.500000, 8218.000000
2231, 117927672.000000, 1607.375000, 8152.000000, 8213.000000, 8196.000000
2232, 117927832.000000, 1539.875000, 8141.500000, 8203.000000, 8182.500000
2233, 117927992.000000, 1472.500000, 8143.000000, 8196.000000, 8173.000000
2234, 117928152.000000, 1398.375000, 8146.500000, 8194.500000, 8177.500000
2235, 117928312.000000, 1320.000000, 8150.000000, 8197.500000, 8182.000000
2236, 117928472.000000, 1247.500000, 8154.500000, 8201.000000, 8185.500000
2237, 117928632.000000, 1176.500000, 8158.000000, 8203.000000, 8192.500000
2238, 117928792.000000, 1112.625000, 8151.000000, 8195.500000, 8181.500000
2239, 117928952.000000, 1054.750000, 8160.500000, 8196.000000, 8183.500000
2240, 117929112.000000, 999.750000, 8163.000000, 8194.500000, 8184.500000
2241, 117929272.000000, 942.875000, 8162.500000, 8194.000000, 8186.500000
2242, 117929432.000000, 887.500000, 8160.500000, 8194.500000, 8180.000000
2243, 117929592.000000, 855.875000, 8165.500000, 8191.000000, 8177.500000
2244, 117929752.000000, 893.125000, 8155.500000, 8187.500000, 8173.500000
2245, 117929912.000000, 1052.000000, 8165.000000, 8205.000000, 8205.000000
2246, 117930072.000000, 1335.250000, 8176.000000, 8199.000000, 8203.000000
2247, 117930232.000000, 1685.000000, 8181.000000, 8194.000000, 8195.500000
2248, 117930392.000000, 2034.875000, 8162.000000, 8181.500000, 8167.000000
2249, 117930552.000000, 2335.375000, 8161.500000, 8178.000000, 8164.000000
2250, 117930712.000000, 2556.875000, 8164.500000, 8181.500000, 8166.500000
2251, 117930872.000000, 2686.875000, 8168.500000, 8187.000000, 8177.500000
2252, 117931032.000000, 2740.500000, 8155.500000, 8222.000000, 8211.000000
2253, 117931192.000000, 2722.000000, 8370.000000, 8137.000000, 8196.000000
2254, 117931352.000000, 2648.750000, 8243.500000, 8114.000000, 8150.500000
2255, 117931512.000000, 2545.500000, 8074.500000, 8103.500000, 8076.500000
2256, 117931672.000000, 2434.250000, 8170.500000, 8188.000000, 8184.000000
2257, 117931832.000000, 2328.250000, 8182.000000, 8199.000000, 8189.500000
2258, 117931992.000000, 2229.500000, 8199.000000, 8200.000000, 8193.000000
2259, 117932152.000000, 2148.625000, 8205.000000, 8193.500000, 8193.000000
2260, 117932312.000000, 2093.000000, 8223.500000, 8200.000000, 8207.000000
2261, 117932472.000000, 2057.625000, 8239.500000, 8199.000000, 8218.000000
2262, 117932632.000000, 2019.250000, 8275.500000, 8198.000000, 8230.000000
2263, 117932792.000000, 1966.875000, 8292.500000, 8193.000000, 8233.000000
2264, 117932952.000000, 1902.875000, 8290.500000, 8197.000000, 8231.000000
2265, 117933112.000000, 1831.750000, 8246.000000, 8215.000000, 8237.000000
2266, 117933272.000000, 1758.125000, 8187.000000, 8220.000000, 8220.500000
2267, 117933432.000000, 1682.875000, 8152.000000, 8208.000000, 8194.000000
2268, 117933592.000000, 1605.625000, 8147.000000, 8193.500000, 8176.500000
2269, 117933752.000000, 1525.000000, 8146.500000, 8190.500000, 8168.500000
2270, 117933912.000000, 1445.375000, 8155.500000, 8193.000000, 8177.000000
2271, 117934072.000000, 1372.375000, 8155.000000, 8196.500000, 8183.000000
2272, 117934232.000000, 1316.250000, 8155.500000, 8199.500000, 8188.500000
2273, 117934392.000000, 1273.125000, 8159.500000, 8191.000000, 8180.500000
2274, 117934552.000000, 1234.000000, 8166.500000, 8186.500000, 8178.000000
2275, 117934712.000000, 1194.000000, 8162.500000, 8190.000000, 8186.500000
2276, 117934872.000000, 1153.250000, 8166.500000, 8193.500000, 8187.000000
2277, 117935032.000000, 1104.500000, 8162.000000, 8190.000000, 8182.000000
2278, 117935192.000000, 1042.875000, 8170.000000, 8186.000000, 8176.000000
2279, 117935352.000000, 990.750000, 8171.500000, 8187.500000, 8177.500000
2280, 117935512.000000, 1013.625000, 8168.500000, 8197.500000, 8193.000000
2281, 117935672.000000, 1152.500000, 8175.000000, 8203.500000, 8206.500000
2282, 117935832.000000, 1414.250000, 8185.000000, 8196.500000, 8202.500000
2283, 117935992.000000, 1757.000000, 8174.000000, 8179.500000, 8177.500000
2284, 117936152.000000, 2104.750000, 8161.500000, 8172.500000, 8158.500000
2285, 117936312.000000, 2405.875000, 8167.000000, 8182.500000, 8167.500000
2286, 117936472.000000, 2635.375000, 8176.500000, 8182.500000, 8171.500000
2287, 117936632.000000, 2782.250000, 8168.000000, 8186.000000, 8178.000000
2288, 117936792.000000, 2842.375000, 8170.000000, 8243.000000, 8243.000000
2289, 117936952.000000, 2823.500000, 8571.000000, 8026.500000, 8165.500000
2290, 117937112.000000, 2735.375000, 8082.000000, 8121.500000, 8107.500000
2291, 117937272.000000, 2599.375000, 8128.000000, 8142.000000, 8128.500000
2292, 117937432.000000, 2445.500000, 8181.500000, 8192.500000, 8185.000000
2293, 117937592.000000, 2301.000000, 8191.500000, 8194.500000, 8186.500000
2294, 117937752.000000, 2185.000000, 8208.000000, 8190.500000, 8189.000000
2295, 117937912.000000, 2097.875000, 8228.500000, 8191.000000, 8200.000000
2296, 117938072.000000, 2034.125000, 8244.500000, 8197.000000, 8215.000000
2297, 117938232.000000, 1989.000000, 8266.500000, 8192.500000, 8220.000000
2298, 117938392.000000, 1959.625000, 8301.500000, 8190.000000, 8228.000000
2299, 117938552.000000, 1933.375000, 8312.500000, 8193.000000, 8235.500000
2300, 117938712.000000, 1903.000000, 8297.500000, 8204.500000, 8245.000000
2301, 117938872.000000, 1859.250000, 8236.500000, 8223.500000, 8242.000000
2302, 117939032.000000, 1813.875000, 8181.500000, 8216.000000, 8212.500000
2303, 117939192.000000, 1773.625000, 8153.000000, 8205.000000, 8191.000000
2304, 117939352.000000, 1741.750000, 8142.000000, 8197.500000, 8177.500000
2305, 117939512.000000, 1702.125000, 8130.000000, 8200.000000, 8180.000000
2306, 117939672.000000, 1654.875000, 8125.500000, 8209.500000, 8186.500000
2307, 117939832.000000, 1609.250000, 8127.000000, 8213.500000, 8188.500000
2308, 117939992.000000, 1568.750000, 8134.500000, 8209.000000, 8184.000000
2309, 117940152.000000, 1535.625000, 8139.000000, 8211.000000, 8188.000000
2310, 117940312.000000, 1507.625000, 8134.000000, 8206.500000, 8189.500000
2311, 117940472.000000, 1488.750000, 8140.500000, 8203.000000, 8188.000000
2312, 117940632.000000, 1475.375000, 8144.000000, 8203.000000, 8190.000000
2313, 117940792.000000, 1452.500000, 8144.000000, 8200.000000, 8183.000000
2314, 117940952.000000, 1421.875000, 8152.000000, 8210.000000, 8203.500000
2315, 117941112.000000, 1408.125000, 8161.000000, 8209.500000, 8204.000000
2316, 117941272.000000, 1453.375000, 8155.000000, 8208.500000, 8201.000000
2317, 117941432.000000, 1603.625000, 8139.500000, 8196.000000, 8174.000000
2318, 117941592.000000, 1875.125000, 8137.500000, 8191.500000, 8167.500000
2319, 117941752.000000, 2229.375000, 8135.000000, 8190.000000, 8164.500000
2320, 117941912.000000, 2598.625000, 8135.500000, 8196.500000, 8172.500000
2321, 117942072.000000, 2928.750000, 8120.000000, 8234.000000, 8213.500000
2322, 117942232.000000, 3180.375000, 8336.500000, 8165.500000, 8214.000000
2323, 117942392.000000, 3340.625000, 8195.500000, 8123.000000, 8143.500000
2324, 117942552.000000, 3417.125000, 8040.000000, 8102.500000, 8054.500000
2325, 117942712.000000, 3417.000000, 8126.000000, 8186.500000, 8162.000000
2326, 117942872.000000, 3354.125000, 8145.500000, 8210.000000, 8186.500000
2327, 117943032.000000, 3249.750000, 8146.000000, 8214.500000, 8191.000000
2328, 117943192.000000, 3135.125000, 8159.500000, 8206.000000, 8188.000000
2329, 117943352.000000, 3032.750000, 8171.500000, 8207.000000, 8195.000000
2330, 117943512.000000, 2952.875000, 8195.000000, 8207.000000, 8207.000000
2331, 117943672.000000, 2889.000000, 8230.500000, 8210.500000, 8223.500000
2332, 117943832.000000, 2834.500000, 8250.000000, 8213.500000, 8232.500000
2333, 117943992.000000, 2784.500000, 8249.500000, 8219.000000, 8234.500000
2334, 117944152.000000, 2737.000000, 8198.500000, 8233.000000, 8235.500000
2335, 117944312.000000, 2698.000000, 8141.500000, 8233.000000, 8216.000000
2336, 117944472.000000, 2659.375000, 8113.500000, 8222.000000, 8197.000000
2337, 117944632.000000, 2618.125000, 8106.500000, 8209.000000, 8178.500000
2338, 117944792.000000, 2569.125000, 8113.000000, 8205.000000, 8172.000000
2339, 117944952.000000, 2520.250000, 8109.000000, 8207.000000, 8174.000000
2340, 117945112.000000, 2473.875000, 8115.500000, 8212.500000, 8186.000000
2341, 117945272.000000, 2427.250000, 8125.500000, 8209.500000, 8187.500000
2342, 117945432.000000, 2374.750000, 8130.000000, 8208.500000, 8187.500000
2343, 117945592.000000, 2328.000000, 8136.000000, 8203.000000, 8179.000000
2344, 117945752.000000, 2301.750000, 8131.500000, 8204.000000, 8180.000000
2345, 117945912.000000, 2291.375000, 8134.500000, 8200.500000, 8180.500000
2346, 117946072.000000, 2291.250000, 8127.500000, 8209.000000, 8190.500000
2347, 117946232.000000, 2274.250000, 8133.000000, 8216.500000, 8206.500000
2348, 117946392.000000, 2235.250000, 8142.500000, 8211.000000, 8202.500000
2349, 117946552.000000, 2200.250000, 8144.500000, 8204.000000, 8193.500000
2350, 117946712.000000, 2218.375000, 8129.000000, 8195.000000, 8173.500000
2351, 117946872.000000, 2319.125000, 8124.000000, 8196.500000, 8172.500000
2352, 117947032.000000, 2524.750000, 8129.500000, 8194.000000, 8175.500000
2353, 117947192.000000, 2789.125000, 8131.500000, 8192.000000, 8170.000000
2354, 117947352.000000, 3070.500000, 8128.500000, 8230.000000, 8216.000000
2355, 117947512.000000, 3321.250000, 8345.000000, 8152.500000, 8209.500000
2356, 117947672.000000, 3505.625000, 8153.500000, 8123.500000, 8139.000000
2357, 117947832.000000, 3609.125000, 8057.000000, 8103.000000, 8062.500000
2358, 117947992.000000, 3627.625000, 8141.000000, 8188.500000, 8169.000000
2359, 117948152.000000, 3578.625000, 8162.500000, 8205.000000, 8188.500000
2360, 117948312.000000, 3470.250000, 8169.000000, 8210.500000, 8198.500000
2361, 117948472.000000, 3337.875000, 8177.000000, 8214.000000, 8205.000000
2362, 117948632.000000, 3202.375000, 8197.500000, 8212.500000, 8213.000000
2363, 117948792.000000, 3063.875000, 8215.500000, 8205.500000, 8212.500000
2364, 117948952.000000, 2937.000000, 8245.000000, 8207.000000, 8224.000000
2365, 117949112.000000, 2825.250000, 8264.000000, 8214.000000, 8240.000000
2366, 117949272.000000, 2736.375000, 8260.500000, 8230.000000, 8259.000000
2367, 117949432.000000, 2663.625000, 8210.000000, 8242.500000, 8255.500000
2368, 117949592.000000, 2587.125000, 8161.500000, 8228.500000, 8217.500000
2369, 117949752.000000, 2513.625000, 8139.000000, 8215.000000, 8197.000000
2370, 117949912.000000, 2447.375000, 8135.500000, 8213.500000, 8193.000000
2371, 117950072.000000, 2390.875000, 8136.500000, 8214.000000, 8196.500000
2372, 117950232.000000, 2325.125000, 8133.500000, 8212.000000, 8193.500000
2373, 117950392.000000, 2256.375000, 8139.500000, 8204.500000, 8188.000000
2374, 117950552.000000, 2195.125000, 8149.000000, 8208.500000, 8195.500000
2375, 117950712.000000, 2148.125000, 8153.500000, 8207.500000, 8199.000000
2376, 117950872.000000, 2106.625000, 8152.500000, 8207.500000, 8201.500000
2377, 117951032.000000, 2060.500000, 8153.000000, 8204.000000, 8196.500000
2378, 117951192.000000, 2003.375000, 8157.500000, 8206.500000, 8204.500000
2379, 117951352.000000, 1947.750000, 8163.000000, 8213.000000, 8215.000000
2380, 117951512.000000, 1893.375000, 8179.500000, 8211.000000, 8213.500000
2381, 117951672.000000, 1844.125000, 8158.000000, 8203.000000, 8195.500000
2382, 117951832.000000, 1822.125000, 8153.500000, 8191.500000, 8179.000000
2383, 117951992.000000, 1861.500000, 8158.000000, 8191.500000, 8176.000000
2384, 117952152.000000, 2001.125000, 8162.000000, 8190.500000, 8176.000000
2385, 117952312.000000, 2232.625000, 8164.000000, 8198.500000, 8187.500000
2386, 117952472.000000, 2531.625000, 8197.000000, 8258.000000, 8271.500000
2387, 117952632.000000, 2848.375000, 8447.000000, 8047.500000, 8150.500000
2388, 117952792.000000, 3130.750000, 8054.500000, 8092.000000, 8068.000000
2389, 117952952.000000, 3346.375000, 8148.500000, 8154.500000, 8148.500000
2390, 117953112.000000, 3481.500000, 8183.500000, 8205.500000, 8198.000000
2391, 117953272.000000, 3540.375000, 8185.500000, 8213.000000, 8210.000000
2392, 117953432.000000, 3522.125000, 8195.000000, 8214.500000, 8217.500000
2393, 117953592.000000, 3446.625000, 8209.500000, 8207.000000, 8210.500000
2394, 117953752.000000, 3336.375000, 8226.500000, 8208.500000, 8218.500000
2395, 117953912.000000, 3216.125000, 8253.500000, 8215.000000, 8238.000000
2396, 117954072.000000, 3099.875000, 8286.000000, 8214.000000, 8249.500000
2397, 117954232.000000, 3007.125000, 8291.500000, 8219.500000, 8255.000000
2398, 117954392.000000, 2935.625000, 8259.500000, 8234.500000, 8257.500000
2399, 117954552.000000, 2875.000000, 8206.000000, 8234.000000, 8238.500000
2400, 117954712.000000, 2814.625000, 8171.500000, 8218.500000, 8207.500000
2401, 117954872.000000, 2754.875000, 8153.500000, 8209.500000, 8190.000000
2402, 117955032.000000, 2700.125000, 8147.500000, 8205.000000, 8185.500000
2403, 117955192.000000, 2641.250000, 8151.500000, 8199.500000, 8180.000000
2404, 117955352.000000, 2568.875000, 8154.500000, 8196.000000, 8179.500000
2405, 117955512.000000, 2478.625000, 8157.000000, 8198.000000, 8188.000000
2406, 117955672.000000, 2389.375000, 8160.500000, 8199.000000, 8192.500000
2407, 117955832.000000, 2318.250000, 8156.000000, 8192.000000, 8186.500000
2408, 117955992.000000, 2254.625000, 8160.500000, 8182.500000, 8177.000000
2409, 117956152.000000, 2188.500000, 8150.500000, 8184.000000, 8177.500000
2410, 117956312.000000, 2112.750000, 8160.500000, 8201.500000, 8210.500000
2411, 117956472.000000, 2046.000000, 8167.500000, 8198.000000, 8205.500000
2412, 117956632.000000, 2009.375000, 8171.500000, 8184.000000, 8188.500000
2413, 117956792.000000, 2001.125000, 8153.000000, 8177.000000, 8162.000000
2414, 117956952.000000, 2013.750000, 8164.500000, 8176.000000, 8167.000000
2415, 117957112.000000, 2052.375000, 8156.000000, 8186.000000, 8177.000000
2416, 117957272.000000, 2150.250000, 8157.000000, 8186.500000, 8173.500000
2417, 117957432.000000, 2329.250000, 8156.500000, 8246.000000, 8243.500000
2418, 117957592.000000, 2578.125000, 8407.500000, 8093.500000, 8173.000000
2419, 117957752.000000, 2845.750000, 8092.500000, 8087.000000, 8077.000000
2420, 117957912.000000, 3090.250000, 8107.500000, 8101.500000, 8080.500000
2421, 117958072.000000, 3281.375000, 8169.500000, 8196.000000, 8191.000000
2422, 117958232.000000, 3395.125000, 8174.500000, 8204.000000, 8198.500000
2423, 117958392.000000, 3427.750000, 8185.000000, 8196.500000, 8193.500000
2424, 117958552.000000, 3385.500000, 8194.000000, 8202.000000, 8202.500000
2425, 117958712.000000, 3299.000000, 8206.500000, 8207.000000, 8217.500000
2426, 117958872.000000, 3184.625000, 8228.000000, 8209.500000, 8226.500000
2427, 117959032.000000, 3057.375000, 8257.000000, 8212.000000, 8239.500000
2428, 117959192.000000, 2931.375000, 8268.500000, 8213.500000, 8244.500000
2429, 117959352.000000, 2822.000000, 8256.000000, 8228.500000, 8258.000000
2430, 117959512.000000, 2730.250000, 8205.500000, 8241.500000, 8255.500000
2431, 117959672.000000, 2648.125000, 8158.500000, 8226.000000, 8221.000000
2432, 117959832.000000, 2562.250000, 8150.000000, 8211.500000, 8197.500000
2433, 117959992.000000, 2473.500000, 8148.000000, 8198.500000, 8183.500000
2434, 117960152.000000, 2395.750000, 8150.500000, 8199.000000, 8185.000000
2435, 117960312.000000, 2322.625000, 8150.500000, 8203.000000, 8196.500000
2436, 117960472.000000, 2254.500000, 8155.000000, 8199.500000, 8190.500000
2437, 117960632.000000, 2183.625000, 8159.500000, 8202.000000, 8191.500000
2438, 117960792.000000, 2105.625000, 8162.500000, 8197.000000, 8186.500000
2439, 117960952.000000, 2025.000000, 8160.000000, 8198.500000, 8188.500000
2440, 117961112.000000, 1946.750000, 8159.000000, 8202.000000, 8196.500000
2441, 117961272.000000, 1873.625000, 8174.500000, 8219.000000, 8222.500000
2442, 117961432.000000, 1795.625000, 8182.500000, 8204.500000, 8204.000000
2443, 117961592.000000, 1704.875000, 8184.000000, 8195.500000, 8189.500000
2444, 117961752.000000, 1608.625000, 8169.500000, 8184.500000, 8169.500000
2445, 117961912.000000, 1547.125000, 8161.500000, 8186.000000, 8171.000000
2446, 117962072.000000, 1557.625000, 8166.000000, 8185.000000, 8174.000000
2447, 117962232.000000, 1649.750000, 8166.000000, 8185.500000, 8174.500000
2448, 117962392.000000, 1831.625000, 8173.000000, 8243.500000, 8242.000000
2449, 117962552.000000, 2073.875000, 8411.500000, 8085.000000, 8158.500000
2450, 117962712.000000, 2352.000000, 8096.500000, 8085.000000, 8071.500000
2451, 117962872.000000, 2623.750000, 8120.000000, 8112.000000, 8090.500000
2452, 117963032.000000, 2855.625000, 8184.500000, 8195.500000, 8186.000000
2453, 117963192.000000, 3025.625000, 8195.000000, 8199.000000, 8188.500000
2454, 117963352.000000, 3118.500000, 8204.000000, 8201.000000, 8190.500000
2455, 117963512.000000, 3138.375000, 8211.500000, 8209.000000, 8208.000000
2456, 117963672.000000, 3084.375000, 8224.000000, 8206.500000, 8212.500000
2457, 117963832.000000, 2993.125000, 8243.000000, 8203.500000, 8215.500000
2458, 117963992.000000, 2874.875000, 8266.500000, 8205.500000, 8224.000000
2459, 117964152.000000, 2751.375000, 8283.500000, 8214.000000, 8241.000000
2460, 117964312.000000, 2639.375000, 8273.000000, 8229.000000, 8255.000000
2461, 117964472.000000, 2570.125000, 8215.500000, 8231.500000, 8244.000000
2462, 117964632.000000, 2511.375000, 8176.000000, 8210.500000, 8204.000000
2463, 117964792.000000, 2451.250000, 8163.000000, 8197.500000, 8182.500000
2464, 117964952.000000, 2382.125000, 8163.000000, 8196.500000, 8178.500000
2465, 117965112.000000, 2310.500000, 8162.500000, 8198.500000, 8184.000000
2466, 117965272.000000, 2225.125000, 8167.000000, 8197.500000, 8183.500000
2467, 117965432.000000, 2119.125000, 8167.500000, 8193.500000, 8178.500000
2468, 117965592.000000, 2027.125000, 8173.000000, 8192.000000, 8179.000000
2469, 117965752.000000, 1950.125000, 8172.500000, 8197.500000, 8188.000000
2470, 117965912.000000, 1892.375000, 8172.500000, 8199.000000, 8189.500000
2471, 117966072.000000, 1833.000000, 8175.000000, 8196.500000, 8187.500000
2472, 117966232.000000, 1745.625000, 8179.500000, 8198.500000, 8196.500000
2473, 117966392.000000, 1639.750000, 8176.500000, 8199.500000, 8200.000000
2474, 117966552.000000, 1550.750000, 8194.500000, 8200.000000, 8200.500000
2475, 117966712.000000, 1502.375000, 8186.500000, 8191.500000, 8183.500000
2476, 117966872.000000, 1524.250000, 8175.000000, 8189.000000, 8172.000000
2477, 117967032.000000, 1632.375000, 8174.500000, 8181.000000, 8163.500000
2478, 117967192.000000, 1811.750000, 8178.500000, 8179.000000, 8159.500000
2479, 117967352.000000, 2026.875000, 8178.500000, 8187.000000, 8171.500000
2480, 117967512.000000, 2242.500000, 8194.000000, 8258.500000, 8260.000000
2481, 117967672.000000, 2440.750000, 8434.500000, 8024.500000, 8115.000000
2482, 117967832.000000, 2602.250000, 8051.000000, 8068.000000, 8040.500000
2483, 117967992.000000, 2704.250000, 8148.500000, 8128.000000, 8117.000000
2484, 117968152.000000, 2730.000000, 8184.500000, 8188.000000, 8183.500000
2485, 117968312.000000, 2683.250000, 8201.500000, 8199.000000, 8193.000000
2486, 117968472.000000, 2599.500000, 8206.500000, 8202.500000, 8197.500000
2487, 117968632.000000, 2503.125000, 8220.500000, 8196.500000, 8195.500000
2488, 117968792.000000, 2390.750000, 8235.000000, 8196.500000, 8198.500000
2489, 117968952.000000, 2279.375000, 8259.500000, 8202.000000, 8209.000000
2490, 117969112.000000, 2180.875000, 8281.000000, 8210.000000, 8228.500000
2491, 117969272.000000, 2098.875000, 8289.000000, 8214.500000, 8238.500000
2492, 117969432.000000, 2026.875000, 8262.000000, 8226.500000, 8243.000000
2493, 117969592.000000, 1960.250000, 8207.000000, 8228.000000, 8227.000000
2494, 117969752.000000, 1894.875000, 8181.000000, 8210.500000, 8201.500000
2495, 117969912.000000, 1824.625000, 8167.000000, 8198.500000, 8185.500000
2496, 117970072.000000, 1753.500000, 8159.000000, 8194.000000, 8179.000000
2497, 117970232.000000, 1683.375000, 8166.500000, 8185.000000, 8170.500000
2498, 117970392.000000, 1617.625000, 8165.000000, 8182.500000, 8164.000000
2499, 117970552.000000, 1558.750000, 8165.500000, 8181.000000, 8167.500000
2500, 117970712.000000, 1509.500000, 8171.000000, 8193.000000, 8178.500000
2501, 117970872.000000, 1455.875000, 8174.500000, 8190.000000, 8173.500000
2502, 117971032.000000, 1401.875000, 8178.500000, 8186.000000, 8167.500000
2503, 117971192.000000, 1359.750000, 8179.500000, 8181.000000, 8165.000000
2504, 117971352.000000, 1332.250000, 8177.500000, 8187.000000, 8165.000000
2505, 117971512.000000, 1298.000000, 8191.000000, 8203.500000, 8198.500000
2506, 117971672.000000, 1257.125000, 8193.500000, 8197.500000, 8190.500000
2507, 117971832.000000, 1254.000000, 8191.000000, 8184.000000, 8176.500000
2508, 117971992.000000, 1320.125000, 8164.000000, 8168.000000, 8146.500000
2509, 117972152.000000, 1450.625000, 8171.500000, 8165.500000, 8148.000000
2510, 117972312.000000, 1623.125000, 8171.000000, 8169.500000, 8151.500000
2511, 117972472.000000, 1811.625000, 8172.000000, 8168.500000, 8150.500000
2512, 117972632.000000, 1986.750000, 8163.000000, 8191.500000, 8173.500000
2513, 117972792.000000, 2139.875000, 8299.000000, 8169.000000, 8202.500000
2514, 117972952.000000, 2265.375000, 8205.500000, 8071.500000, 8091.500000
2515, 117973112.000000, 2345.000000, 8068.500000, 8060.500000, 8023.500000
2516, 117973272.000000, 2364.750000, 8170.500000, 8165.000000, 8152.000000
2517, 117973432.000000, 2331.375000, 8185.500000, 8183.000000, 8166.000000
2518, 117973592.000000, 2273.250000, 8205.000000, 8182.000000, 8170.000000
2519, 117973752.000000, 2206.375000, 8211.000000, 8181.500000, 8171.500000
2520, 117973912.000000, 2130.625000, 8225.500000, 8189.000000, 8185.500000
2521, 117974072.000000, 2049.000000, 8247.000000, 8187.500000, 8190.000000
2522, 117974232.000000, 1978.250000, 8269.000000, 8185.000000, 8192.500000
2523, 117974392.000000, 1918.750000, 8278.000000, 8194.000000, 8208.000000
2524, 117974552.000000, 1869.625000, 8274.500000, 8211.500000, 8224.500000
2525, 117974712.000000, 1830.875000, 8227.000000, 8228.500000, 8235.500000
2526, 117974872.000000, 1796.125000, 8178.500000, 8221.000000, 8213.000000
2527, 117975032.000000, 1759.000000, 8166.000000, 8203.500000, 8181.500000
2528, 117975192.000000, 1713.250000, 8158.000000, 8191.500000, 8169.000000
2529, 117975352.000000, 1670.125000, 8160.000000, 8193.500000, 8170.500000
2530, 117975512.000000, 1624.500000, 8169.000000, 8204.500000, 8183.500000
2531, 117975672.000000, 1568.000000, 8181.500000, 8201.500000, 8185.000000
2532, 117975832.000000, 1507.625000, 8181.500000, 8187.000000, 8172.500000
2533, 117975992.000000, 1440.500000, 8177.000000, 8186.500000, 8173.500000
2534, 117976152.000000, 1358.500000, 8171.000000, 8188.500000, 8179.000000
2535, 117976312.000000, 1266.625000, 8171.500000, 8191.500000, 8186.500000
2536, 117976472.000000, 1174.625000, 8173.500000, 8185.500000, 8179.500000
2537, 117976632.000000, 1090.250000, 8179.500000, 8183.500000, 8174.500000
2538, 117976792.000000, 1012.125000, 8185.500000, 8197.500000, 8200.000000
2539, 117976952.000000, 947.875000, 8198.000000, 8197.500000, 8201.500000
2540, 117977112.000000, 916.250000, 8194.000000, 8195.500000, 8196.000000
2541, 117977272.000000, 930.500000, 8174.500000, 8181.000000, 8170.500000
2542, 117977432.000000, 992.125000, 8168.500000, 8179.000000, 8163.000000
2543, 117977592.000000, 1091.500000, 8179.000000, 8184.000000, 8169.500000
2544, 117977752.000000, 1210.750000, 8182.500000, 8179.500000, 8168.500000
2545, 117977912.000000, 1337.625000, 8197.500000, 8227.000000, 8227.000000
2546, 117978072.000000, 1461.000000, 8355.000000, 8149.000000, 8198.500000
2547, 117978232.000000, 1570.000000, 8165.000000, 8115.500000, 8129.500000
2548, 117978392.000000, 1657.125000, 8099.000000, 8078.500000, 8057.000000
2549, 117978552.000000, 1713.500000, 8185.000000, 8179.500000, 8183.500000
2550, 117978712.000000, 1747.750000, 8197.000000, 8197.000000, 8201.000000
2551, 117978872.000000, 1769.125000, 8205.000000, 8200.500000, 8205.500000
2552, 117979032.000000, 1773.750000, 8214.500000, 8200.500000, 8208.500000
2553, 117979192.000000, 1776.000000, 8231.000000, 8197.000000, 8208.000000
2554, 117979352.000000, 1776.750000, 8240.500000, 8200.500000, 8222.000000
2555, 117979512.000000, 1783.625000, 8260.000000, 8206.000000, 8235.000000
2556, 117979672.000000, 1786.625000, 8272.500000, 8209.000000, 8240.500000
2557, 117979832.000000, 1777.625000, 8272.000000, 8221.000000, 8251.500000
2558, 117979992.000000, 1757.500000, 8232.000000, 8231.500000, 8254.000000
2559, 117980152.000000, 1724.750000, 8192.500000, 8226.000000, 8240.000000
2560, 117980312.000000, 1686.750000, 8169.000000, 8214.500000, 8222.000000
2561, 117980472.000000, 1650.750000, 8162.500000, 8200.500000, 8205.500000
2562, 117980632.000000, 1616.750000, 8167.000000, 8203.500000, 8208.500000
2563, 117980792.000000, 1580.875000, 8170.500000, 8198.500000, 8206.000000
2564, 117980952.000000, 1542.000000, 8180.000000, 8205.000000, 8211.000000
2565, 117981112.000000, 1507.375000, 8188.500000, 8207.500000, 8217.000000
2566, 117981272.000000, 1488.750000, 8194.000000, 8199.500000, 8211.500000
2567, 117981432.000000, 1472.000000, 8192.500000, 8195.000000, 8203.500000
2568, 117981592.000000, 1445.500000, 8190.000000, 8194.500000, 8202.500000
2569, 117981752.000000, 1411.875000, 8193.500000, 8197.500000, 8210.500000
2570, 117981912.000000, 1373.750000, 8196.500000, 8199.000000, 8211.000000
2571, 117982072.000000, 1339.625000, 8188.000000, 8194.000000, 8198.500000
2572, 117982232.000000, 1326.375000, 8185.000000, 8191.500000, 8193.500000
2573, 117982392.000000, 1380.000000, 8185.500000, 8193.000000, 8201.500000
2574, 117982552.000000, 1527.875000, 8198.000000, 8205.500000, 8220.500000
2575, 117982712.000000, 1738.750000, 8212.000000, 8200.500000, 8215.500000
2576, 117982872.000000, 1972.125000, 8204.500000, 8183.000000, 8185.500000
2577, 117983032.000000, 2183.250000, 8192.500000, 8170.500000, 8164.000000
2578, 117983192.000000, 2342.875000, 8187.500000, 8170.000000, 8163.500000
2579, 117983352.000000, 2445.000000, 8192.500000, 8176.500000, 8177.500000
2580, 117983512.000000, 2489.875000, 8185.000000, 8177.000000, 8177.500000
2581, 117983672.000000, 2484.000000, 8195.000000, 8236.500000, 8247.500000
2582, 117983832.000000, 2430.000000, 8488.500000, 8047.000000, 8163.500000
2583, 117983992.000000, 2338.125000, 8091.500000, 8099.000000, 8096.000000
2584, 117984152.000000, 2222.375000, 8157.500000, 8120.500000, 8120.500000
2585, 117984312.000000, 2109.500000, 8196.500000, 8181.500000, 8185.500000
2586, 117984472.000000, 2023.625000, 8206.500000, 8187.500000, 8191.000000
2587, 117984632.000000, 1976.750000, 8214.500000, 8185.000000, 8191.000000
2588, 117984792.000000, 1962.000000, 8237.000000, 8190.500000, 8202.500000
2589, 117984952.000000, 1970.250000, 8249.000000, 8190.500000, 8206.500000
2590, 117985112.000000, 1982.125000, 8271.000000, 8194.000000, 8217.500000
2591, 117985272.000000, 1978.750000, 8288.500000, 8190.000000, 8222.000000
2592, 117985432.000000, 1934.250000, 8297.500000, 8195.000000, 8231.500000
2593, 117985592.000000, 1857.125000, 8285.000000, 8207.000000, 8244.000000
2594, 117985752.000000, 1788.375000, 8244.500000, 8216.000000, 8243.000000
2595, 117985912.000000, 1733.625000, 8203.500000, 8203.500000, 8212.000000
2596, 117986072.000000, 1675.875000, 8187.500000, 8191.500000, 8190.500000
2597, 117986232.000000, 1602.875000, 8191.000000, 8185.000000, 8177.500000
2598, 117986392.000000, 1528.125000, 8191.500000, 8185.000000, 8183.000000
2599, 117986552.000000, 1454.750000, 8196.500000, 8192.000000, 8185.500000
2600, 117986712.000000, 1383.875000, 8200.000000, 8189.500000, 8194.000000
2601, 117986872.000000, 1324.625000, 8199.000000, 8185.500000, 8185.500000
2602, 117987032.000000, 1277.875000, 8199.000000, 8177.500000, 8181.000000
2603, 117987192.000000, 1226.625000, 8194.500000, 8176.500000, 8183.000000
2604, 117987352.000000, 1176.500000, 8186.500000, 8178.000000, 8182.500000
2605, 117987512.000000, 1125.500000, 8190.000000, 8181.000000, 8180.000000
2606, 117987672.000000, 1072.500000, 8195.500000, 8179.000000, 8175.500000
2607, 117987832.000000, 1036.125000, 8199.000000, 8173.000000, 8169.000000
2608, 117987992.000000, 1076.875000, 8196.000000, 8174.500000, 8174.000000
2609, 117988152.000000, 1226.125000, 8206.000000, 8197.500000, 8205.000000
2610, 117988312.000000, 1468.125000, 8212.000000, 8197.500000, 8205.000000
2611, 117988472.000000, 1743.125000, 8209.500000, 8185.500000, 8188.500000
2612, 117988632.000000, 2001.500000, 8191.500000, 8171.500000, 8160.500000
2613, 117988792.000000, 2209.500000, 8184.000000, 8171.500000, 8161.500000
2614, 117988952.000000, 2338.375000, 8184.500000, 8172.000000, 8164.500000
2615, 117989112.000000, 2387.125000, 8184.500000, 8171.500000, 8164.000000
2616, 117989272.000000, 2357.000000, 8184.500000, 8186.000000, 8177.000000
2617, 117989432.000000, 2272.250000, 8289.500000, 8199.000000, 8228.000000
2618, 117989592.000000, 2148.750000, 8377.500000, 8061.500000, 8139.000000
2619, 117989752.000000, 2010.875000, 8089.000000, 8078.500000, 8055.500000
2620, 117989912.000000, 1884.500000, 8183.500000, 8166.000000, 8161.000000
2621, 117990072.000000, 1782.750000, 8203.000000, 8185.000000, 8181.500000
2622, 117990232.000000, 1704.625000, 8210.000000, 8188.000000, 8182.500000
2623, 117990392.000000, 1655.125000, 8213.500000, 8190.500000, 8190.000000
2624, 117990552.000000, 1632.125000, 8231.000000, 8197.000000, 8204.000000
2625, 117990712.000000, 1628.000000, 8250.500000, 8193.500000, 8208.500000
2626, 117990872.000000, 1626.625000, 8271.500000, 8187.000000, 8210.000000
2627, 117991032.000000, 1619.500000, 8298.000000, 8189.500000, 8224.000000
2628, 117991192.000000, 1596.500000, 8302.500000, 8202.000000, 8237.500000
2629, 117991352.000000, 1561.875000, 8265.500000, 8222.000000, 8247.000000
2630, 117991512.000000, 1514.500000, 8202.000000, 8210.000000, 8220.000000
2631, 117991672.000000, 1463.625000, 8170.000000, 8200.500000, 8197.000000
2632, 117991832.000000, 1404.875000, 8164.500000, 8190.500000, 8180.500000
2633, 117991992.000000, 1329.000000, 8162.000000, 8191.500000, 8183.000000
2634, 117992152.000000, 1253.125000, 8168.500000, 8196.500000, 8189.000000
2635, 117992312.000000, 1186.125000, 8165.000000, 8194.000000, 8188.000000
2636, 117992472.000000, 1137.000000, 8173.500000, 8192.500000, 8185.500000
2637, 117992632.000000, 1101.625000, 8179.500000, 8190.500000, 8184.500000
2638, 117992792.000000, 1066.750000, 8179.000000, 8195.500000, 8196.000000
2639, 117992952.000000, 1033.500000, 8179.500000, 8200.500000, 8197.500000
2640, 117993112.000000, 1010.375000, 8176.500000, 8201.000000, 8196.000000
2641, 117993272.000000, 995.625000, 8183.000000, 8200.000000, 8193.500000
2642, 117993432.000000, 987.250000, 8184.000000, 8200.500000, 8190.500000
2643, 117993592.000000, 998.625000, 8184.000000, 8199.000000, 8191.000000
2644, 117993752.000000, 1081.500000, 8188.000000, 8203.500000, 8200.500000
2645, 117993912.000000, 1280.250000, 8195.500000, 8215.500000, 8222.000000
2646, 117994072.000000, 1585.375000, 8204.000000, 8206.000000, 8214.000000
2647, 117994232.000000, 1938.125000, 8206.500000, 8199.500000, 8202.000000
2648, 117994392.000000, 2279.000000, 8190.000000, 8192.500000, 8184.500000
2649, 117994552.000000, 2563.375000, 8188.500000, 8195.000000, 8185.000000
2650, 117994712.000000, 2755.375000, 8186.000000, 8193.500000, 8185.000000
2651, 117994872.000000, 2855.625000, 8187.500000, 8189.000000, 8178.500000
2652, 117995032.000000, 2876.250000, 8189.000000, 8203.500000, 8201.000000
2653, 117995192.000000, 2822.750000, 8300.500000, 8214.500000, 8252.000000
2654, 117995352.000000, 2712.500000, 8392.500000, 8087.000000, 8170.500000
2655, 117995512.000000, 2581.500000, 8091.000000, 8101.000000, 8075.000000
2656, 117995672.000000, 2453.625000, 8186.000000, 8180.500000, 8178.000000
2657, 117995832.000000, 2342.125000, 8207.000000, 8204.000000, 8199.500000
2658, 117995992.000000, 2262.250000, 8210.000000, 8206.500000, 8207.500000
2659, 117996152.000000, 2204.500000, 8218.500000, 8209.000000, 8216.000000
2660, 117996312.000000, 2163.625000, 8228.500000, 8207.500000, 8217.000000
2661, 117996472.000000, 2123.000000, 8249.000000, 8204.500000, 8224.500000
2662, 117996632.000000, 2079.625000, 8279.000000, 8204.500000, 8232.500000
2663, 117996792.000000, 2039.875000, 8305.000000, 8210.500000, 8252.000000
2664, 117996952.000000, 2004.750000, 8314.500000, 8219.500000, 8260.500000
2665, 117997112.000000, 1965.125000, 8276.000000, 8229.000000, 8260.000000
2666, 117997272.000000, 1913.375000, 8210.000000, 8225.500000, 8234.500000
2667, 117997432.000000, 1854.000000, 8177.000000, 8218.000000, 8209.500000
2668, 117997592.000000, 1790.875000, 8158.500000, 8211.500000, 8199.500000
2669, 117997752.000000, 1722.375000, 8159.000000, 8205.000000, 8196.500000
2670, 117997912.000000, 1655.875000, 8157.500000, 8204.000000, 8195.500000
2671, 117998072.000000, 1590.250000, 8169.000000, 8203.500000, 8194.500000
2672, 117998232.000000, 1529.375000, 8168.500000, 8205.500000, 8195.500000
2673, 117998392.000000, 1477.375000, 8175.000000, 8209.500000, 8202.500000
2674, 117998552.000000, 1436.625000, 8170.000000, 8207.500000, 8204.500000
2675, 117998712.000000, 1393.125000, 8178.000000, 8205.000000, 8201.000000
2676, 117998872.000000, 1350.500000, 8179.500000, 8192.500000, 8192.500000
2677, 117999032.000000, 1297.000000, 8182.500000, 8197.000000, 8195.000000
2678, 117999192.000000, 1234.750000, 8183.500000, 8198.000000, 8197.500000
2679, 117999352.000000, 1204.250000, 8193.500000, 8198.500000, 8201.500000
2680, 117999512.000000, 1276.875000, 8179.000000, 8201.000000, 8198.000000
2681, 117999672.000000, 1465.250000, 8184.000000, 8204.500000, 8211.500000
2682, 117999832.000000, 1753.000000, 8193.500000, 8196.000000, 8205.000000
2683, 117999992.000000, 2081.375000, 8178.500000, 8189.000000, 8189.000000
2684, 118000152.000000, 2402.250000, 8166.000000, 8186.000000, 8175.000000
2685, 118000312.000000, 2670.750000, 8173.500000, 8180.500000, 8172.500000
2686, 118000472.000000, 2847.375000, 8172.500000, 8174.500000, 8167.000000
2687, 118000632.000000, 2926.875000, 8174.500000, 8178.500000, 8176.000000
2688, 118000792.000000, 2899.875000, 8160.500000, 8241.500000, 8241.500000
2689, 118000952.000000, 2805.875000, 8521.500000, 8064.500000, 8189.000000
2690, 118001112.000000, 2666.500000, 8113.000000, 8129.500000, 8123.000000
2691, 118001272.000000, 2509.125000, 8116.000000, 8125.500000, 8110.000000
2692, 118001432.000000, 2346.375000, 8185.000000, 8188.000000, 8179.000000
2693, 118001592.000000, 2201.750000, 8193.000000, 8195.000000, 8191.000000
2694, 118001752.000000, 2096.625000, 8207.000000, 8199.000000, 8201.000000
2695, 118001912.000000, 2022.375000, 8220.000000, 8198.500000, 8199.500000
2696, 118002072.000000, 1955.125000, 8241.500000, 8190.500000, 8194.500000
2697, 118002232.000000, 1873.500000, 8264.500000, 8190.000000, 8205.500000
2698, 118002392.000000, 1770.500000, 8286.500000, 8190.000000, 8220.000000
2699, 118002552.000000, 1655.875000, 8299.000000, 8192.000000, 8232.500000
2700, 118002712.000000, 1544.125000, 8294.000000, 8201.000000, 8239.000000
2701, 118002872.000000, 1432.625000, 8227.500000, 8208.500000, 8225.000000
2702, 118003032.000000, 1310.875000, 8179.500000, 8208.500000, 8202.500000
2703, 118003192.000000, 1184.375000, 8156.500000, 8205.500000, 8187.000000
2704, 118003352.000000, 1058.375000, 8144.500000, 8198.500000, 8175.000000
2705, 118003512.000000, 943.750000, 8158.000000, 8194.500000, 8171.500000
2706, 118003672.000000, 824.625000, 8160.000000, 8188.500000, 8166.500000
2707, 118003832.000000, 697.500000, 8160.500000, 8196.000000, 8175.500000
2708, 118003992.000000, 562.750000, 8160.000000, 8193.500000, 8178.500000
2709, 118004152.000000, 433.250000, 8158.000000, 8193.000000, 8179.500000
2710, 118004312.000000, 314.875000, 8161.000000, 8190.500000, 8180.000000
2711, 118004472.000000, 214.625000, 8158.500000, 8187.000000, 8174.000000
2712, 118004632.000000, 133.875000, 8154.000000, 8181.000000, 8173.000000
2713, 118004792.000000, 75.625000, 8161.500000, 8185.000000, 8179.000000
2714, 118004952.000000, 42.125000, 8161.000000, 8188.000000, 8177.000000
2715, 118005112.000000, 63.500000, 8166.000000, 8193.000000, 8184.000000
2716, 118005272.000000, 188.375000, 8169.500000, 8196.000000, 8193.500000
2717, 118005432.000000, 436.000000, 8188.000000, 8194.500000, 8199.000000
2718, 118005592.000000, 761.375000, 8173.500000, 8185.500000, 8183.500000
2719, 118005752.000000, 1100.375000, 8159.000000, 8185.000000, 8173.000000
2720, 118005912.000000, 1395.000000, 8166.500000, 8178.500000, 8168.500000
2721, 118006072.000000, 1619.250000, 8171.000000, 8175.000000, 8159.500000
2722, 118006232.000000, 1768.500000, 8166.500000, 8178.000000, 8172.000000
2723, 118006392.000000, 1845.250000, 8161.500000, 8243.500000, 8242.500000
2724, 118006552.000000, 1864.375000, 8562.500000, 8039.000000, 8178.000000
2725, 118006712.000000, 1826.625000, 8088.000000, 8125.500000, 8116.500000
2726, 118006872.000000, 1752.625000, 8114.500000, 8132.000000, 8121.500000
2727, 118007032.000000, 1675.500000, 8164.000000, 8187.500000, 8178.000000
2728, 118007192.000000, 1616.625000, 8182.000000, 8197.000000, 8193.000000
2729, 118007352.000000, 1584.250000, 8193.000000, 8201.500000, 8201.500000
2730, 118007512.000000, 1570.250000, 8203.000000, 8193.000000, 8195.500000
2731, 118007672.000000, 1573.375000, 8223.500000, 8193.000000, 8208.000000
2732, 118007832.000000, 1590.750000, 8253.000000, 8194.500000, 8217.000000
2733, 118007992.000000, 1616.750000, 8280.000000, 8193.500000, 8230.000000
2734, 118008152.000000, 1629.375000, 8303.500000, 8195.500000, 8239.000000
2735, 118008312.000000, 1624.500000, 8286.000000, 8202.000000, 8241.500000
2736, 118008472.000000, 1608.375000, 8225.000000, 8212.500000, 8225.500000
2737, 118008632.000000, 1582.625000, 8165.000000, 8212.000000, 8206.500000
2738, 118008792.000000, 1540.125000, 8140.000000, 8204.000000, 8186.500000
2739, 118008952.000000, 1483.000000, 8144.000000, 8195.500000, 8176.000000
2740, 118009112.000000, 1421.250000, 8143.500000, 8191.500000, 8173.500000
2741, 118009272.000000, 1361.750000, 8146.500000, 8189.500000, 8172.500000
2742, 118009432.000000, 1318.750000, 8142.500000, 8191.000000, 8174.500000
2743, 118009592.000000, 1289.375000, 8149.000000, 8199.000000, 8186.000000
2744, 118009752.000000, 1253.000000, 8147.500000, 8199.500000, 8191.000000
2745, 118009912.000000, 1211.125000, 8150.500000, 8191.000000, 8181.500000
2746, 118010072.000000, 1174.875000, 8152.000000, 8185.500000, 8174.500000
2747, 118010232.000000, 1151.000000, 8159.000000, 8188.000000, 8181.500000
2748, 118010392.000000, 1137.125000, 8159.000000, 8189.500000, 8182.500000
2749, 118010552.000000, 1128.125000, 8164.500000, 8188.000000, 8177.000000
2750, 118010712.000000, 1160.125000, 8167.000000, 8195.000000, 8199.500000
2751, 118010872.000000, 1266.875000, 8177.500000, 8194.000000, 8199.000000
2752, 118011032.000000, 1481.375000, 8181.500000, 8191.000000, 8194.000000
2753, 118011192.000000, 1775.250000, 8163.500000, 8189.500000, 8176.000000
2754, 118011352.000000, 2091.375000, 8162.000000, 8183.500000, 8167.500000
2755, 118011512.000000, 2372.875000, 8152.500000, 8177.000000, 8158.000000
2756, 118011672.000000, 2585.125000, 8156.000000, 8177.500000, 8160.500000
2757, 118011832.000000, 2724.125000, 8154.000000, 8187.500000, 8178.500000
2758, 118011992.000000, 2791.125000, 8240.500000, 8212.500000, 8232.500000
2759, 118012152.000000, 2793.000000, 8446.000000, 8053.000000, 8166.500000
2760, 118012312.000000, 2731.625000, 8048.500000, 8093.000000, 8058.500000
2761, 118012472.000000, 2632.625000, 8143.000000, 8160.000000, 8150.500000
2762, 118012632.000000, 2516.375000, 8169.000000, 8195.500000, 8183.500000
2763, 118012792.000000, 2410.875000, 8172.500000, 8198.000000, 8190.500000
2764, 118012952.000000, 2331.750000, 8183.500000, 8199.000000, 8195.000000
2765, 118013112.000000, 2291.500000, 8198.000000, 8196.500000, 8200.500000
2766, 118013272.000000, 2279.625000, 8219.000000, 8194.500000, 8205.500000
2767, 118013432.000000, 2285.375000, 8250.500000, 8198.500000, 8222.500000
2768, 118013592.000000, 2305.375000, 8284.000000, 8205.500000, 8238.000000
2769, 118013752.000000, 2320.750000, 8281.000000, 8201.000000, 8238.500000
2770, 118013912.000000, 2303.375000, 8248.500000, 8214.500000, 8234.000000
2771, 118014072.000000, 2253.000000, 8188.000000, 8219.500000, 8221.000000
2772, 118014232.000000, 2193.625000, 8147.000000, 8210.000000, 8191.500000
2773, 118014392.000000, 2129.125000, 8135.000000, 8204.500000, 8181.500000
2774, 118014552.000000, 2061.125000, 8135.500000, 8202.500000, 8175.000000
2775, 118014712.000000, 1993.250000, 8134.000000, 8193.500000, 8169.500000
2776, 118014872.000000, 1939.500000, 8137.500000, 8190.500000, 8172.500000
2777, 118015032.000000, 1889.500000, 8148.500000, 8196.500000, 8177.000000
2778, 118015192.000000, 1840.125000, 8145.000000, 8203.000000, 8186.000000
2779, 118015352.000000, 1791.375000, 8146.000000, 8198.000000, 8181.000000
2780, 118015512.000000, 1749.000000, 8147.500000, 8193.500000, 8179.000000
2781, 118015672.000000, 1706.250000, 8150.000000, 8195.000000, 8176.500000
2782, 118015832.000000, 1659.250000, 8156.000000, 8200.500000, 8184.000000
2783, 118015992.000000, 1618.875000, 8156.500000, 8208.000000, 8203.500000
2784, 118016152.000000, 1600.000000, 8162.000000, 8209.500000, 8205.000000
2785, 118016312.000000, 1633.625000, 8175.500000, 8201.500000, 8200.500000
2786, 118016472.000000, 1764.875000, 8157.500000, 8190.000000, 8177.500000
2787, 118016632.000000, 2010.875000, 8148.000000, 8188.500000, 8170.500000
2788, 118016792.000000, 2320.375000, 8155.000000, 8195.000000, 8180.000000
2789, 118016952.000000, 2637.625000, 8152.500000, 8189.000000, 8172.000000
2790, 118017112.000000, 2908.875000, 8158.000000, 8190.000000, 8177.500000
2791, 118017272.000000, 3112.250000, 8189.500000, 8243.000000, 8245.500000
2792, 118017432.000000, 3226.250000, 8510.000000, 8045.500000, 8163.500000
2793, 118017592.000000, 3265.500000, 8050.500000, 8106.500000, 8077.500000
2794, 118017752.000000, 3238.750000, 8122.500000, 8157.000000, 8142.000000
2795, 118017912.000000, 3161.625000, 8165.500000, 8200.000000, 8189.500000
2796, 118018072.000000, 3050.625000, 8178.000000, 8205.000000, 8192.000000
2797, 118018232.000000, 2928.000000, 8181.000000, 8207.000000, 8200.000000
2798, 118018392.000000, 2817.000000, 8193.000000, 8213.500000, 8210.500000
2799, 118018552.000000, 2727.125000, 8204.500000, 8210.500000, 8215.000000
2800, 118018712.000000, 2663.125000, 8231.500000, 8206.000000, 8220.500000
2801, 118018872.000000, 2618.875000, 8263.000000, 8207.500000, 8233.000000
2802, 118019032.000000, 2592.625000, 8270.000000, 8216.000000, 8247.000000
2803, 118019192.000000, 2573.750000, 8240.500000, 8231.500000, 8253.000000
2804, 118019352.000000, 2555.375000, 8179.000000, 8235.500000, 8233.000000
2805, 118019512.000000, 2539.750000, 8137.500000, 8219.500000, 8202.500000
2806, 118019672.000000, 2519.625000, 8128.500000, 8209.500000, 8186.500000
2807, 118019832.000000, 2492.500000, 8128.500000, 8206.500000, 8182.500000
2808, 118019992.000000, 2456.375000, 8129.000000, 8207.000000, 8186.500000
2809, 118020152.000000, 2417.000000, 8126.000000, 8202.500000, 8179.000000
2810, 118020312.000000, 2378.750000, 8126.500000, 8196.000000, 8177.500000
2811, 118020472.000000, 2347.500000, 8140.000000, 8197.500000, 8178.500000
2812, 118020632.000000, 2321.250000, 8156.500000, 8200.000000, 8188.000000
2813, 118020792.000000, 2302.750000, 8154.000000, 8203.500000, 8186.500000
2814, 118020952.000000, 2287.750000, 8153.000000, 8200.500000, 8189.500000
2815, 118021112.000000, 2266.375000, 8163.500000, 8206.000000, 8203.500000
2816, 118021272.000000, 2231.750000, 8171.000000, 8203.000000, 8197.000000
2817, 118021432.000000, 2196.625000, 8167.500000, 8194.500000, 8188.500000
2818, 118021592.000000, 2182.500000, 8151.000000, 8190.500000, 8169.500000
2819, 118021752.000000, 2225.500000, 8156.000000, 8185.000000, 8166.000000
2820, 118021912.000000, 2349.500000, 8154.000000, 8183.500000, 8161.500000
2821, 118022072.000000, 2548.000000, 8156.500000, 8183.500000, 8165.000000
2822, 118022232.000000, 2781.250000, 8143.500000, 8246.000000, 8239.000000
2823, 118022392.000000, 3009.875000, 8426.000000, 8097.000000, 8184.000000
2824, 118022552.000000, 3207.500000, 8088.000000, 8118.500000, 8110.500000
2825, 118022712.000000, 3347.375000, 8083.500000, 8098.500000, 8068.500000
2826, 118022872.000000, 3415.500000, 8159.000000, 8183.500000, 8171.000000
2827, 118023032.000000, 3410.500000, 8172.500000, 8197.000000, 8189.000000
2828, 118023192.000000, 3349.875000, 8181.000000, 8204.500000, 8196.500000
2829, 118023352.000000, 3254.125000, 8187.000000, 8198.500000, 8195.500000
2830, 118023512.000000, 3143.500000, 8204.500000, 8191.500000, 8192.500000
2831, 118023672.000000, 3039.000000, 8226.500000, 8196.000000, 8208.000000
2832, 118023832.000000, 2958.875000, 8258.500000, 8201.000000, 8226.500000
2833, 118023992.000000, 2907.875000, 8273.500000, 8212.000000, 8241.500000
2834, 118024152.000000, 2883.750000, 8260.000000, 8222.000000, 8245.000000
2835, 118024312.000000, 2873.375000, 8209.000000, 8232.000000, 8241.000000
2836, 118024472.000000, 2863.750000, 8157.500000, 8220.500000, 8211.000000
2837, 118024632.000000, 2845.000000, 8140.000000, 8214.500000, 8199.000000
2838, 118024792.000000, 2811.250000, 8137.000000, 8207.000000, 8187.000000
2839, 118024952.000000, 2758.000000, 8139.000000, 8201.500000, 8182.500000
2840, 118025112.000000, 2691.125000, 8143.500000, 8194.500000, 8178.500000
2841, 118025272.000000, 2618.625000, 8145.500000, 8196.500000, 8181.000000
2842, 118025432.000000, 2541.625000, 8154.500000, 8203.000000, 8193.500000
2843, 118025592.000000, 2457.375000, 8160.500000, 8203.000000, 8198.500000
2844, 118025752.000000, 2368.875000, 8157.000000, 8197.500000, 8189.500000
2845, 118025912.000000, 2282.375000, 8163.500000, 8202.000000, 8201.000000
2846, 118026072.000000, 2197.625000, 8170.000000, 8211.500000, 8212.000000
2847, 118026232.000000, 2117.875000, 8178.000000, 8204.000000, 8206.000000
2848, 118026392.000000, 2040.000000, 8164.000000, 8193.000000, 8187.500000
2849, 118026552.000000, 1966.250000, 8152.000000, 8183.500000, 8166.000000
2850, 118026712.000000, 1925.500000, 8156.000000, 8181.000000, 8162.000000
2851, 118026872.000000, 1949.500000, 8161.000000, 8182.500000, 8170.000000
2852, 118027032.000000, 2047.250000, 8162.500000, 8193.000000, 8181.500000
2853, 118027192.000000, 2204.250000, 8194.000000, 8256.000000, 8267.000000
2854, 118027352.000000, 2398.375000, 8439.500000, 8047.500000, 8142.500000
2855, 118027512.000000, 2599.250000, 8053.500000, 8088.500000, 8059.500000
2856, 118027672.000000, 2759.250000, 8137.500000, 8149.000000, 8139.000000
2857, 118027832.000000, 2864.000000, 8181.500000, 8205.000000, 8196.000000
2858, 118027992.000000, 2912.750000, 8181.000000, 8205.500000, 8197.500000
2859, 118028152.000000, 2913.875000, 8190.500000, 8203.500000, 8198.000000
2860, 118028312.000000, 2865.750000, 8205.500000, 8201.000000, 8198.500000
2861, 118028472.000000, 2776.000000, 8221.000000, 8203.500000, 8210.000000
2862, 118028632.000000, 2666.875000, 8248.500000, 8205.000000, 8226.000000
2863, 118028792.000000, 2561.125000, 8276.500000, 8210.500000, 8246.000000
2864, 118028952.000000, 2470.375000, 8281.500000, 8218.000000, 8253.500000
2865, 118029112.000000, 2403.000000, 8252.000000, 8229.000000, 8252.000000
2866, 118029272.000000, 2355.625000, 8192.500000, 8230.500000, 8234.500000
2867, 118029432.000000, 2315.875000, 8160.500000, 8221.000000, 8214.000000
2868, 118029592.000000, 2278.375000, 8146.000000, 8211.000000, 8199.000000
2869, 118029752.000000, 2246.500000, 8149.500000, 8198.000000, 8183.000000
2870, 118029912.000000, 2217.875000, 8150.000000, 8196.000000, 8183.500000
2871, 118030072.000000, 2187.750000, 8156.000000, 8197.500000, 8185.500000
2872, 118030232.000000, 2148.250000, 8158.500000, 8198.500000, 8190.500000
2873, 118030392.000000, 2102.250000, 8168.000000, 8203.000000, 8193.000000
2874, 118030552.000000, 2064.500000, 8167.500000, 8196.500000, 8189.500000
2875, 118030712.000000, 2037.250000, 8170.000000, 8193.500000, 8186.000000
2876, 118030872.000000, 2009.125000, 8176.500000, 8208.500000, 8218.000000
2877, 118031032.000000, 1977.625000, 8180.500000, 8209.000000, 8219.000000
2878, 118031192.000000, 1933.500000, 8190.500000, 8205.000000, 8212.000000
2879, 118031352.000000, 1878.875000, 8174.500000, 8184.000000, 8177.500000
2880, 118031512.000000, 1833.250000, 8166.500000, 8179.000000, 8165.500000
2881, 118031672.000000, 1834.625000, 8165.500000, 8182.000000, 8169.500000
2882, 118031832.000000, 1912.000000, 8169.000000, 8180.500000, 8173.500000
2883, 118031992.000000, 2065.125000, 8165.500000, 8194.000000, 8188.500000
2884, 118032152.000000, 2266.625000, 8263.500000, 8215.500000, 8244.000000
2885, 118032312.000000, 2488.875000, 8350.500000, 8037.500000, 8106.000000
2886, 118032472.000000, 2693.375000, 8079.000000, 8059.000000, 8030.000000
2887, 118032632.000000, 2854.875000, 8168.000000, 8174.000000, 8174.000000
2888, 118032792.000000, 2946.625000, 8187.000000, 8200.500000, 8194.500000
2889, 118032952.000000, 2974.875000, 8190.000000, 8202.000000, 8199.000000
2890, 118033112.000000, 2942.750000, 8208.500000, 8197.500000, 8198.500000
2891, 118033272.000000, 2874.000000, 8218.000000, 8201.500000, 8206.000000
2892, 118033432.000000, 2782.625000, 8238.000000, 8209.000000, 8224.500000
2893, 118033592.000000, 2674.625000, 8260.000000, 8205.500000, 8231.000000
2894, 118033752.000000, 2564.250000, 8281.500000, 8207.500000, 8237.500000
2895, 118033912.000000, 2471.125000, 8287.500000, 8211.500000, 8245.000000
2896, 118034072.000000, 2405.500000, 8245.000000, 8229.000000, 8252.000000
2897, 118034232.000000, 2362.875000, 8183.500000, 8227.000000, 8229.500000
2898, 118034392.000000, 2331.500000, 8151.500000, 8208.500000, 8198.000000
2899, 118034552.000000, 2296.000000, 8152.500000, 8195.000000, 8178.000000
2900, 118034712.000000, 2252.875000, 8157.500000, 8193.500000, 8175.500000
2901, 118034872.000000, 2210.000000, 8155.000000, 8195.500000, 8182.000000
2902, 118035032.000000, 2170.000000, 8163.000000, 8195.500000, 8185.500000
2903, 118035192.000000, 2129.125000, 8160.000000, 8198.000000, 8191.000000
2904, 118035352.000000, 2084.625000, 8166.000000, 8193.000000, 8188.000000
2905, 118035512.000000, 2043.875000, 8167.500000, 8195.500000, 8191.500000
2906, 118035672.000000, 2007.375000, 8178.500000, 8194.000000, 8195.000000
2907, 118035832.000000, 1967.000000, 8179.000000, 8198.000000, 8191.000000
2908, 118035992.000000, 1923.500000, 8182.500000, 8205.000000, 8209.500000
2909, 118036152.000000, 1871.625000, 8186.500000, 8204.000000, 8208.500000
2910, 118036312.000000, 1828.500000, 8198.000000, 8197.500000, 8200.500000
2911, 118036472.000000, 1814.875000, 8185.000000, 8187.000000, 8180.500000
2912, 118036632.000000, 1872.000000, 8180.500000, 8187.000000, 8178.000000
2913, 118036792.000000, 2011.375000, 8179.000000, 8181.500000, 8172.000000
2914, 118036952.000000, 2225.625000, 8184.000000, 8179.000000, 8168.000000
2915, 118037112.000000, 2469.750000, 8182.000000, 8183.500000, 8179.500000
2916, 118037272.000000, 2707.000000, 8219.000000, 8242.500000, 8260.500000
2917, 118037432.000000, 2906.000000, 8523.000000, 8022.000000, 8152.500000
2918, 118037592.000000, 3037.500000, 8080.000000, 8069.500000, 8052.000000
2919, 118037752.000000, 3101.000000, 8167.500000, 8156.000000, 8158.500000
2920, 118037912.000000, 3088.875000, 8196.500000, 8195.000000, 8189.500000
2921, 118038072.000000, 3010.250000, 8202.500000, 8207.500000, 8207.500000
2922, 118038232.000000, 2877.875000, 8216.000000, 8209.000000, 8217.000000
2923, 118038392.000000, 2732.250000, 8233.000000, 8206.000000, 8214.500000
2924, 118038552.000000, 2593.500000, 8247.500000, 8204.500000, 8223.500000
2925, 118038712.000000, 2470.875000, 8272.500000, 8204.000000, 8232.000000
2926, 118038872.000000, 2367.500000, 8298.000000, 8208.000000, 8248.500000
2927, 118039032.000000, 2285.750000, 8308.000000, 8218.000000, 8260.000000
2928, 118039192.000000, 2222.000000, 8278.000000, 8227.500000, 8257.500000
2929, 118039352.000000, 2168.375000, 8217.000000, 8226.000000, 8234.500000
2930, 118039512.000000, 2121.375000, 8177.500000, 8208.000000, 8198.500000
2931, 118039672.000000, 2083.875000, 8163.000000, 8206.500000, 8191.500000
2932, 118039832.000000, 2037.125000, 8163.500000, 8206.000000, 8191.500000
2933, 118039992.000000, 1985.500000, 8162.500000, 8199.500000, 8189.000000
2934, 118040152.000000, 1930.375000, 8166.000000, 8195.500000, 8188.500000
2935, 118040312.000000, 1872.875000, 8165.500000, 8196.500000, 8187.000000
2936, 118040472.000000, 1808.250000, 8176.000000, 8201.500000, 8201.000000
2937, 118040632.000000, 1745.000000, 8176.500000, 8203.000000, 8200.000000
2938, 118040792.000000, 1693.500000, 8178.000000, 8201.500000, 8195.500000
2939, 118040952.000000, 1644.500000, 8174.500000, 8194.000000, 8187.500000
2940, 118041112.000000, 1590.375000, 8187.500000, 8191.500000, 8186.000000
2941, 118041272.000000, 1533.750000, 8183.000000, 8192.000000, 8187.000000
2942, 118041432.000000, 1488.000000, 8186.500000, 8201.500000, 8202.000000
2943, 118041592.000000, 1467.125000, 8185.000000, 8203.500000, 8211.000000
2944, 118041752.000000, 1520.625000, 8200.000000, 8196.000000, 8204.000000
2945, 118041912.000000, 1664.875000, 8185.000000, 8182.500000, 8181.000000
2946, 118042072.000000, 1900.125000, 8172.500000, 8183.500000, 8178.000000
2947, 118042232.000000, 2177.875000, 8178.500000, 8187.000000, 8178.500000
2948, 118042392.000000, 2434.750000, 8180.500000, 8181.500000, 8175.000000
2949, 118042552.000000, 2629.375000, 8184.000000, 8184.500000, 8174.500000
2950, 118042712.000000, 2749.250000, 8170.500000, 8241.500000, 8238.500000
2951, 118042872.000000, 2797.750000, 8469.000000, 8092.000000, 8188.500000
2952, 118043032.000000, 2780.625000, 8136.500000, 8102.500000, 8101.500000
2953, 118043192.000000, 2714.125000, 8117.000000, 8121.000000, 8104.500000
2954, 118043352.000000, 2614.375000, 8189.000000, 8192.500000, 8184.000000
2955, 118043512.000000, 2489.500000, 8202.500000, 8198.500000, 8193.000000
2956, 118043672.000000, 2361.625000, 8204.000000, 8207.500000, 8205.000000
2957, 118043832.000000, 2252.000000, 8221.000000, 8215.000000, 8217.500000
2958, 118043992.000000, 2173.625000, 8232.000000, 8209.000000, 8217.000000
2959, 118044152.000000, 2119.250000, 8257.500000, 8206.500000, 8223.500000
2960, 118044312.000000, 2080.750000, 8288.500000, 8202.000000, 8237.500000
2961, 118044472.000000, 2048.500000, 8307.000000, 8211.500000, 8249.500000
2962, 118044632.000000, 2022.875000, 8300.000000, 8223.000000, 8259.000000
2963, 118044792.000000, 1990.750000, 8250.500000, 8234.500000, 8252.500000
2964, 118044952.000000, 1954.000000, 8192.500000, 8220.500000, 8215.500000
2965, 118045112.000000, 1918.625000, 8168.000000, 8210.000000, 8197.000000
2966, 118045272.000000, 1886.375000, 8159.500000, 8206.500000, 8192.500000
2967, 118045432.000000, 1849.000000, 8158.500000, 8208.000000, 8193.000000
2968, 118045592.000000, 1802.875000, 8159.000000, 8204.500000, 8190.000000
2969, 118045752.000000, 1760.000000, 8167.500000, 8201.000000, 8186.000000
2970, 118045912.000000, 1721.625000, 8173.500000, 8203.500000, 8192.500000
2971, 118046072.000000, 1670.000000, 8186.500000, 8209.000000, 8203.500000
2972, 118046232.000000, 1603.875000, 8187.500000, 8210.000000, 8200.500000
2973, 118046392.000000, 1544.625000, 8180.500000, 8202.000000, 8192.500000
2974, 118046552.000000, 1515.875000, 8178.000000, 8192.500000, 8184.500000
2975, 118046712.000000, 1509.500000, 8177.500000, 8191.000000, 8184.500000
2976, 118046872.000000, 1481.125000, 8172.500000, 8194.000000, 8185.500000
2977, 118047032.000000, 1454.375000, 8177.000000, 8196.500000, 8191.000000
2978, 118047192.000000, 1530.250000, 8179.000000, 8203.500000, 8203.500000
2979, 118047352.000000, 1791.500000, 8187.000000, 8202.500000, 8202.000000
2980, 118047512.000000, 2101.875000, 8197.000000, 8203.000000, 8203.000000
2981, 118047672.000000, 2419.125000, 8191.000000, 8197.500000, 8189.000000
2982, 118047832.000000, 2646.250000, 8181.500000, 8195.500000, 8179.000000
2983, 118047992.000000, 2752.000000, 8177.500000, 8191.000000, 8173.500000
2984, 118048152.000000, 2786.000000, 8179.500000, 8182.500000, 8165.500000
2985, 118048312.000000, 2753.875000, 8178.000000, 8188.500000, 8177.500000
2986, 118048472.000000, 2662.000000, 8203.000000, 8249.500000, 8261.500000
2987, 118048632.000000, 2530.000000, 8509.500000, 8046.000000, 8171.000000
2988, 118048792.000000, 2391.500000, 8073.000000, 8105.500000, 8086.500000
2989, 118048952.000000, 2269.750000, 8145.000000, 8151.500000, 8139.500000
2990, 118049112.000000, 2171.250000, 8186.000000, 8200.500000, 8190.500000
2991, 118049272.000000, 2097.125000, 8196.500000, 8209.500000, 8202.000000
2992, 118049432.000000, 2052.500000, 8199.500000, 8213.000000, 8207.500000
2993, 118049592.000000, 2029.875000, 8214.000000, 8208.500000, 8209.500000
2994, 118049752.000000, 2017.000000, 8225.500000, 8201.500000, 8209.000000
2995, 118049912.000000, 1994.250000, 8251.000000, 8202.000000, 8219.000000
2996, 118050072.000000, 1963.125000, 8283.000000, 8211.000000, 8239.500000
2997, 118050232.000000, 1931.625000, 8289.500000, 8213.500000, 8245.500000
2998, 118050392.000000, 1894.000000, 8259.500000, 8219.500000, 8241.500000
2999, 118050552.000000, 1855.875000, 8203.000000, 8227.500000, 8235.000000
3000, 118050712.000000, 1809.250000, 8158.000000, 8217.000000, 8209.500000
3001, 118050872.000000, 1763.375000, 8144.500000, 8206.000000, 8194.500000
3002, 118051032.000000, 1721.750000, 8141.000000, 8205.000000, 8188.500000
3003, 118051192.000000, 1686.750000, 8141.000000, 8202.500000, 8184.500000
3004, 118051352.000000, 1656.250000, 8144.500000, 8198.500000, 8179.000000
3005, 118051512.000000, 1635.875000, 8157.500000, 8205.500000, 8187.500000
3006, 118051672.000000, 1626.625000, 8158.000000, 8211.000000, 8195.500000
3007, 118051832.000000, 1625.875000, 8162.000000, 8206.000000, 8191.000000
3008, 118051992.000000, 1619.125000, 8155.500000, 8201.500000, 8185.500000
3009, 118052152.000000, 1594.750000, 8156.500000, 8198.500000, 8178.500000
3010, 118052312.000000, 1547.750000, 8159.000000, 8199.000000, 8184.000000
3011, 118052472.000000, 1497.250000, 8160.000000, 8198.500000, 8183.500000
3012, 118052632.000000, 1478.625000, 8162.500000, 8199.500000, 8184.000000
3013, 118052792.000000, 1529.125000, 8168.500000, 8202.500000, 8203.000000
3014, 118052952.000000, 1677.375000, 8171.500000, 8198.000000, 8194.500000
3015, 118053112.000000, 1903.750000, 8174.500000, 8196.000000, 8195.500000
3016, 118053272.000000, 2149.250000, 8158.000000, 8187.000000, 8170.000000
3017, 118053432.000000, 2367.750000, 8159.500000, 8187.000000, 8172.000000
3018, 118053592.000000, 2546.875000, 8166.000000, 8184.000000, 8166.000000
3019, 118053752.000000, 2667.250000, 8171.500000, 8185.000000, 8166.000000
3020, 118053912.000000, 2716.125000, 8170.000000, 8198.000000, 8183.500000
3021, 118054072.000000, 2700.625000, 8270.000000, 8222.000000, 8246.000000
3022, 118054232.000000, 2638.000000, 8337.000000, 8080.000000, 8140.500000
3023, 118054392.000000, 2547.000000, 8066.500000, 8079.500000, 8049.000000
3024, 118054552.000000, 2438.125000, 8168.500000, 8156.000000, 8147.500000
3025, 118054712.000000, 2325.500000, 8219.000000, 8187.500000, 8190.500000
3026, 118054872.000000, 2228.000000, 8267.500000, 8178.500000, 8197.500000
3027, 118055032.000000, 2161.750000, 8282.000000, 8172.000000, 8197.000000
3028, 118055192.000000, 2119.500000, 8286.500000, 8174.500000, 8202.500000
3029, 118055352.000000, 2093.250000, 8288.500000, 8171.500000, 8206.500000
3030, 118055512.000000, 2070.000000, 8308.000000, 8179.000000, 8220.500000
3031, 118055672.000000, 2051.875000, 8322.000000, 8193.500000, 8241.000000
3032, 118055832.000000, 2033.000000, 8321.000000, 8205.500000, 8252.500000
3033, 118055992.000000, 2016.625000, 8283.500000, 8218.000000, 8252.000000
3034, 118056152.000000, 1998.625000, 8224.000000, 8215.500000, 8226.500000
3035, 118056312.000000, 1969.750000, 8184.000000, 8210.500000, 8205.500000
3036, 118056472.000000, 1935.500000, 8169.000000, 8201.000000, 8195.000000
3037, 118056632.000000, 1915.625000, 8168.000000, 8204.000000, 8193.500000
3038, 118056792.000000, 1908.250000, 8164.000000, 8198.500000, 8186.500000
3039, 118056952.000000, 1900.625000, 8164.000000, 8193.500000, 8183.000000
3040, 118057112.000000, 1871.750000, 8163.500000, 8197.500000, 8190.000000
3041, 118057272.000000, 1832.125000, 8169.500000, 8205.000000, 8201.500000
3042, 118057432.000000, 1795.125000, 8173.500000, 8203.500000, 8198.500000
3043, 118057592.000000, 1765.375000, 8173.500000, 8197.000000, 8191.000000
3044, 118057752.000000, 1733.750000, 8173.500000, 8199.500000, 8191.500000
3045, 118057912.000000, 1689.625000, 8175.000000, 8197.500000, 8190.500000
3046, 118058072.000000, 1631.375000, 8174.000000, 8205.000000, 8206.000000
3047, 118058232.000000, 1590.250000, 8173.000000, 8211.000000, 8218.500000
3048, 118058392.000000, 1622.625000, 8182.500000, 8201.500000, 8205.000000
3049, 118058552.000000, 1741.375000, 8179.000000, 8190.500000, 8183.000000
3050, 118058712.000000, 1936.000000, 8166.000000, 8191.000000, 8179.000000
3051, 118058872.000000, 2159.750000, 8163.500000, 8189.500000, 8181.000000
3052, 118059032.000000, 2369.750000, 8171.000000, 8189.500000, 8180.000000
3053, 118059192.000000, 2539.125000, 8168.500000, 8183.000000, 8176.000000
3054, 118059352.000000, 2663.625000, 8169.000000, 8249.000000, 8253.500000
3055, 118059512.000000, 2740.125000, 8440.500000, 8086.000000, 8182.500000
3056, 118059672.000000, 2759.125000, 8092.500000, 8126.000000, 8124.000000
3057, 118059832.000000, 2717.250000, 8118.000000, 8115.500000, 8098.500000
3058, 118059992.000000, 2634.375000, 8181.000000, 8191.500000, 8188.500000
3059, 118060152.000000, 2528.500000, 8191.000000, 8201.000000, 8198.000000
3060, 118060312.000000, 2422.625000, 8200.500000, 8205.500000, 8207.000000
3061, 118060472.000000, 2328.375000, 8211.500000, 8208.000000, 8216.000000
3062, 118060632.000000, 2254.625000, 8222.500000, 8209.500000, 8220.000000
3063, 118060792.000000, 2201.375000, 8241.000000, 8201.500000, 8222.000000
3064, 118060952.000000, 2165.875000, 8263.000000, 8201.000000, 8227.500000
3065, 118061112.000000, 2144.875000, 8280.000000, 8213.000000, 8247.500000
3066, 118061272.000000, 2128.375000, 8266.500000, 8227.500000, 8263.000000
3067, 118061432.000000, 2106.250000, 8210.000000, 8234.000000, 8253.000000
3068, 118061592.000000, 2076.125000, 8166.500000, 8218.500000, 8215.000000
3069, 118061752.000000, 2039.875000, 8152.000000, 8205.500000, 8194.500000
3070, 118061912.000000, 1995.625000, 8153.500000, 8208.000000, 8196.500000
3071, 118062072.000000, 1955.000000, 8147.500000, 8207.500000, 8195.000000
3072, 118062232.000000, 1908.500000, 8149.500000, 8207.000000, 8193.000000
3073, 118062392.000000, 1859.375000, 8158.000000, 8200.500000, 8187.500000
3074, 118062552.000000, 1818.375000, 8158.500000, 8200.000000, 8192.000000
3075, 118062712.000000, 1780.875000, 8157.500000, 8199.500000, 8191.500000
3076, 118062872.000000, 1743.000000, 8160.000000, 8203.000000, 8194.000000
3077, 118063032.000000, 1700.250000, 8149.500000, 8200.000000, 8187.000000
3078, 118063192.000000, 1651.875000, 8151.000000, 8196.500000, 8182.500000
3079, 118063352.000000, 1601.625000, 8145.500000, 8191.500000, 8174.000000
3080, 118063512.000000, 1552.000000, 8154.000000, 8213.000000, 8209.000000
3081, 118063672.000000, 1538.375000, 8162.500000, 8212.500000, 8210.000000
3082, 118063832.000000, 1599.500000, 8167.000000, 8201.500000, 8196.000000
3083, 118063992.000000, 1744.500000, 8147.500000, 8187.000000, 8165.500000
3084, 118064152.000000, 1941.125000, 8145.000000, 8181.000000, 8162.000000
3085, 118064312.000000, 2150.625000, 8146.500000, 8185.000000, 8170.000000
3086, 118064472.000000, 2340.500000, 8144.500000, 8189.000000, 8173.500000
3087, 118064632.000000, 2491.250000, 8144.000000, 8208.000000, 8192.500000
3088, 118064792.000000, 2603.250000, 8278.000000, 8201.000000, 8230.000000
3089, 118064952.000000, 2673.625000, 8242.000000, 8075.000000, 8111.500000
3090, 118065112.000000, 2678.500000, 8066.000000, 8081.500000, 8047.000000
3091, 118065272.000000, 2620.875000, 8156.000000, 8180.500000, 8165.000000
3092, 118065432.000000, 2530.250000, 8172.000000, 8202.000000, 8190.000000
3093, 118065592.000000, 2424.250000, 8179.500000, 8200.000000, 8190.000000
3094, 118065752.000000, 2327.875000, 8191.500000, 8200.500000, 8195.500000
3095, 118065912.000000, 2249.500000, 8200.500000, 8205.000000, 8207.000000
3096, 118066072.000000, 2191.500000, 8216.000000, 8211.000000, 8218.000000
3097, 118066232.000000, 2143.375000, 8248.000000, 8212.000000, 8221.500000
3098, 118066392.000000, 2104.125000, 8272.500000, 8215.500000, 8227.500000
3099, 118066552.000000, 2078.875000, 8271.500000, 8223.500000, 8243.500000
3100, 118066712.000000, 2064.375000, 8228.500000, 8238.500000, 8254.000000
3101, 118066872.000000, 2037.625000, 8174.500000, 8235.000000, 8233.500000
3102, 118067032.000000, 1992.125000, 8146.000000, 8214.500000, 8204.000000
3103, 118067192.000000, 1938.750000, 8144.500000, 8203.500000, 8189.000000
3104, 118067352.000000, 1889.250000, 8145.000000, 8201.000000, 8189.000000
3105, 118067512.000000, 1847.000000, 8145.000000, 8204.000000, 8191.000000
3106, 118067672.000000, 1805.250000, 8155.500000, 8207.500000, 8193.500000
3107, 118067832.000000, 1760.250000, 8161.000000, 8207.500000, 8189.000000
3108, 118067992.000000, 1720.375000, 8172.000000, 8203.500000, 8191.500000
3109, 118068152.000000, 1682.875000, 8172.000000, 8196.500000, 8190.500000
3110, 118068312.000000, 1644.250000, 8164.000000, 8194.000000, 8191.500000
3111, 118068472.000000, 1592.000000, 8170.500000, 8196.000000, 8191.000000
3112, 118068632.000000, 1515.250000, 8170.000000, 8192.500000, 8183.500000
3113, 118068792.000000, 1431.875000, 8169.500000, 8188.500000, 8177.000000
3114, 118068952.000000, 1384.875000, 8173.500000, 8203.500000, 8203.500000
3115, 118069112.000000, 1427.875000, 8181.000000, 8205.500000, 8210.000000
3116, 118069272.000000, 1564.375000, 8186.000000, 8201.500000, 8201.500000
3117, 118069432.000000, 1767.125000, 8172.000000, 8187.000000, 8168.000000
3118, 118069592.000000, 1994.875000, 8167.000000, 8180.500000, 8161.500000
3119, 118069752.000000, 2223.750000, 8167.000000, 8178.500000, 8165.500000
3120, 118069912.000000, 2431.500000, 8169.000000, 8183.500000, 8173.500000
3121, 118070072.000000, 2594.000000, 8168.000000, 8195.500000, 8186.000000
3122, 118070232.000000, 2692.375000, 8257.500000, 8228.500000, 8251.000000
3123, 118070392.000000, 2719.875000, 8333.500000, 8047.000000, 8108.000000
3124, 118070552.000000, 2695.250000, 8070.500000, 8068.000000, 8033.500000
3125, 118070712.000000, 2638.250000, 8169.500000, 8168.500000, 8161.500000
3126, 118070872.000000, 2559.875000, 8189.000000, 8196.500000, 8187.000000
3127, 118071032.000000, 2465.000000, 8199.500000, 8196.500000, 8185.000000
3128, 118071192.000000, 2365.375000, 8205.000000, 8192.000000, 8184.000000
3129, 118071352.000000, 2278.875000, 8217.500000, 8195.500000, 8196.500000
3130, 118071512.000000, 2220.625000, 8236.500000, 8204.000000, 8211.000000
3131, 118071672.000000, 2185.500000, 8254.000000, 8201.000000, 8215.500000
3132, 118071832.000000, 2156.500000, 8273.500000, 8199.500000, 8222.000000
3133, 118071992.000000, 2130.250000, 8282.000000, 8207.000000, 8228.000000
3134, 118072152.000000, 2105.625000, 8252.000000, 8225.000000, 8238.000000
3135, 118072312.000000, 2084.125000, 8196.500000, 8226.000000, 8221.500000
3136, 118072472.000000, 2046.875000, 8165.500000, 8207.500000, 8194.000000
3137, 118072632.000000, 1995.875000, 8161.000000, 8191.500000, 8175.000000
3138, 118072792.000000, 1941.500000, 8163.000000, 8187.000000, 8168.000000
3139, 118072952.000000, 1889.500000, 8165.500000, 8191.000000, 8175.500000
3140, 118073112.000000, 1839.500000, 8162.000000, 8192.000000, 8180.000000
3141, 118073272.000000, 1792.250000, 8166.500000, 8196.000000, 8187.500000
3142, 118073432.000000, 1743.125000, 8167.000000, 8189.000000, 8177.000000
3143, 118073592.000000, 1681.500000, 8170.000000, 8187.500000, 8172.500000
3144, 118073752.000000, 1606.000000, 8173.000000, 8191.000000, 8175.500000
3145, 118073912.000000, 1527.750000, 8168.000000, 8188.500000, 8178.500000
3146, 118074072.000000, 1458.875000, 8175.500000, 8189.500000, 8174.000000
3147, 118074232.000000, 1392.250000, 8182.000000, 8185.500000, 8172.500000
3148, 118074392.000000, 1343.125000, 8176.000000, 8178.000000, 8162.000000
3149, 118074552.000000, 1371.750000, 8175.000000, 8189.500000, 8186.500000
3150, 118074712.000000, 1523.000000, 8169.500000, 8197.500000, 8202.500000
3151, 118074872.000000, 1783.375000, 8187.000000, 8196.500000, 8202.000000
3152, 118075032.000000, 2105.500000, 8183.000000, 8176.500000, 8173.000000
3153, 118075192.000000, 2421.000000, 8174.000000, 8170.000000, 8156.000000
3154, 118075352.000000, 2682.625000, 8168.500000, 8167.000000, 8153.500000
3155, 118075512.000000, 2851.500000, 8171.000000, 8169.500000, 8159.000000
3156, 118075672.000000, 2927.750000, 8178.000000, 8172.500000, 8164.500000
3157, 118075832.000000, 2927.000000, 8169.000000, 8231.500000, 8229.500000
3158, 118075992.000000, 2857.250000, 8448.000000, 8078.000000, 8173.000000
3159, 118076152.000000, 2729.250000, 8092.000000, 8076.000000, 8065.000000
3160, 118076312.000000, 2561.375000, 8127.500000, 8109.500000, 8102.000000
3161, 118076472.000000, 2377.500000, 8194.500000, 8184.500000, 8179.500000
3162, 118076632.000000, 2198.250000, 8203.500000, 8190.000000, 8179.000000
3163, 118076792.000000, 2054.250000, 8205.500000, 8192.000000, 8181.500000
3164, 118076952.000000, 1963.125000, 8218.000000, 8196.500000, 8194.000000
3165, 118077112.000000, 1899.875000, 8230.000000, 8199.500000, 8206.000000
3166, 118077272.000000, 1832.000000, 8253.000000, 8197.500000, 8211.500000
3167, 118077432.000000, 1752.000000, 8276.500000, 8197.000000, 8220.000000
3168, 118077592.000000, 1676.625000, 8288.000000, 8199.500000, 8230.500000
3169, 118077752.000000, 1615.250000, 8277.500000, 8208.000000, 8237.000000
3170, 118077912.000000, 1543.750000, 8227.500000, 8220.500000, 8239.000000
3171, 118078072.000000, 1465.000000, 8235.000000, 8194.000000, 8209.500000
3172, 118078232.000000, 1379.500000, 8226.500000, 8173.500000, 8183.500000
3173, 118078392.000000, 1284.000000, 8231.000000, 8171.000000, 8174.000000
3174, 118078552.000000, 1177.500000, 8229.500000, 8173.000000, 8174.000000
3175, 118078712.000000, 1072.000000, 8230.500000, 8173.000000, 8181.500000
3176, 118078872.000000, 987.750000, 8229.000000, 8174.000000, 8180.000000
3177, 118079032.000000, 913.750000, 8224.500000, 8165.500000, 8177.000000
3178, 118079192.000000, 829.875000, 8230.500000, 8165.000000, 8176.500000
3179, 118079352.000000, 734.875000, 8229.000000, 8169.000000, 8181.500000
3180, 118079512.000000, 640.875000, 8226.000000, 8170.500000, 8180.500000
3181, 118079672.000000, 557.125000, 8226.500000, 8167.000000, 8178.000000
3182, 118079832.000000, 483.250000, 8222.500000, 8161.000000, 8167.000000
3183, 118079992.000000, 432.750000, 8226.000000, 8165.500000, 8167.000000
3184, 118080152.000000, 454.125000, 8220.000000, 8174.500000, 8176.000000
3185, 118080312.000000, 587.500000, 8216.000000, 8187.000000, 8206.000000
3186, 118080472.000000, 856.500000, 8223.000000, 8184.500000, 8199.500000
3187, 118080632.000000, 1220.625000, 8216.000000, 8173.000000, 8189.000000
3188, 118080792.000000, 1603.000000, 8192.500000, 8164.000000, 8162.500000
3189, 118080952.000000, 1926.375000, 8196.000000, 8170.500000, 8167.500000
3190, 118081112.000000, 2148.500000, 8190.000000, 8165.500000, 8167.000000
3191, 118081272.000000, 2281.000000, 8194.000000, 8171.000000, 8168.500000
3192, 118081432.000000, 2328.500000, 8185.000000, 8190.500000, 8188.000000
3193, 118081592.000000, 2290.875000, 8339.500000, 8167.500000, 8217.000000
3194, 118081752.000000, 2167.750000, 8310.000000, 8095.000000, 8155.000000
3195, 118081912.000000, 1995.125000, 8101.000000, 8087.500000, 8071.000000
3196, 118082072.000000, 1817.125000, 8194.000000, 8169.000000, 8170.500000
3197, 118082232.000000, 1654.625000, 8210.000000, 8182.000000, 8186.000000
3198, 118082392.000000, 1521.750000, 8220.500000, 8184.000000, 8188.000000
3199, 118082552.000000, 1422.375000, 8232.500000, 8190.500000, 8199.500000
3200, 118082712.000000, 1348.625000, 8246.000000, 8196.500000, 8209.500000
3201, 118082872.000000, 1291.625000, 8265.500000, 8189.000000, 8210.000000
3202, 118083032.000000, 1256.375000, 8295.000000, 8182.500000, 8217.000000
3203, 118083192.000000, 1252.625000, 8320.000000, 8184.000000, 8225.500000
3204, 118083352.000000, 1266.500000, 8315.000000, 8192.000000, 8236.000000
3205, 118083512.000000, 1271.875000, 8275.000000, 8208.500000, 8241.000000
3206, 118083672.000000, 1271.750000, 8215.000000, 8210.000000, 8215.500000
3207, 118083832.000000, 1283.125000, 8188.500000, 8186.500000, 8183.500000
3208, 118083992.000000, 1306.750000, 8189.500000, 8177.500000, 8171.000000
3209, 118084152.000000, 1327.250000, 8191.000000, 8179.500000, 8171.000000
3210, 118084312.000000, 1333.625000, 8194.500000, 8181.500000, 8175.500000
3211, 118084472.000000, 1322.875000, 8196.000000, 8179.000000, 8176.000000
3212, 118084632.000000, 1295.500000, 8198.000000, 8176.500000, 8174.000000
3213, 118084792.000000, 1271.000000, 8191.500000, 8174.500000, 8177.000000
3214, 118084952.000000, 1270.625000, 8187.000000, 8175.000000, 8182.500000
3215, 118085112.000000, 1300.125000, 8186.000000, 8175.500000, 8179.500000
3216, 118085272.000000, 1336.125000, 8186.000000, 8167.500000, 8172.500000
3217, 118085432.000000, 1351.750000, 8184.000000, 8162.500000, 8164.000000
3218, 118085592.000000, 1342.750000, 8182.500000, 8163.500000, 8168.000000
3219, 118085752.000000, 1342.250000, 8188.000000, 8170.500000, 8175.500000
