1877, 111071464.000000, 2779.500000, 8017.500000, 8229.500000, 8180.500000
1878, 111071624.000000, 2795.750000, 8077.500000, 8203.000000, 8171.000000
1879, 111071784.000000, 2773.375000, 8119.500000, 8190.500000, 8169.500000
1880, 111071944.000000, 2714.000000, 8119.500000, 8198.500000, 8196.500000
1881, 111072104.000000, 2642.625000, 8091.000000, 8208.500000, 8197.500000
1882, 111072264.000000, 2622.750000, 8061.000000, 8204.000000, 8178.000000
1883, 111072424.000000, 2754.375000, 8068.500000, 8191.000000, 8153.000000
1884, 111072584.000000, 3046.125000, 8103.500000, 8183.500000, 8157.000000
1885, 111072744.000000, 3435.500000, 8127.000000, 8177.000000, 8157.000000
1886, 111072904.000000, 3772.250000, 8147.500000, 8174.000000, 8162.000000
1887, 111073064.000000, 3974.000000, 8175.500000, 8223.500000, 8225.500000
1888, 111073224.000000, 4022.000000, 8517.500000, 8067.500000, 8203.500000
1889, 111073384.000000, 3944.250000, 8089.000000, 8151.500000, 8143.000000
1890, 111073544.000000, 3805.750000, 8146.000000, 8150.000000, 8158.500000
1891, 111073704.000000, 3633.000000, 8167.000000, 8174.500000, 8175.000000
1892, 111073864.000000, 3446.750000, 8175.500000, 8179.000000, 8178.000000
1893, 111074024.000000, 3268.125000, 8183.000000, 8183.500000, 8185.500000
1894, 111074184.000000, 3121.625000, 8213.500000, 8179.500000, 8188.000000
1895, 111074344.000000, 3004.125000, 8230.000000, 8178.500000, 8196.000000
1896, 111074504.000000, 2906.875000, 8246.000000, 8180.000000, 8204.000000
1897, 111074664.000000, 2827.875000, 8267.000000, 8178.500000, 8206.500000
1898, 111074824.000000, 2757.125000, 8268.500000, 8178.000000, 8206.000000
1899, 111074984.000000, 2673.500000, 8257.000000, 8180.000000, 8204.000000
1900, 111075144.000000, 2578.125000, 8233.500000, 8185.500000, 8204.500000
1901, 111075304.000000, 2483.500000, 8198.500000, 8185.000000, 8197.500000
1902, 111075464.000000, 2399.875000, 8163.000000, 8183.000000, 8182.500000
1903, 111075624.000000, 2313.875000, 8155.000000, 8186.500000, 8178.500000
1904, 111075784.000000, 2215.000000, 8168.500000, 8196.000000, 8191.500000
1905, 111075944.000000, 2123.625000, 8198.000000, 8189.000000, 8197.000000
1906, 111076104.000000, 2063.000000, 8201.000000, 8184.000000, 8196.000000
1907, 111076264.000000, 2030.750000, 8209.000000, 8187.500000, 8199.000000
1908, 111076424.000000, 2011.000000, 8187.000000, 8186.000000, 8190.500000
1909, 111076584.000000, 1987.500000, 8161.000000, 8195.500000, 8195.000000
1910, 111076744.000000, 1947.875000, 8170.000000, 8209.000000, 8214.500000
1911, 111076904.000000, 1923.500000, 8173.500000, 8213.000000, 8217.500000
1912, 111077064.000000, 1994.750000, 8170.500000, 8198.500000, 8194.500000
1913, 111077224.000000, 2235.125000, 8178.500000, 8187.500000, 8180.000000
1914, 111077384.000000, 2590.375000, 8188.000000, 8190.500000, 8183.000000
1915, 111077544.000000, 2941.250000, 8196.500000, 8194.000000, 8188.000000
1916, 111077704.000000, 3200.250000, 8192.000000, 8200.000000, 8198.000000
1917, 111077864.000000, 3354.750000, 8244.500000, 8237.000000, 8249.000000
1918, 111078024.000000, 3437.750000, 8486.000000, 8113.000000, 8238.000000
1919, 111078184.000000, 3475.125000, 8071.500000, 8179.500000, 8153.500000
1920, 111078344.000000, 3465.875000, 8131.000000, 8213.000000, 8202.500000
1921, 111078504.000000, 3408.250000, 8149.000000, 8238.000000, 8217.500000
1922, 111078664.000000, 3321.250000, 8174.000000, 8235.500000, 8221.000000
1923, 111078824.000000, 3229.750000, 8196.000000, 8230.000000, 8225.000000
1924, 111078984.000000, 3155.875000, 8216.000000, 8229.500000, 8230.500000
1925, 111079144.000000, 3098.875000, 8210.500000, 8236.500000, 8239.000000
1926, 111079304.000000, 3040.375000, 8223.000000, 8238.000000, 8248.500000
1927, 111079464.000000, 2956.000000, 8234.000000, 8237.000000, 8250.000000
1928, 111079624.000000, 2850.625000, 8234.000000, 8236.000000, 8249.000000
1929, 111079784.000000, 2755.375000, 8219.000000, 8241.500000, 8253.500000
1930, 111079944.000000, 2693.125000, 8191.500000, 8248.000000, 8253.500000
1931, 111080104.000000, 2665.250000, 8172.500000, 8248.500000, 8245.000000
1932, 111080264.000000, 2655.750000, 8160.500000, 8239.500000, 8231.000000
1933, 111080424.000000, 2652.375000, 8171.500000, 8235.000000, 8230.500000
1934, 111080584.000000, 2645.250000, 8185.500000, 8230.000000, 8233.000000
1935, 111080744.000000, 2621.625000, 8189.500000, 8232.500000, 8240.000000
1936, 111080904.000000, 2560.500000, 8191.500000, 8233.500000, 8244.000000
1937, 111081064.000000, 2455.000000, 8161.500000, 8243.500000, 8241.500000
1938, 111081224.000000, 2330.875000, 8145.000000, 8241.000000, 8232.000000
1939, 111081384.000000, 2217.375000, 8152.000000, 8236.500000, 8230.000000
1940, 111081544.000000, 2128.750000, 8156.500000, 8247.500000, 8251.000000
1941, 111081704.000000, 2078.750000, 8168.500000, 8248.000000, 8256.000000
1942, 111081864.000000, 2100.750000, 8182.000000, 8233.500000, 8239.500000
1943, 111082024.000000, 2211.500000, 8164.000000, 8220.500000, 8211.000000
1944, 111082184.000000, 2384.250000, 8155.000000, 8220.500000, 8209.500000
1945, 111082344.000000, 2560.250000, 8152.000000, 8225.000000, 8212.000000
1946, 111082504.000000, 2704.125000, 8178.000000, 8220.500000, 8218.500000
1947, 111082664.000000, 2780.250000, 8200.000000, 8267.000000, 8281.000000
1948, 111082824.000000, 2755.625000, 8545.500000, 8086.500000, 8219.000000
1949, 111082984.000000, 2616.000000, 8139.500000, 8184.000000, 8196.000000
1950, 111083144.000000, 2396.750000, 8147.500000, 8161.500000, 8162.000000
1951, 111083304.000000, 2141.125000, 8221.000000, 8202.000000, 8216.500000
1952, 111083464.000000, 1878.375000, 8252.000000, 8202.500000, 8223.500000
1953, 111083624.000000, 1637.375000, 8256.500000, 8202.000000, 8224.000000
1954, 111083784.000000, 1443.250000, 8272.500000, 8199.500000, 8230.000000
1955, 111083944.000000, 1307.875000, 8295.000000, 8196.000000, 8237.500000
1956, 111084104.000000, 1225.250000, 8323.500000, 8191.000000, 8240.500000
1957, 111084264.000000, 1181.500000, 8343.000000, 8189.000000, 8243.500000
1958, 111084424.000000, 1151.125000, 8330.000000, 8192.000000, 8244.000000
1959, 111084584.000000, 1101.125000, 8316.000000, 8199.000000, 8245.000000
1960, 111084744.000000, 1009.375000, 8281.000000, 8210.000000, 8245.500000
1961, 111084904.000000, 858.500000, 8270.000000, 8202.000000, 8232.000000
1962, 111085064.000000, 684.875000, 8240.000000, 8197.000000, 8216.000000
1963, 111085224.000000, 540.625000, 8229.500000, 8195.000000, 8210.000000
1964, 111085384.000000, 477.000000, 8237.000000, 8192.000000, 8210.000000
1965, 111085544.000000, 494.750000, 8254.000000, 8186.500000, 8213.000000
1966, 111085704.000000, 526.875000, 8271.500000, 8182.000000, 8218.000000
1967, 111085864.000000, 519.375000, 8273.000000, 8180.000000, 8215.000000
1968, 111086024.000000, 444.250000, 8244.500000, 8184.000000, 8209.000000
1969, 111086184.000000, 310.250000, 8254.000000, 8186.500000, 8221.000000
1970, 111086344.000000, 141.000000, 8246.000000, 8192.000000, 8229.000000
1971, 111086504.000000, 29.875000, 8283.000000, 8182.000000, 8225.500000
1972, 111086664.000000, 14.750000, 8273.500000, 8164.000000, 8198.000000
1973, 111086824.000000, 102.875000, 8248.000000, 8168.500000, 8187.000000
1974, 111086984.000000, 376.500000, 8255.500000, 8165.000000, 8185.500000
1975, 111087144.000000, 768.875000, 8261.000000, 8163.000000, 8190.000000
1976, 111087304.000000, 1158.125000, 8272.000000, 8186.500000, 8223.000000
1977, 111087464.000000, 1459.125000, 8468.000000, 8117.000000, 8213.000000
1978, 111087624.000000, 1655.500000, 8363.500000, 8081.500000, 8169.500000
1979, 111087784.000000, 1726.875000, 8207.500000, 8094.000000, 8117.000000
1980, 111087944.000000, 1690.750000, 8275.000000, 8150.500000, 8188.500000
1981, 111088104.000000, 1561.625000, 8299.000000, 8161.000000, 8199.500000
1982, 111088264.000000, 1383.750000, 8301.500000, 8167.500000, 8203.500000
1983, 111088424.000000, 1209.250000, 8318.000000, 8160.500000, 8205.500000
1984, 111088584.000000, 1092.875000, 8317.000000, 8165.000000, 8213.500000
1985, 111088744.000000, 1063.250000, 8328.000000, 8173.500000, 8225.000000
1986, 111088904.000000, 1094.000000, 8349.000000, 8170.500000, 8230.000000
1987, 111089064.000000, 1156.875000, 8354.500000, 8173.500000, 8233.000000
1988, 111089224.000000, 1229.375000, 8338.500000, 8176.000000, 8233.500000
1989, 111089384.000000, 1289.875000, 8285.500000, 8189.000000, 8231.500000
1990, 111089544.000000, 1316.250000, 8240.000000, 8195.500000, 8216.500000
1991, 111089704.000000, 1314.125000, 8223.000000, 8191.000000, 8205.000000
1992, 111089864.000000, 1307.125000, 8222.500000, 8178.500000, 8195.500000
1993, 111090024.000000, 1320.250000, 8226.000000, 8179.000000, 8193.000000
1994, 111090184.000000, 1357.625000, 8238.000000, 8179.500000, 8202.000000
1995, 111090344.000000, 1413.000000, 8243.000000, 8178.000000, 8206.000000
1996, 111090504.000000, 1481.750000, 8246.500000, 8181.500000, 8206.500000
1997, 111090664.000000, 1557.750000, 8243.000000, 8182.000000, 8201.000000
1998, 111090824.000000, 1621.500000, 8219.500000, 8177.500000, 8193.500000
1999, 111090984.000000, 1658.625000, 8219.000000, 8188.000000, 8211.000000
2000, 111091144.000000, 1672.625000, 8221.000000, 8198.000000, 8219.000000
2001, 111091304.000000, 1709.875000, 8228.500000, 8190.500000, 8204.000000
2002, 111091464.000000, 1836.750000, 8200.500000, 8181.500000, 8176.500000
2003, 111091624.000000, 2115.250000, 8201.000000, 8175.000000, 8167.500000
2004, 111091784.000000, 2475.500000, 8195.500000, 8179.500000, 8174.000000
2005, 111091944.000000, 2824.375000, 8194.000000, 8190.500000, 8183.000000
2006, 111092104.000000, 3090.375000, 8182.500000, 8249.500000, 8244.500000
2007, 111092264.000000, 3262.875000, 8470.000000, 8117.500000, 8211.500000
2008, 111092424.000000, 3346.375000, 8178.000000, 8165.500000, 8181.000000
2009, 111092584.000000, 3344.875000, 8137.000000, 8175.000000, 8169.000000
2010, 111092744.000000, 3280.875000, 8195.000000, 8213.500000, 8214.500000
2011, 111092904.000000, 3168.375000, 8204.000000, 8223.500000, 8227.500000
2012, 111093064.000000, 3035.125000, 8207.000000, 8226.500000, 8232.500000
2013, 111093224.000000, 2907.250000, 8236.500000, 8224.500000, 8240.000000
2014, 111093384.000000, 2816.750000, 8257.000000, 8225.500000, 8249.000000
2015, 111093544.000000, 2765.250000, 8276.500000, 8225.000000, 8262.000000
2016, 111093704.000000, 2747.750000, 8306.500000, 8225.500000, 8273.000000
2017, 111093864.000000, 2742.125000, 8294.500000, 8226.000000, 8275.500000
2018, 111094024.000000, 2724.250000, 8280.000000, 8233.500000, 8272.000000
2019, 111094184.000000, 2682.500000, 8249.000000, 8244.000000, 8269.000000
2020, 111094344.000000, 2613.500000, 8219.000000, 8238.500000, 8253.500000
2021, 111094504.000000, 2515.500000, 8196.000000, 8228.500000, 8236.000000
2022, 111094664.000000, 2398.250000, 8176.500000, 8223.500000, 8224.000000
2023, 111094824.000000, 2292.875000, 8181.000000, 8224.500000, 8224.000000
2024, 111094984.000000, 2217.000000, 8188.000000, 8225.000000, 8228.500000
2025, 111095144.000000, 2157.000000, 8193.000000, 8229.000000, 8232.000000
2026, 111095304.000000, 2089.000000, 8192.000000, 8233.500000, 8230.000000
2027, 111095464.000000, 2005.125000, 8185.500000, 8224.500000, 8223.500000
2028, 111095624.000000, 1916.000000, 8179.000000, 8217.000000, 8215.500000
2029, 111095784.000000, 1842.750000, 8203.000000, 8217.000000, 8232.000000
2030, 111095944.000000, 1800.500000, 8194.000000, 8225.500000, 8236.000000
2031, 111096104.000000, 1827.000000, 8211.500000, 8216.000000, 8227.000000
2032, 111096264.000000, 1972.750000, 8192.000000, 8205.500000, 8195.500000
2033, 111096424.000000, 2250.625000, 8185.500000, 8195.500000, 8180.500000
2034, 111096584.000000, 2592.375000, 8187.000000, 8195.000000, 8184.000000
2035, 111096744.000000, 2897.125000, 8185.500000, 8194.500000, 8194.000000
2036, 111096904.000000, 3112.625000, 8193.000000, 8223.000000, 8229.500000
2037, 111097064.000000, 3235.250000, 8363.000000, 8184.500000, 8241.500000
2038, 111097224.000000, 3278.250000, 8344.000000, 8143.500000, 8230.000000
2039, 111097384.000000, 3258.500000, 8122.500000, 8146.500000, 8140.500000
2040, 111097544.000000, 3183.500000, 8202.000000, 8196.500000, 8207.000000
2041, 111097704.000000, 3053.875000, 8215.500000, 8204.000000, 8213.500000
2042, 111097864.000000, 2888.375000, 8211.000000, 8206.500000, 8214.500000
2043, 111098024.000000, 2718.375000, 8215.000000, 8205.000000, 8211.500000
2044, 111098184.000000, 2579.625000, 8219.500000, 8205.000000, 8214.500000
2045, 111098344.000000, 2487.500000, 8240.000000, 8204.000000, 8218.000000
2046, 111098504.000000, 2437.375000, 8274.000000, 8198.000000, 8221.500000
2047, 111098664.000000, 2411.000000, 8272.500000, 8190.000000, 8213.500000
2048, 111098824.000000, 2396.750000, 8244.500000, 8192.500000, 8202.500000
2049, 111098984.000000, 2392.375000, 8206.000000, 8202.500000, 8192.500000
2050, 111099144.000000, 2387.125000, 8163.500000, 8212.500000, 8187.500000
2051, 111099304.000000, 2364.500000, 8144.500000, 8206.500000, 8169.000000
2052, 111099464.000000, 2327.875000, 8122.500000, 8203.000000, 8151.000000
2053, 111099624.000000, 2284.125000, 8119.500000, 8193.000000, 8138.000000
2054, 111099784.000000, 2233.250000, 8135.000000, 8189.500000, 8137.000000
2055, 111099944.000000, 2174.750000, 8135.000000, 8179.500000, 8129.500000
2056, 111100104.000000, 2100.875000, 8130.500000, 8179.500000, 8121.000000
2057, 111100264.000000, 2015.125000, 8125.500000, 8182.500000, 8116.500000
2058, 111100424.000000, 1934.750000, 8126.500000, 8175.000000, 8108.000000
2059, 111100584.000000, 1878.750000, 8122.000000, 8171.000000, 8100.500000
2060, 111100744.000000, 1853.000000, 8137.000000, 8172.000000, 8113.500000
2061, 111100904.000000, 1874.125000, 8139.500000, 8173.500000, 8125.000000
2062, 111101064.000000, 1989.500000, 8142.000000, 8172.500000, 8121.500000
2063, 111101224.000000, 2224.250000, 8136.500000, 8162.000000, 8097.500000
2064, 111101384.000000, 2538.375000, 8127.000000, 8152.000000, 8090.000000
2065, 111101544.000000, 2853.750000, 8126.000000, 8159.000000, 8099.000000
2066, 111101704.000000, 3110.625000, 8127.000000, 8165.500000, 8101.500000
2067, 111101864.000000, 3268.000000, 8133.500000, 8177.000000, 8115.500000
2068, 111102024.000000, 3338.000000, 8256.000000, 8166.000000, 8142.000000
2069, 111102184.000000, 3338.125000, 8307.000000, 8100.500000, 8141.000000
2070, 111102344.000000, 3278.500000, 8037.000000, 8120.000000, 8045.000000
2071, 111102504.000000, 3165.000000, 8123.500000, 8162.000000, 8110.000000
2072, 111102664.000000, 3014.375000, 8153.000000, 8170.000000, 8121.500000
2073, 111102824.000000, 2870.875000, 8154.500000, 8171.500000, 8126.500000
2074, 111102984.000000, 2763.125000, 8166.000000, 8176.500000, 8135.500000
2075, 111103144.000000, 2697.500000, 8181.500000, 8176.000000, 8148.000000
2076, 111103304.000000, 2667.375000, 8206.500000, 8174.500000, 8154.500000
2077, 111103464.000000, 2659.375000, 8222.000000, 8173.000000, 8158.500000
2078, 111103624.000000, 2659.875000, 8229.000000, 8173.500000, 8164.500000
2079, 111103784.000000, 2651.625000, 8217.500000, 8180.000000, 8171.000000
2080, 111103944.000000, 2630.500000, 8197.500000, 8189.500000, 8173.500000
2081, 111104104.000000, 2594.375000, 8165.000000, 8196.000000, 8168.500000
2082, 111104264.000000, 2543.625000, 8156.500000, 8183.500000, 8158.000000
2083, 111104424.000000, 2472.250000, 8138.000000, 8175.500000, 8145.000000
2084, 111104584.000000, 2394.250000, 8136.500000, 8178.500000, 8152.000000
2085, 111104744.000000, 2326.625000, 8136.000000, 8188.500000, 8160.500000
2086, 111104904.000000, 2268.875000, 8157.500000, 8192.500000, 8167.000000
2087, 111105064.000000, 2203.500000, 8164.000000, 8185.000000, 8162.500000
2088, 111105224.000000, 2129.000000, 8156.500000, 8188.000000, 8162.000000
2089, 111105384.000000, 2045.125000, 8142.000000, 8186.000000, 8161.000000
2090, 111105544.000000, 1962.125000, 8156.500000, 8184.500000, 8161.000000
2091, 111105704.000000, 1889.125000, 8153.000000, 8187.500000, 8167.000000
2092, 111105864.000000, 1843.375000, 8170.000000, 8194.000000, 8187.000000
2093, 111106024.000000, 1863.875000, 8177.500000, 8186.000000, 8187.000000
2094, 111106184.000000, 1996.875000, 8168.500000, 8178.000000, 8163.000000
2095, 111106344.000000, 2217.625000, 8152.000000, 8175.000000, 8154.000000
2096, 111106504.000000, 2455.500000, 8142.000000, 8178.500000, 8154.500000
2097, 111106664.000000, 2637.500000, 8144.500000, 8182.500000, 8157.000000
2098, 111106824.000000, 2751.750000, 8147.500000, 8188.500000, 8164.000000
2099, 111106984.000000, 2811.625000, 8191.500000, 8220.000000, 8209.000000
2100, 111107144.000000, 2824.125000, 8449.000000, 8088.500000, 8201.500000
2101, 111107304.000000, 2789.000000, 8045.000000, 8154.000000, 8113.500000
2102, 111107464.000000, 2697.125000, 8135.500000, 8176.500000, 8159.500000
2103, 111107624.000000, 2569.250000, 8161.500000, 8191.000000, 8168.000000
2104, 111107784.000000, 2441.250000, 8176.500000, 8187.000000, 8172.000000
2105, 111107944.000000, 2340.125000, 8199.500000, 8185.500000, 8179.000000
2106, 111108104.000000, 2269.250000, 8199.000000, 8184.500000, 8183.500000
2107, 111108264.000000, 2222.625000, 8194.500000, 8189.000000, 8187.000000
2108, 111108424.000000, 2186.250000, 8229.500000, 8187.000000, 8197.000000
2109, 111108584.000000, 2148.375000, 8244.000000, 8187.000000, 8202.500000
2110, 111108744.000000, 2102.625000, 8228.500000, 8189.500000, 8203.500000
2111, 111108904.000000, 2056.375000, 8200.000000, 8202.000000, 8207.500000
2112, 111109064.000000, 2016.125000, 8160.500000, 8204.000000, 8199.500000
2113, 111109224.000000, 1975.750000, 8133.000000, 8195.500000, 8181.500000
2114, 111109384.000000, 1916.000000, 8123.500000, 8199.000000, 8178.500000
2115, 111109544.000000, 1829.875000, 8150.000000, 8198.500000, 8184.500000
2116, 111109704.000000, 1735.500000, 8136.000000, 8203.500000, 8187.500000
2117, 111109864.000000, 1650.000000, 8131.500000, 8203.500000, 8184.500000
2118, 111110024.000000, 1575.500000, 8138.500000, 8204.000000, 8183.000000
2119, 111110184.000000, 1511.250000, 8142.000000, 8203.500000, 8185.500000
2120, 111110344.000000, 1466.500000, 8137.500000, 8197.000000, 8180.000000
2121, 111110504.000000, 1445.500000, 8151.000000, 8199.000000, 8184.000000
2122, 111110664.000000, 1437.625000, 8142.500000, 8192.000000, 8176.500000
2123, 111110824.000000, 1429.500000, 8144.500000, 8199.500000, 8188.500000
2124, 111110984.000000, 1438.125000, 8148.000000, 8208.500000, 8202.500000
2125, 111111144.000000, 1513.000000, 8150.000000, 8206.500000, 8201.000000
2126, 111111304.000000, 1694.875000, 8132.000000, 8200.000000, 8177.000000
2127, 111111464.000000, 1943.750000, 8128.500000, 8196.000000, 8168.000000
2128, 111111624.000000, 2185.500000, 8137.000000, 8191.500000, 8167.500000
2129, 111111784.000000, 2366.875000, 8150.500000, 8190.500000, 8173.000000
2130, 111111944.000000, 2482.625000, 8162.500000, 8201.500000, 8197.500000
2131, 111112104.000000, 2535.750000, 8325.500000, 8166.000000, 8210.000000
2132, 111112264.000000, 2551.875000, 8272.000000, 8157.500000, 8219.000000
2133, 111112424.000000, 2543.625000, 8094.000000, 8140.500000, 8119.500000
2134, 111112584.000000, 2517.250000, 8158.000000, 8184.500000, 8175.000000
2135, 111112744.000000, 2471.000000, 8181.000000, 8199.000000, 8189.000000
2136, 111112904.000000, 2401.750000, 8197.000000, 8197.000000, 8193.500000
2137, 111113064.000000, 2308.000000, 8211.000000, 8190.000000, 8194.500000
2138, 111113224.000000, 2211.750000, 8228.000000, 8184.500000, 8199.500000
2139, 111113384.000000, 2139.000000, 8229.500000, 8186.000000, 8206.000000
2140, 111113544.000000, 2091.125000, 8256.000000, 8193.000000, 8218.500000
2141, 111113704.000000, 2053.000000, 8249.500000, 8197.500000, 8221.000000
2142, 111113864.000000, 1997.750000, 8237.000000, 8198.000000, 8218.000000
2143, 111114024.000000, 1930.125000, 8210.000000, 8213.000000, 8219.000000
2144, 111114184.000000, 1866.125000, 8195.000000, 8210.000000, 8212.000000
2145, 111114344.000000, 1812.500000, 8186.000000, 8202.000000, 8202.000000
2146, 111114504.000000, 1757.750000, 8182.000000, 8200.500000, 8193.500000
2147, 111114664.000000, 1688.250000, 8174.500000, 8202.000000, 8188.500000
2148, 111114824.000000, 1609.250000, 8178.500000, 8195.000000, 8184.500000
2149, 111114984.000000, 1537.500000, 8183.500000, 8175.500000, 8168.000000
2150, 111115144.000000, 1465.500000, 8185.000000, 8184.500000, 8180.500000
2151, 111115304.000000, 1391.000000, 8172.500000, 8190.000000, 8181.500000
2152, 111115464.000000, 1306.500000, 8162.000000, 8182.500000, 8171.500000
2153, 111115624.000000, 1214.250000, 8153.000000, 8176.500000, 8158.000000
2154, 111115784.000000, 1122.625000, 8165.500000, 8179.500000, 8171.000000
2155, 111115944.000000, 1041.500000, 8183.000000, 8183.500000, 8180.000000
2156, 111116104.000000, 1006.000000, 8197.000000, 8172.000000, 8170.500000
2157, 111116264.000000, 1063.875000, 8185.000000, 8154.500000, 8141.500000
2158, 111116424.000000, 1224.375000, 8193.000000, 8150.500000, 8135.500000
2159, 111116584.000000, 1446.125000, 8188.500000, 8149.000000, 8135.000000
2160, 111116744.000000, 1676.250000, 8164.500000, 8146.500000, 8136.500000
2161, 111116904.000000, 1889.375000, 8152.500000, 8180.500000, 8179.500000
2162, 111117064.000000, 2072.500000, 8389.000000, 8086.500000, 8162.000000
2163, 111117224.000000, 2197.750000, 8156.000000, 8128.500000, 8157.500000
2164, 111117384.000000, 2246.625000, 8059.500000, 8120.000000, 8099.000000
2165, 111117544.000000, 2214.375000, 8096.500000, 8175.000000, 8153.500000
2166, 111117704.000000, 2124.375000, 8089.000000, 8193.500000, 8162.500000
2167, 111117864.000000, 2010.875000, 8079.500000, 8198.000000, 8164.500000
2168, 111118024.000000, 1909.125000, 8096.500000, 8197.000000, 8170.500000
2169, 111118184.000000, 1843.875000, 8130.000000, 8196.500000, 8183.500000
2170, 111118344.000000, 1803.750000, 8157.000000, 8196.500000, 8197.000000
2171, 111118504.000000, 1781.000000, 8194.000000, 8192.000000, 8207.500000
2172, 111118664.000000, 1765.125000, 8218.500000, 8186.500000, 8211.000000
2173, 111118824.000000, 1747.000000, 8199.000000, 8197.500000, 8215.000000
2174, 111118984.000000, 1718.875000, 8148.000000, 8213.500000, 8214.500000
2175, 111119144.000000, 1658.750000, 8098.000000, 8223.500000, 8207.000000
2176, 111119304.000000, 1543.500000, 8087.000000, 8215.500000, 8193.000000
2177, 111119464.000000, 1369.000000, 8119.000000, 8200.000000, 8187.000000
2178, 111119624.000000, 1157.250000, 8143.000000, 8193.500000, 8188.000000
2179, 111119784.000000, 949.625000, 8145.000000, 8195.500000, 8192.500000
2180, 111119944.000000, 766.875000, 8142.000000, 8195.000000, 8193.000000
2181, 111120104.000000, 613.375000, 8154.000000, 8192.000000, 8192.500000
2182, 111120264.000000, 481.125000, 8153.000000, 8191.500000, 8187.000000
2183, 111120424.000000, 377.750000, 8159.000000, 8186.500000, 8184.000000
2184, 111120584.000000, 309.625000, 8158.500000, 8191.500000, 8195.000000
2185, 111120744.000000, 272.125000, 8172.500000, 8193.500000, 8208.500000
2186, 111120904.000000, 247.875000, 8183.000000, 8192.000000, 8207.000000
2187, 111121064.000000, 227.250000, 8179.500000, 8170.500000, 8176.000000
2188, 111121224.000000, 239.250000, 8168.000000, 8166.000000, 8165.000000
2189, 111121384.000000, 336.000000, 8165.000000, 8165.000000, 8161.500000
2190, 111121544.000000, 516.375000, 8169.000000, 8163.000000, 8164.500000
2191, 111121704.000000, 724.000000, 8160.500000, 8190.000000, 8192.000000
2192, 111121864.000000, 900.875000, 8341.500000, 8145.500000, 8201.500000
2193, 111122024.000000, 1013.625000, 8277.500000, 8117.500000, 8181.500000
2194, 111122184.000000, 1056.875000, 8084.000000, 8103.500000, 8081.500000
2195, 111122344.000000, 1036.000000, 8166.500000, 8158.500000, 8161.500000
2196, 111122504.000000, 973.250000, 8173.500000, 8176.000000, 8175.500000
2197, 111122664.000000, 895.625000, 8191.500000, 8176.500000, 8178.000000
2198, 111122824.000000, 827.000000, 8210.000000, 8174.000000, 8183.000000
2199, 111122984.000000, 775.375000, 8222.000000, 8174.000000, 8190.000000
2200, 111123144.000000, 738.250000, 8232.500000, 8175.000000, 8198.000000
2201, 111123304.000000, 701.625000, 8236.000000, 8177.000000, 8203.000000
2202, 111123464.000000, 654.250000, 8247.000000, 8178.000000, 8206.500000
2203, 111123624.000000, 615.500000, 8211.000000, 8192.500000, 8208.000000
2204, 111123784.000000, 578.375000, 8170.000000, 8206.500000, 8212.000000
2205, 111123944.000000, 541.750000, 8118.000000, 8211.000000, 8199.000000
2206, 111124104.000000, 486.625000, 8094.000000, 8210.000000, 8188.000000
2207, 111124264.000000, 410.125000, 8096.000000, 8208.500000, 8184.500000
2208, 111124424.000000, 319.625000, 8119.000000, 8206.000000, 8188.500000
2209, 111124584.000000, 241.125000, 8133.000000, 8205.000000, 8194.000000
2210, 111124744.000000, 195.875000, 8126.000000, 8212.500000, 8202.500000
2211, 111124904.000000, 174.750000, 8123.500000, 8213.000000, 8201.500000
2212, 111125064.000000, 148.125000, 8132.000000, 8210.500000, 8196.000000
2213, 111125224.000000, 90.750000, 8132.500000, 8213.000000, 8205.000000
2214, 111125384.000000, 39.125000, 8155.500000, 8217.500000, 8221.000000
2215, 111125544.000000, 10.250000, 8174.000000, 8212.000000, 8220.000000
2216, 111125704.000000, 22.875000, 8158.000000, 8198.000000, 8193.500000
2217, 111125864.000000, 166.500000, 8132.500000, 8198.000000, 8175.500000
2218, 111126024.000000, 471.625000, 8122.500000, 8201.500000, 8177.500000
2219, 111126184.000000, 790.000000, 8115.000000, 8204.000000, 8180.000000
2220, 111126344.000000, 1084.875000, 8120.500000, 8216.000000, 8199.500000
2221, 111126504.000000, 1320.875000, 8241.500000, 8226.000000, 8246.000000
2222, 111126664.000000, 1496.625000, 8312.500000, 8136.500000, 8206.500000
2223, 111126824.000000, 1639.125000, 8030.000000, 8149.000000, 8097.000000
2224, 111126984.000000, 1765.000000, 8113.500000, 8211.500000, 8189.500000
2225, 111127144.000000, 1873.750000, 8142.500000, 8232.000000, 8216.000000
2226, 111127304.000000, 1951.500000, 8141.000000, 8238.500000, 8232.000000
2227, 111127464.000000, 1988.625000, 8146.000000, 8242.500000, 8237.000000
2228, 111127624.000000, 1998.250000, 8177.000000, 8239.500000, 8241.500000
2229, 111127784.000000, 2005.500000, 8205.000000, 8240.500000, 8251.500000
2230, 111127944.000000, 2023.375000, 8237.500000, 8234.000000, 8255.500000
2231, 111128104.000000, 2058.625000, 8224.500000, 8237.000000, 8258.000000
2232, 111128264.000000, 2112.125000, 8191.500000, 8250.000000, 8259.000000
2233, 111128424.000000, 2173.000000, 8167.000000, 8252.000000, 8250.500000
2234, 111128584.000000, 2230.625000, 8155.500000, 8242.500000, 8235.500000
2235, 111128744.000000, 2284.750000, 8137.000000, 8234.000000, 8221.000000
2236, 111128904.000000, 2338.250000, 8109.000000, 8242.000000, 8215.000000
2237, 111129064.000000, 2372.375000, 8107.000000, 8240.000000, 8209.500000
2238, 111129224.000000, 2363.375000, 8122.500000, 8241.000000, 8216.000000
2239, 111129384.000000, 2323.750000, 8130.500000, 8237.500000, 8217.000000
2240, 111129544.000000, 2278.125000, 8143.500000, 8230.000000, 8215.000000
2241, 111129704.000000, 2246.750000, 8146.500000, 8227.000000, 8207.000000
2242, 111129864.000000, 2222.625000, 8140.000000, 8233.500000, 8216.000000
2243, 111130024.000000, 2193.875000, 8135.500000, 8237.000000, 8219.500000
2244, 111130184.000000, 2166.750000, 8153.500000, 8235.000000, 8219.500000
2245, 111130344.000000, 2177.375000, 8140.000000, 8224.500000, 8195.500000
2246, 111130504.000000, 2274.875000, 8129.500000, 8217.500000, 8181.000000
2247, 111130664.000000, 2463.625000, 8138.500000, 8213.500000, 8177.000000
2248, 111130824.000000, 2695.000000, 8151.500000, 8209.500000, 8178.000000
2249, 111130984.000000, 2894.750000, 8143.000000, 8223.500000, 8194.000000
2250, 111131144.000000, 3040.125000, 8278.500000, 8218.000000, 8230.000000
2251, 111131304.000000, 3127.500000, 8296.500000, 8146.500000, 8196.500000
2252, 111131464.000000, 3169.875000, 8049.500000, 8152.500000, 8097.000000
2253, 111131624.000000, 3174.875000, 8141.000000, 8206.500000, 8171.500000
2254, 111131784.000000, 3134.875000, 8164.000000, 8214.500000, 8182.000000
2255, 111131944.000000, 3062.750000, 8168.500000, 8220.000000, 8189.500000
2256, 111132104.000000, 2975.125000, 8173.500000, 8218.000000, 8190.000000
2257, 111132264.000000, 2907.250000, 8188.500000, 8213.500000, 8192.500000
2258, 111132424.000000, 2865.875000, 8209.500000, 8213.000000, 8198.000000
2259, 111132584.000000, 2850.125000, 8234.000000, 8211.000000, 8205.000000
2260, 111132744.000000, 2849.000000, 8249.000000, 8211.000000, 8212.000000
2261, 111132904.000000, 2851.250000, 8235.500000, 8212.000000, 8209.000000
2262, 111133064.000000, 2861.875000, 8205.000000, 8218.000000, 8204.000000
2263, 111133224.000000, 2882.250000, 8152.500000, 8220.500000, 8189.500000
2264, 111133384.000000, 2909.000000, 8132.500000, 8210.500000, 8173.000000
2265, 111133544.000000, 2919.000000, 8134.000000, 8203.500000, 8168.000000
2266, 111133704.000000, 2904.000000, 8141.500000, 8204.000000, 8169.500000
2267, 111133864.000000, 2851.750000, 8150.000000, 8199.000000, 8170.500000
2268, 111134024.000000, 2772.250000, 8160.000000, 8193.000000, 8170.000000
2269, 111134184.000000, 2672.750000, 8166.000000, 8190.500000, 8169.500000
2270, 111134344.000000, 2565.875000, 8153.000000, 8192.000000, 8165.500000
2271, 111134504.000000, 2465.625000, 8138.500000, 8196.500000, 8164.500000
2272, 111134664.000000, 2363.625000, 8164.500000, 8199.000000, 8188.000000
2273, 111134824.000000, 2252.875000, 8175.500000, 8194.500000, 8183.500000
2274, 111134984.000000, 2154.000000, 8167.500000, 8189.000000, 8170.000000
2275, 111135144.000000, 2126.750000, 8158.500000, 8174.000000, 8147.000000
2276, 111135304.000000, 2198.125000, 8172.500000, 8169.000000, 8146.000000
2277, 111135464.000000, 2330.375000, 8175.000000, 8164.000000, 8140.000000
2278, 111135624.000000, 2454.875000, 8174.500000, 8167.500000, 8145.000000
2279, 111135784.000000, 2527.375000, 8182.500000, 8219.000000, 8210.000000
2280, 111135944.000000, 2531.000000, 8535.000000, 8046.500000, 8169.000000
2281, 111136104.000000, 2467.500000, 8108.000000, 8141.000000, 8123.500000
2282, 111136264.000000, 2360.500000, 8143.000000, 8129.000000, 8119.500000
2283, 111136424.000000, 2221.500000, 8206.000000, 8164.500000, 8154.500000
2284, 111136584.000000, 2059.250000, 8226.000000, 8166.000000, 8166.000000
2285, 111136744.000000, 1879.125000, 8246.000000, 8162.500000, 8170.500000
2286, 111136904.000000, 1682.875000, 8266.500000, 8163.000000, 8175.000000
2287, 111137064.000000, 1482.250000, 8260.000000, 8160.500000, 8182.000000
2288, 111137224.000000, 1297.625000, 8271.500000, 8166.000000, 8189.000000
2289, 111137384.000000, 1144.625000, 8288.500000, 8163.500000, 8195.000000
2290, 111137544.000000, 1029.875000, 8280.000000, 8174.000000, 8202.000000
2291, 111137704.000000, 961.875000, 8249.500000, 8185.000000, 8204.500000
2292, 111137864.000000, 938.000000, 8217.500000, 8182.000000, 8194.000000
2293, 111138024.000000, 945.375000, 8178.500000, 8181.000000, 8176.000000
2294, 111138184.000000, 962.750000, 8154.500000, 8177.000000, 8161.500000
2295, 111138344.000000, 974.250000, 8166.500000, 8175.000000, 8161.500000
2296, 111138504.000000, 964.875000, 8174.000000, 8170.000000, 8161.500000
2297, 111138664.000000, 932.375000, 8167.000000, 8173.500000, 8161.000000
2298, 111138824.000000, 881.750000, 8180.000000, 8164.000000, 8159.500000
2299, 111138984.000000, 812.875000, 8185.500000, 8162.500000, 8158.500000
2300, 111139144.000000, 739.625000, 8184.000000, 8163.500000, 8158.500000
2301, 111139304.000000, 677.875000, 8175.500000, 8183.000000, 8186.000000
2302, 111139464.000000, 642.375000, 8168.500000, 8179.500000, 8177.000000
2303, 111139624.000000, 648.125000, 8161.000000, 8172.500000, 8161.500000
2304, 111139784.000000, 724.000000, 8153.500000, 8162.500000, 8140.500000
2305, 111139944.000000, 905.250000, 8156.000000, 8163.500000, 8145.000000
2306, 111140104.000000, 1156.500000, 8157.000000, 8163.000000, 8147.000000
2307, 111140264.000000, 1421.125000, 8163.500000, 8158.500000, 8147.500000
2308, 111140424.000000, 1644.375000, 8170.000000, 8215.500000, 8211.000000
2309, 111140584.000000, 1812.250000, 8500.500000, 8047.500000, 8169.000000
2310, 111140744.000000, 1930.500000, 8066.000000, 8134.000000, 8112.500000
2311, 111140904.000000, 2000.625000, 8140.000000, 8139.000000, 8141.500000
2312, 111141064.000000, 2014.875000, 8176.500000, 8167.500000, 8163.500000
2313, 111141224.000000, 1974.375000, 8190.000000, 8167.000000, 8167.500000
2314, 111141384.000000, 1900.000000, 8186.500000, 8171.500000, 8172.000000
2315, 111141544.000000, 1823.500000, 8209.000000, 8174.500000, 8185.000000
2316, 111141704.000000, 1761.375000, 8239.500000, 8165.000000, 8191.500000
2317, 111141864.000000, 1717.875000, 8265.000000, 8164.000000, 8198.000000
2318, 111142024.000000, 1705.750000, 8273.000000, 8168.000000, 8206.000000
2319, 111142184.000000, 1733.625000, 8255.500000, 8175.000000, 8211.500000
2320, 111142344.000000, 1782.750000, 8227.500000, 8187.000000, 8215.500000
2321, 111142504.000000, 1837.125000, 8182.500000, 8189.500000, 8204.500000
2322, 111142664.000000, 1891.500000, 8160.500000, 8184.000000, 8186.000000
2323, 111142824.000000, 1941.500000, 8164.000000, 8167.000000, 8171.500000
2324, 111142984.000000, 1980.375000, 8152.000000, 8168.500000, 8168.000000
2325, 111143144.000000, 2002.375000, 8168.500000, 8163.000000, 8171.000000
2326, 111143304.000000, 2020.000000, 8171.000000, 8161.500000, 8173.500000
2327, 111143464.000000, 2038.375000, 8171.500000, 8158.000000, 8168.500000
2328, 111143624.000000, 2058.000000, 8171.500000, 8148.500000, 8159.000000
2329, 111143784.000000, 2078.625000, 8161.000000, 8150.000000, 8158.000000
2330, 111143944.000000, 2096.625000, 8170.500000, 8165.500000, 8190.000000
2331, 111144104.000000, 2108.500000, 8171.000000, 8169.000000, 8190.000000
2332, 111144264.000000, 2136.000000, 8163.500000, 8162.000000, 8173.000000
2333, 111144424.000000, 2222.875000, 8144.000000, 8151.500000, 8151.500000
2334, 111144584.000000, 2409.250000, 8156.000000, 8153.500000, 8156.500000
2335, 111144744.000000, 2674.000000, 8167.000000, 8169.500000, 8177.000000
2336, 111144904.000000, 2946.250000, 8162.000000, 8183.000000, 8192.000000
2337, 111145064.000000, 3167.750000, 8183.000000, 8235.000000, 8258.000000
2338, 111145224.000000, 3329.000000, 8530.500000, 8076.000000, 8229.500000
2339, 111145384.000000, 3433.875000, 8090.500000, 8155.000000, 8170.000000
2340, 111145544.000000, 3497.750000, 8116.000000, 8173.000000, 8190.000000
2341, 111145704.000000, 3516.375000, 8140.500000, 8201.000000, 8206.000000
2342, 111145864.000000, 3483.875000, 8137.500000, 8201.500000, 8206.000000
2343, 111146024.000000, 3405.875000, 8148.500000, 8197.500000, 8209.500000
2344, 111146184.000000, 3308.250000, 8173.000000, 8201.500000, 8219.000000
2345, 111146344.000000, 3216.750000, 8186.500000, 8187.000000, 8217.500000
2346, 111146504.000000, 3146.500000, 8219.000000, 8177.000000, 8220.000000
2347, 111146664.000000, 3101.000000, 8244.000000, 8167.500000, 8221.000000
2348, 111146824.000000, 3059.375000, 8242.000000, 8169.000000, 8220.500000
2349, 111146984.000000, 2999.500000, 8203.000000, 8181.500000, 8218.000000
2350, 111147144.000000, 2915.000000, 8158.000000, 8186.500000, 8211.000000
2351, 111147304.000000, 2815.000000, 8122.500000, 8178.500000, 8191.500000
2352, 111147464.000000, 2723.000000, 8116.000000, 8170.000000, 8178.500000
2353, 111147624.000000, 2647.500000, 8113.000000, 8168.500000, 8174.000000
2354, 111147784.000000, 2583.000000, 8132.000000, 8172.000000, 8179.000000
2355, 111147944.000000, 2527.500000, 8159.000000, 8164.500000, 8186.500000
2356, 111148104.000000, 2479.625000, 8179.500000, 8159.500000, 8186.000000
2357, 111148264.000000, 2433.750000, 8156.000000, 8159.000000, 8180.000000
2358, 111148424.000000, 2387.375000, 8168.000000, 8161.000000, 8179.000000
2359, 111148584.000000, 2336.500000, 8167.000000, 8162.500000, 8181.000000
2360, 111148744.000000, 2289.000000, 8188.000000, 8168.000000, 8202.500000
2361, 111148904.000000, 2260.875000, 8187.000000, 8161.000000, 8192.500000
2362, 111149064.000000, 2291.000000, 8195.500000, 8151.000000, 8176.500000
2363, 111149224.000000, 2429.625000, 8177.000000, 8143.500000, 8157.500000
2364, 111149384.000000, 2665.000000, 8174.500000, 8145.000000, 8152.500000
2365, 111149544.000000, 2947.625000, 8188.000000, 8139.500000, 8153.000000
2366, 111149704.000000, 3205.000000, 8200.000000, 8138.000000, 8156.500000
2367, 111149864.000000, 3387.750000, 8241.500000, 8182.000000, 8215.000000
2368, 111150024.000000, 3481.250000, 8598.500000, 8004.500000, 8181.500000
2369, 111150184.000000, 3503.375000, 8155.000000, 8086.500000, 8108.500000
2370, 111150344.000000, 3483.625000, 8215.500000, 8112.000000, 8147.500000
2371, 111150504.000000, 3422.000000, 8258.000000, 8134.500000, 8163.500000
2372, 111150664.000000, 3321.125000, 8265.500000, 8131.500000, 8163.500000
2373, 111150824.000000, 3203.250000, 8274.500000, 8131.500000, 8164.500000
2374, 111150984.000000, 3095.250000, 8289.500000, 8127.500000, 8167.500000
2375, 111151144.000000, 3007.625000, 8317.000000, 8128.500000, 8180.000000
2376, 111151304.000000, 2947.500000, 8352.500000, 8127.000000, 8189.000000
2377, 111151464.000000, 2936.500000, 8386.500000, 8122.000000, 8192.500000
2378, 111151624.000000, 2968.375000, 8369.500000, 8134.500000, 8197.500000
2379, 111151784.000000, 3016.875000, 8333.500000, 8145.500000, 8194.500000
2380, 111151944.000000, 3053.875000, 8281.000000, 8152.000000, 8182.500000
2381, 111152104.000000, 3061.125000, 8257.000000, 8151.000000, 8171.000000
2382, 111152264.000000, 3029.375000, 8245.500000, 8137.000000, 8149.000000
2383, 111152424.000000, 2958.250000, 8232.000000, 8142.000000, 8148.000000
2384, 111152584.000000, 2845.250000, 8230.000000, 8150.000000, 8156.500000
2385, 111152744.000000, 2701.500000, 8237.000000, 8157.500000, 8164.500000
2386, 111152904.000000, 2548.375000, 8247.500000, 8153.000000, 8167.000000
2387, 111153064.000000, 2400.375000, 8262.000000, 8148.000000, 8163.500000
2388, 111153224.000000, 2269.125000, 8254.000000, 8149.000000, 8159.000000
2389, 111153384.000000, 2160.625000, 8241.500000, 8155.500000, 8161.500000
2390, 111153544.000000, 2066.500000, 8256.000000, 8161.500000, 8182.000000
2391, 111153704.000000, 1979.375000, 8262.500000, 8167.000000, 8190.000000
2392, 111153864.000000, 1916.500000, 8268.000000, 8161.000000, 8182.500000
2393, 111154024.000000, 1915.750000, 8243.000000, 8151.000000, 8154.000000
2394, 111154184.000000, 1978.125000, 8241.000000, 8149.000000, 8148.500000
2395, 111154344.000000, 2060.375000, 8242.500000, 8154.000000, 8157.500000
2396, 111154504.000000, 2107.250000, 8250.500000, 8157.500000, 8164.500000
2397, 111154664.000000, 2094.000000, 8230.000000, 8201.000000, 8208.000000
2398, 111154824.000000, 2020.625000, 8472.000000, 8093.000000, 8177.500000
2399, 111154984.000000, 1899.000000, 8230.500000, 8123.500000, 8151.000000
2400, 111155144.000000, 1745.750000, 8158.000000, 8118.500000, 8108.000000
2401, 111155304.000000, 1577.500000, 8237.500000, 8174.000000, 8176.000000
2402, 111155464.000000, 1413.500000, 8249.000000, 8182.500000, 8185.500000
2403, 111155624.000000, 1268.625000, 8253.000000, 8182.000000, 8187.500000
2404, 111155784.000000, 1138.750000, 8275.500000, 8185.000000, 8196.500000
2405, 111155944.000000, 1015.375000, 8302.000000, 8180.500000, 8204.000000
2406, 111156104.000000, 893.125000, 8319.000000, 8182.500000, 8212.000000
2407, 111156264.000000, 776.250000, 8338.500000, 8181.500000, 8217.500000
2408, 111156424.000000, 657.875000, 8328.000000, 8187.500000, 8222.000000
2409, 111156584.000000, 530.250000, 8303.500000, 8199.000000, 8225.000000
2410, 111156744.000000, 390.000000, 8267.500000, 8210.500000, 8225.500000
2411, 111156904.000000, 251.250000, 8230.500000, 8202.500000, 8207.000000
2412, 111157064.000000, 134.375000, 8207.000000, 8197.500000, 8190.500000
2413, 111157224.000000, 55.000000, 8208.000000, 8194.500000, 8185.500000
2414, 111157384.000000, 18.000000, 8219.500000, 8189.500000, 8186.500000
2415, 111157544.000000, 5.750000, 8218.000000, 8191.500000, 8193.500000
2416, 111157704.000000, 1.875000, 8222.000000, 8193.000000, 8197.000000
2417, 111157864.000000, 1.000000, 8233.000000, 8187.000000, 8195.500000
2418, 111158024.000000, 1.000000, 8230.500000, 8191.000000, 8198.000000
2419, 111158184.000000, 1.000000, 8223.000000, 8193.000000, 8196.500000
2420, 111158344.000000, 2.375000, 8239.000000, 8198.000000, 8213.500000
2421, 111158504.000000, 13.125000, 8248.500000, 8198.500000, 8223.000000
2422, 111158664.000000, 38.250000, 8257.500000, 8195.500000, 8217.000000
2423, 111158824.000000, 111.750000, 8246.000000, 8179.000000, 8188.000000
2424, 111158984.000000, 270.500000, 8252.000000, 8175.500000, 8181.500000
2425, 111159144.000000, 499.875000, 8250.500000, 8177.000000, 8186.000000
2426, 111159304.000000, 754.125000, 8244.000000, 8179.500000, 8187.000000
2427, 111159464.000000, 984.125000, 8237.000000, 8211.000000, 8221.000000
2428, 111159624.000000, 1162.875000, 8438.000000, 8134.500000, 8205.500000
2429, 111159784.000000, 1279.500000, 8279.000000, 8131.000000, 8174.000000
2430, 111159944.000000, 1343.875000, 8154.500000, 8124.000000, 8111.000000
2431, 111160104.000000, 1370.125000, 8231.500000, 8191.500000, 8196.000000
2432, 111160264.000000, 1373.625000, 8234.000000, 8205.000000, 8204.000000
2433, 111160424.000000, 1357.750000, 8237.500000, 8211.500000, 8212.000000
2434, 111160584.000000, 1325.250000, 8247.500000, 8212.000000, 8216.000000
2435, 111160744.000000, 1290.250000, 8268.500000, 8213.000000, 8227.000000
2436, 111160904.000000, 1257.500000, 8292.000000, 8215.000000, 8237.500000
2437, 111161064.000000, 1229.750000, 8324.500000, 8206.000000, 8240.500000
2438, 111161224.000000, 1210.375000, 8326.000000, 8209.500000, 8245.000000
2439, 111161384.000000, 1203.000000, 8286.000000, 8225.500000, 8252.000000
2440, 111161544.000000, 1213.250000, 8239.500000, 8234.500000, 8246.000000
2441, 111161704.000000, 1246.625000, 8204.000000, 8231.000000, 8228.500000
2442, 111161864.000000, 1289.625000, 8195.500000, 8219.000000, 8208.000000
2443, 111162024.000000, 1315.375000, 8185.500000, 8213.000000, 8202.000000
2444, 111162184.000000, 1314.125000, 8183.500000, 8219.000000, 8205.500000
2445, 111162344.000000, 1288.875000, 8208.000000, 8216.000000, 8213.000000
2446, 111162504.000000, 1257.625000, 8211.000000, 8217.000000, 8217.500000
2447, 111162664.000000, 1235.875000, 8223.500000, 8206.000000, 8209.000000
2448, 111162824.000000, 1230.125000, 8215.500000, 8206.500000, 8204.500000
2449, 111162984.000000, 1235.250000, 8204.000000, 8204.000000, 8201.500000
2450, 111163144.000000, 1239.000000, 8218.000000, 8216.000000, 8227.500000
2451, 111163304.000000, 1240.250000, 8216.500000, 8219.500000, 8231.500000
2452, 111163464.000000, 1260.500000, 8231.000000, 8212.000000, 8224.000000
2453, 111163624.000000, 1335.500000, 8215.000000, 8196.000000, 8194.500000
2454, 111163784.000000, 1493.125000, 8213.000000, 8186.000000, 8183.500000
2455, 111163944.000000, 1713.625000, 8205.500000, 8188.500000, 8186.000000
2456, 111164104.000000, 1966.625000, 8196.000000, 8196.000000, 8190.000000
2457, 111164264.000000, 2212.375000, 8180.500000, 8242.500000, 8238.500000
2458, 111164424.000000, 2430.250000, 8460.500000, 8109.000000, 8201.000000
2459, 111164584.000000, 2593.375000, 8157.500000, 8126.500000, 8137.500000
2460, 111164744.000000, 2692.000000, 8132.000000, 8141.000000, 8133.500000
2461, 111164904.000000, 2733.375000, 8199.500000, 8199.500000, 8197.000000
2462, 111165064.000000, 2723.375000, 8196.000000, 8205.000000, 8200.000000
2463, 111165224.000000, 2680.250000, 8198.000000, 8209.500000, 8204.500000
2464, 111165384.000000, 2619.875000, 8219.500000, 8206.000000, 8213.000000
2465, 111165544.000000, 2558.000000, 8243.500000, 8203.500000, 8221.000000
2466, 111165704.000000, 2501.375000, 8270.000000, 8202.500000, 8231.500000
2467, 111165864.000000, 2452.750000, 8293.000000, 8199.500000, 8235.000000
2468, 111166024.000000, 2411.125000, 8287.500000, 8209.000000, 8243.000000
2469, 111166184.000000, 2378.750000, 8268.000000, 8218.500000, 8248.000000
2470, 111166344.000000, 2363.875000, 8221.000000, 8226.500000, 8241.000000
2471, 111166504.000000, 2363.375000, 8183.500000, 8218.500000, 8218.000000
2472, 111166664.000000, 2359.375000, 8150.500000, 8213.000000, 8201.000000
2473, 111166824.000000, 2340.750000, 8156.000000, 8207.000000, 8194.500000
2474, 111166984.000000, 2309.000000, 8167.000000, 8201.500000, 8196.500000
2475, 111167144.000000, 2266.750000, 8185.500000, 8204.500000, 8209.500000
2476, 111167304.000000, 2220.750000, 8188.000000, 8205.000000, 8210.000000
2477, 111167464.000000, 2177.000000, 8183.500000, 8201.000000, 8204.500000
2478, 111167624.000000, 2137.250000, 8180.500000, 8196.000000, 8198.500000
2479, 111167784.000000, 2106.750000, 8178.500000, 8201.000000, 8198.500000
2480, 111167944.000000, 2089.875000, 8188.500000, 8204.000000, 8215.500000
2481, 111168104.000000, 2099.625000, 8196.000000, 8209.500000, 8225.000000
2482, 111168264.000000, 2142.875000, 8198.500000, 8203.500000, 8215.000000
2483, 111168424.000000, 2237.375000, 8186.000000, 8188.500000, 8190.500000
2484, 111168584.000000, 2397.250000, 8172.500000, 8184.500000, 8177.000000
2485, 111168744.000000, 2616.125000, 8168.500000, 8187.500000, 8181.000000
2486, 111168904.000000, 2843.750000, 8172.000000, 8192.000000, 8186.000000
2487, 111169064.000000, 3040.500000, 8158.500000, 8220.500000, 8218.500000
2488, 111169224.000000, 3182.500000, 8392.000000, 8132.000000, 8207.500000
2489, 111169384.000000, 3271.875000, 8190.500000, 8123.000000, 8154.000000
2490, 111169544.000000, 3320.000000, 8089.000000, 8128.500000, 8113.000000
2491, 111169704.000000, 3324.250000, 8164.500000, 8187.000000, 8181.000000
2492, 111169864.000000, 3283.375000, 8188.500000, 8190.000000, 8187.000000
2493, 111170024.000000, 3199.000000, 8184.000000, 8194.000000, 8189.000000
2494, 111170184.000000, 3087.125000, 8209.000000, 8189.500000, 8194.000000
2495, 111170344.000000, 2965.375000, 8224.000000, 8192.000000, 8204.500000
2496, 111170504.000000, 2847.625000, 8246.000000, 8186.500000, 8208.500000
2497, 111170664.000000, 2744.625000, 8262.500000, 8188.500000, 8216.500000
2498, 111170824.000000, 2657.125000, 8269.500000, 8190.500000, 8220.500000
2499, 111170984.000000, 2584.750000, 8249.500000, 8205.000000, 8227.500000
2500, 111171144.000000, 2520.625000, 8209.000000, 8217.000000, 8230.500000
2501, 111171304.000000, 2449.625000, 8170.000000, 8213.500000, 8212.000000
2502, 111171464.000000, 2364.625000, 8138.500000, 8206.000000, 8195.500000
2503, 111171624.000000, 2276.125000, 8144.500000, 8196.000000, 8186.500000
2504, 111171784.000000, 2192.000000, 8164.000000, 8194.000000, 8189.500000
2505, 111171944.000000, 2112.000000, 8168.000000, 8199.500000, 8201.500000
2506, 111172104.000000, 2035.250000, 8178.000000, 8196.000000, 8201.000000
2507, 111172264.000000, 1960.250000, 8165.500000, 8195.500000, 8195.000000
2508, 111172424.000000, 1887.625000, 8164.500000, 8196.000000, 8196.000000
2509, 111172584.000000, 1817.875000, 8156.000000, 8192.000000, 8188.000000
2510, 111172744.000000, 1744.375000, 8172.000000, 8188.000000, 8193.000000
2511, 111172904.000000, 1676.375000, 8183.500000, 8203.000000, 8216.500000
2512, 111173064.000000, 1629.125000, 8183.000000, 8196.500000, 8210.500000
2513, 111173224.000000, 1637.375000, 8169.000000, 8184.500000, 8186.000000
2514, 111173384.000000, 1715.625000, 8162.000000, 8176.000000, 8169.500000
2515, 111173544.000000, 1868.750000, 8160.000000, 8178.500000, 8168.500000
2516, 111173704.000000, 2054.250000, 8161.000000, 8174.000000, 8169.500000
2517, 111173864.000000, 2231.250000, 8150.500000, 8184.000000, 8174.500000
2518, 111174024.000000, 2379.125000, 8219.500000, 8207.500000, 8220.000000
2519, 111174184.000000, 2480.750000, 8434.500000, 8078.000000, 8188.500000
2520, 111174344.000000, 2523.250000, 8052.000000, 8118.500000, 8096.500000
2521, 111174504.000000, 2509.875000, 8134.000000, 8163.500000, 8160.500000
2522, 111174664.000000, 2458.250000, 8170.500000, 8183.000000, 8178.000000
2523, 111174824.000000, 2376.500000, 8179.000000, 8184.500000, 8181.000000
2524, 111174984.000000, 2274.375000, 8196.500000, 8182.000000, 8186.000000
2525, 111175144.000000, 2166.375000, 8203.500000, 8184.500000, 8196.000000
2526, 111175304.000000, 2076.250000, 8218.500000, 8184.000000, 8202.500000
2527, 111175464.000000, 2014.125000, 8250.000000, 8178.000000, 8204.500000
2528, 111175624.000000, 1978.625000, 8266.500000, 8176.000000, 8210.500000
2529, 111175784.000000, 1951.125000, 8252.500000, 8188.500000, 8220.500000
2530, 111175944.000000, 1921.250000, 8214.000000, 8204.000000, 8224.500000
2531, 111176104.000000, 1883.375000, 8184.000000, 8203.500000, 8212.000000
2532, 111176264.000000, 1835.500000, 8163.500000, 8195.000000, 8190.500000
2533, 111176424.000000, 1784.500000, 8144.500000, 8189.000000, 8178.500000
2534, 111176584.000000, 1743.625000, 8146.500000, 8190.500000, 8181.500000
2535, 111176744.000000, 1723.500000, 8156.500000, 8192.500000, 8188.000000
2536, 111176904.000000, 1724.375000, 8177.500000, 8188.000000, 8192.000000
2537, 111177064.000000, 1733.500000, 8179.500000, 8182.500000, 8188.000000
2538, 111177224.000000, 1742.250000, 8166.500000, 8188.000000, 8187.000000
2539, 111177384.000000, 1749.500000, 8173.000000, 8184.000000, 8184.500000
2540, 111177544.000000, 1753.875000, 8171.500000, 8180.500000, 8182.500000
2541, 111177704.000000, 1749.500000, 8177.000000, 8193.500000, 8204.500000
2542, 111177864.000000, 1738.750000, 8182.000000, 8189.500000, 8200.500000
2543, 111178024.000000, 1749.750000, 8175.500000, 8180.000000, 8183.000000
2544, 111178184.000000, 1818.875000, 8160.500000, 8165.000000, 8159.500000
2545, 111178344.000000, 1959.250000, 8161.000000, 8161.500000, 8157.000000
2546, 111178504.000000, 2141.500000, 8150.500000, 8163.500000, 8154.000000
2547, 111178664.000000, 2329.250000, 8163.500000, 8161.500000, 8155.000000
2548, 111178824.000000, 2497.000000, 8176.500000, 8209.500000, 8214.000000
2549, 111178984.000000, 2623.250000, 8519.000000, 8030.500000, 8163.500000
2550, 111179144.000000, 2693.750000, 8070.500000, 8126.500000, 8114.000000
2551, 111179304.000000, 2709.125000, 8123.000000, 8127.000000, 8125.000000
2552, 111179464.000000, 2679.500000, 8156.000000, 8161.500000, 8150.000000
2553, 111179624.000000, 2617.875000, 8164.500000, 8159.500000, 8148.500000
2554, 111179784.000000, 2545.625000, 8174.000000, 8162.500000, 8153.000000
2555, 111179944.000000, 2479.375000, 8201.500000, 8160.500000, 8161.000000
2556, 111180104.000000, 2422.625000, 8219.000000, 8155.500000, 8165.500000
2557, 111180264.000000, 2373.500000, 8238.000000, 8151.000000, 8167.000000
2558, 111180424.000000, 2323.500000, 8248.000000, 8148.000000, 8168.000000
2559, 111180584.000000, 2273.125000, 8243.500000, 8153.500000, 8170.000000
2560, 111180744.000000, 2231.250000, 8207.000000, 8160.000000, 8165.000000
2561, 111180904.000000, 2202.375000, 8175.500000, 8154.000000, 8146.500000
2562, 111181064.000000, 2184.375000, 8154.000000, 8128.000000, 8108.000000
2563, 111181224.000000, 2174.750000, 8125.500000, 8113.000000, 8084.000000
2564, 111181384.000000, 2172.875000, 8126.000000, 8102.500000, 8074.000000
2565, 111181544.000000, 2167.125000, 8139.000000, 8099.500000, 8078.500000
2566, 111181704.000000, 2152.125000, 8142.000000, 8106.000000, 8087.000000
2567, 111181864.000000, 2128.500000, 8138.500000, 8101.000000, 8080.000000
2568, 111182024.000000, 2091.625000, 8144.000000, 8106.000000, 8084.500000
2569, 111182184.000000, 2039.625000, 8150.000000, 8108.000000, 8089.000000
2570, 111182344.000000, 1985.500000, 8154.500000, 8110.000000, 8093.500000
2571, 111182504.000000, 1939.375000, 8145.500000, 8115.500000, 8097.500000
2572, 111182664.000000, 1902.500000, 8150.000000, 8125.500000, 8111.000000
2573, 111182824.000000, 1878.250000, 8153.500000, 8140.000000, 8126.500000
2574, 111182984.000000, 1894.750000, 8161.000000, 8135.000000, 8125.500000
2575, 111183144.000000, 1981.875000, 8154.000000, 8127.500000, 8109.500000
2576, 111183304.000000, 2135.625000, 8135.000000, 8130.500000, 8104.000000
2577, 111183464.000000, 2304.625000, 8129.500000, 8130.000000, 8103.500000
2578, 111183624.000000, 2449.875000, 8138.000000, 8133.000000, 8109.500000
2579, 111183784.000000, 2556.125000, 8135.500000, 8164.000000, 8149.500000
2580, 111183944.000000, 2625.250000, 8340.500000, 8088.500000, 8140.500000
2581, 111184104.000000, 2658.375000, 8194.500000, 8100.500000, 8133.000000
2582, 111184264.000000, 2660.250000, 8063.500000, 8088.500000, 8063.000000
2583, 111184424.000000, 2631.750000, 8140.500000, 8136.000000, 8122.000000
2584, 111184584.000000, 2574.250000, 8162.500000, 8145.500000, 8135.000000
2585, 111184744.000000, 2494.375000, 8157.500000, 8152.500000, 8142.000000
2586, 111184904.000000, 2410.000000, 8185.500000, 8155.500000, 8154.500000
2587, 111185064.000000, 2334.500000, 8204.000000, 8153.500000, 8159.500000
2588, 111185224.000000, 2270.250000, 8216.000000, 8155.500000, 8168.500000
2589, 111185384.000000, 2218.500000, 8235.500000, 8161.000000, 8183.000000
2590, 111185544.000000, 2168.500000, 8240.500000, 8163.000000, 8188.500000
2591, 111185704.000000, 2119.125000, 8234.000000, 8174.500000, 8194.500000
2592, 111185864.000000, 2075.125000, 8181.000000, 8187.000000, 8191.500000
2593, 111186024.000000, 2037.625000, 8141.500000, 8181.500000, 8169.500000
2594, 111186184.000000, 1993.125000, 8133.500000, 8167.000000, 8155.500000
2595, 111186344.000000, 1933.375000, 8114.500000, 8176.500000, 8156.000000
2596, 111186504.000000, 1867.875000, 8128.000000, 8165.500000, 8153.000000
2597, 111186664.000000, 1806.000000, 8143.500000, 8163.500000, 8155.500000
2598, 111186824.000000, 1744.625000, 8138.500000, 8163.500000, 8159.000000
2599, 111186984.000000, 1676.500000, 8147.500000, 8161.500000, 8157.500000
2600, 111187144.000000, 1609.750000, 8133.000000, 8167.500000, 8156.500000
2601, 111187304.000000, 1549.250000, 8131.000000, 8165.500000, 8155.000000
2602, 111187464.000000, 1501.000000, 8141.000000, 8161.500000, 8153.500000
2603, 111187624.000000, 1465.500000, 8142.500000, 8167.500000, 8162.000000
2604, 111187784.000000, 1439.125000, 8152.500000, 8174.000000, 8179.500000
2605, 111187944.000000, 1435.375000, 8160.500000, 8175.500000, 8183.500000
2606, 111188104.000000, 1493.375000, 8147.500000, 8161.500000, 8160.000000
2607, 111188264.000000, 1629.250000, 8145.000000, 8154.000000, 8141.000000
2608, 111188424.000000, 1811.000000, 8141.500000, 8164.000000, 8145.500000
2609, 111188584.000000, 1980.375000, 8143.500000, 8158.000000, 8146.000000
2610, 111188744.000000, 2123.000000, 8151.500000, 8160.500000, 8156.500000
2611, 111188904.000000, 2231.125000, 8234.000000, 8180.000000, 8198.000000
2612, 111189064.000000, 2296.375000, 8400.500000, 8075.000000, 8183.000000
2613, 111189224.000000, 2306.500000, 8036.500000, 8117.500000, 8084.000000
2614, 111189384.000000, 2278.875000, 8133.500000, 8157.000000, 8147.000000
2615, 111189544.000000, 2233.125000, 8152.000000, 8174.500000, 8161.000000
2616, 111189704.000000, 2183.500000, 8159.000000, 8176.500000, 8167.500000
2617, 111189864.000000, 2136.375000, 8179.000000, 8170.000000, 8167.500000
2618, 111190024.000000, 2097.625000, 8203.500000, 8154.500000, 8162.000000
2619, 111190184.000000, 2074.625000, 8213.500000, 8140.500000, 8155.500000
2620, 111190344.000000, 2053.750000, 8231.500000, 8080.500000, 8103.000000
2621, 111190504.000000, 2025.250000, 8249.500000, 8059.500000, 8086.000000
2622, 111190664.000000, 1983.750000, 8241.500000, 8054.500000, 8078.500000
2623, 111190824.000000, 1939.375000, 8222.500000, 8055.500000, 8073.500000
2624, 111190984.000000, 1899.125000, 8182.500000, 8063.000000, 8068.500000
2625, 111191144.000000, 1863.250000, 8149.500000, 8076.500000, 8066.500000
2626, 111191304.000000, 1825.750000, 8124.000000, 8084.000000, 8064.000000
2627, 111191464.000000, 1777.500000, 8145.000000, 8084.500000, 8070.500000
2628, 111191624.000000, 1722.875000, 8142.000000, 8092.500000, 8077.500000
2629, 111191784.000000, 1657.500000, 8158.000000, 8096.500000, 8086.000000
2630, 111191944.000000, 1584.250000, 8175.000000, 8090.000000, 8094.500000
2631, 111192104.000000, 1508.250000, 8164.000000, 8099.000000, 8095.500000
2632, 111192264.000000, 1435.500000, 8156.500000, 8104.500000, 8096.000000
2633, 111192424.000000, 1365.500000, 8158.000000, 8104.500000, 8097.000000
2634, 111192584.000000, 1296.750000, 8171.000000, 8108.500000, 8103.000000
2635, 111192744.000000, 1236.875000, 8179.000000, 8124.500000, 8139.000000
2636, 111192904.000000, 1205.000000, 8184.500000, 8122.000000, 8136.000000
2637, 111193064.000000, 1227.125000, 8167.500000, 8121.000000, 8122.500000
2638, 111193224.000000, 1324.750000, 8119.000000, 8128.000000, 8103.500000
2639, 111193384.000000, 1476.500000, 8117.000000, 8137.500000, 8110.000000
2640, 111193544.000000, 1649.500000, 8151.000000, 8129.000000, 8120.000000
2641, 111193704.000000, 1810.500000, 8174.500000, 8131.500000, 8135.500000
2642, 111193864.000000, 1942.500000, 8210.500000, 8173.500000, 8189.500000
2643, 111194024.000000, 2039.000000, 8519.500000, 8013.500000, 8161.000000
2644, 111194184.000000, 2097.375000, 8077.000000, 8099.500000, 8090.000000
2645, 111194344.000000, 2114.625000, 8151.000000, 8124.500000, 8138.000000
2646, 111194504.000000, 2095.875000, 8187.500000, 8150.000000, 8156.000000
2647, 111194664.000000, 2043.750000, 8213.500000, 8150.500000, 8165.500000
2648, 111194824.000000, 1966.750000, 8208.000000, 8156.500000, 8170.000000
2649, 111194984.000000, 1877.250000, 8221.500000, 8162.500000, 8185.000000
2650, 111195144.000000, 1779.000000, 8241.500000, 8165.000000, 8197.000000
2651, 111195304.000000, 1683.125000, 8257.500000, 8173.000000, 8208.500000
2652, 111195464.000000, 1617.625000, 8268.500000, 8173.000000, 8214.000000
2653, 111195624.000000, 1613.875000, 8274.000000, 8172.000000, 8217.500000
2654, 111195784.000000, 1674.625000, 8245.500000, 8184.000000, 8221.500000
2655, 111195944.000000, 1777.500000, 8198.000000, 8195.000000, 8218.000000
2656, 111196104.000000, 1884.750000, 8172.500000, 8190.500000, 8200.500000
2657, 111196264.000000, 1964.000000, 8158.500000, 8185.000000, 8188.500000
2658, 111196424.000000, 1996.625000, 8159.000000, 8180.500000, 8187.500000
2659, 111196584.000000, 1970.125000, 8164.500000, 8184.000000, 8192.500000
2660, 111196744.000000, 1894.875000, 8178.000000, 8185.000000, 8199.500000
2661, 111196904.000000, 1789.500000, 8179.500000, 8192.000000, 8200.500000
2662, 111197064.000000, 1675.500000, 8188.500000, 8194.000000, 8197.500000
2663, 111197224.000000, 1572.875000, 8191.000000, 8190.500000, 8197.000000
2664, 111197384.000000, 1496.000000, 8184.500000, 8186.000000, 8195.000000
2665, 111197544.000000, 1444.375000, 8170.500000, 8191.000000, 8198.000000
2666, 111197704.000000, 1410.750000, 8187.000000, 8198.500000, 8221.500000
2667, 111197864.000000, 1391.500000, 8187.000000, 8198.000000, 8216.500000
2668, 111198024.000000, 1403.375000, 8181.000000, 8185.000000, 8194.500000
2669, 111198184.000000, 1471.375000, 8174.000000, 8176.500000, 8178.500000
2670, 111198344.000000, 1606.000000, 8169.500000, 8178.000000, 8181.000000
2671, 111198504.000000, 1768.000000, 8161.000000, 8183.500000, 8180.000000
2672, 111198664.000000, 1911.500000, 8180.500000, 8183.000000, 8182.500000
2673, 111198824.000000, 1998.625000, 8216.000000, 8216.500000, 8234.500000
2674, 111198984.000000, 2038.750000, 8494.500000, 8081.500000, 8214.500000
2675, 111199144.000000, 2045.375000, 8067.000000, 8148.000000, 8138.000000
2676, 111199304.000000, 2030.250000, 8156.500000, 8170.000000, 8179.500000
2677, 111199464.000000, 1985.000000, 8185.500000, 8187.500000, 8190.000000
2678, 111199624.000000, 1907.375000, 8193.000000, 8187.500000, 8192.000000
2679, 111199784.000000, 1810.000000, 8208.500000, 8184.000000, 8198.000000
2680, 111199944.000000, 1720.250000, 8213.000000, 8182.500000, 8203.500000
2681, 111200104.000000, 1658.750000, 8227.500000, 8189.000000, 8213.500000
2682, 111200264.000000, 1625.875000, 8231.500000, 8186.500000, 8214.000000
2683, 111200424.000000, 1605.000000, 8273.500000, 8182.500000, 8221.000000
2684, 111200584.000000, 1586.250000, 8267.500000, 8186.000000, 8222.500000
2685, 111200744.000000, 1572.875000, 8223.000000, 8196.500000, 8217.000000
2686, 111200904.000000, 1567.125000, 8174.500000, 8206.000000, 8207.000000
2687, 111201064.000000, 1568.625000, 8155.500000, 8198.500000, 8185.500000
2688, 111201224.000000, 1575.625000, 8134.000000, 8195.000000, 8174.500000
2689, 111201384.000000, 1592.625000, 8152.500000, 8184.500000, 8166.500000
2690, 111201544.000000, 1621.000000, 8150.500000, 8187.500000, 8173.000000
2691, 111201704.000000, 1664.875000, 8160.500000, 8190.000000, 8178.000000
2692, 111201864.000000, 1706.500000, 8137.500000, 8191.500000, 8171.500000
2693, 111202024.000000, 1726.250000, 8135.000000, 8190.000000, 8167.500000
2694, 111202184.000000, 1709.250000, 8143.500000, 8182.000000, 8163.000000
2695, 111202344.000000, 1671.625000, 8137.500000, 8183.000000, 8162.000000
2696, 111202504.000000, 1640.250000, 8136.000000, 8179.000000, 8165.000000
2697, 111202664.000000, 1633.000000, 8136.000000, 8183.500000, 8170.500000
2698, 111202824.000000, 1642.625000, 8149.500000, 8182.000000, 8170.000000
2699, 111202984.000000, 1695.000000, 8135.500000, 8169.000000, 8144.500000
2700, 111203144.000000, 1820.000000, 8142.500000, 8160.500000, 8131.000000
2701, 111203304.000000, 2016.750000, 8148.000000, 8156.000000, 8131.000000
2702, 111203464.000000, 2231.250000, 8129.000000, 8161.500000, 8128.000000
2703, 111203624.000000, 2418.625000, 8136.500000, 8169.500000, 8146.000000
2704, 111203784.000000, 2556.875000, 8245.000000, 8168.000000, 8170.500000
2705, 111203944.000000, 2629.250000, 8306.500000, 8099.500000, 8170.000000
2706, 111204104.000000, 2649.250000, 8035.500000, 8114.000000, 8068.000000
2707, 111204264.000000, 2624.875000, 8115.500000, 8152.000000, 8121.500000
2708, 111204424.000000, 2580.000000, 8110.000000, 8161.000000, 8129.000000
2709, 111204584.000000, 2506.500000, 8127.000000, 8162.000000, 8135.000000
2710, 111204744.000000, 2404.500000, 8159.000000, 8153.000000, 8137.500000
2711, 111204904.000000, 2283.750000, 8167.500000, 8162.000000, 8152.000000
2712, 111205064.000000, 2197.125000, 8190.500000, 8155.000000, 8159.000000
2713, 111205224.000000, 2142.250000, 8194.500000, 8159.000000, 8164.500000
2714, 111205384.000000, 2070.000000, 8218.500000, 8156.500000, 8178.000000
2715, 111205544.000000, 1994.125000, 8202.500000, 8161.000000, 8183.000000
2716, 111205704.000000, 1949.000000, 8178.000000, 8167.500000, 8183.000000
2717, 111205864.000000, 1904.500000, 8149.500000, 8168.000000, 8169.500000
2718, 111206024.000000, 1843.500000, 8107.000000, 8169.500000, 8153.000000
2719, 111206184.000000, 1771.250000, 8112.500000, 8159.500000, 8144.000000
2720, 111206344.000000, 1700.750000, 8111.000000, 8162.500000, 8151.000000
2721, 111206504.000000, 1638.000000, 8112.500000, 8170.000000, 8159.500000
2722, 111206664.000000, 1581.375000, 8119.000000, 8170.000000, 8161.000000
2723, 111206824.000000, 1531.750000, 8117.000000, 8171.500000, 8166.000000
2724, 111206984.000000, 1474.125000, 8104.500000, 8186.000000, 8175.000000
2725, 111207144.000000, 1408.500000, 8107.500000, 8181.500000, 8167.500000
2726, 111207304.000000, 1341.250000, 8162.500000, 8231.000000, 8290.000000
2727, 111207464.000000, 1294.250000, 8206.500000, 8265.500000, 8387.000000
2728, 111207624.000000, 1284.500000, 8208.000000, 8266.000000, 8373.000000
2729, 111207784.000000, 1344.750000, 8185.000000, 8254.500000, 8340.000000
2730, 111207944.000000, 1479.125000, 8170.000000, 8249.000000, 8318.000000
2731, 111208104.000000, 1674.250000, 8165.000000, 8240.000000, 8303.000000
2732, 111208264.000000, 1869.625000, 8154.500000, 8234.500000, 8286.500000
2733, 111208424.000000, 2016.125000, 8163.000000, 8237.000000, 8284.500000
2734, 111208584.000000, 2085.000000, 8201.500000, 8276.500000, 8334.500000
2735, 111208744.000000, 2082.500000, 8459.500000, 8153.000000, 8322.500000
2736, 111208904.000000, 2028.000000, 8044.500000, 8226.500000, 8250.500000
2737, 111209064.000000, 1944.750000, 8116.000000, 8239.000000, 8275.500000
2738, 111209224.000000, 1862.625000, 8131.500000, 8259.500000, 8283.000000
2739, 111209384.000000, 1804.500000, 8135.500000, 8274.000000, 8296.500000
2740, 111209544.000000, 1763.500000, 8140.500000, 8277.500000, 8306.500000
2741, 111209704.000000, 1735.125000, 8186.000000, 8267.000000, 8313.000000
2742, 111209864.000000, 1724.500000, 8185.500000, 8275.000000, 8320.500000
2743, 111210024.000000, 1750.250000, 8198.500000, 8277.000000, 8327.500000
2744, 111210184.000000, 1808.375000, 8218.000000, 8275.500000, 8336.500000
2745, 111210344.000000, 1868.500000, 8206.500000, 8273.500000, 8329.500000
2746, 111210504.000000, 1908.375000, 8181.500000, 8266.500000, 8313.500000
2747, 111210664.000000, 1930.375000, 8135.000000, 8271.000000, 8300.000000
2748, 111210824.000000, 1945.625000, 8103.000000, 8269.000000, 8284.000000
2749, 111210984.000000, 1954.250000, 8096.000000, 8266.500000, 8274.500000
2750, 111211144.000000, 1945.875000, 8096.000000, 8272.500000, 8279.500000
2751, 111211304.000000, 1916.250000, 8128.000000, 8265.500000, 8283.500000
2752, 111211464.000000, 1877.875000, 8112.500000, 8267.000000, 8286.000000
2753, 111211624.000000, 1834.750000, 8081.000000, 8269.000000, 8280.000000
2754, 111211784.000000, 1788.875000, 8109.500000, 8260.000000, 8277.000000
2755, 111211944.000000, 1749.250000, 8108.000000, 8267.000000, 8278.000000
2756, 111212104.000000, 1725.250000, 8128.000000, 8260.000000, 8276.500000
2757, 111212264.000000, 1714.750000, 8112.000000, 8252.500000, 8276.500000
2758, 111212424.000000, 1722.500000, 8135.500000, 8244.000000, 8280.000000
2759, 111212584.000000, 1779.750000, 8140.500000, 8242.500000, 8270.000000
2760, 111212744.000000, 1920.875000, 8144.500000, 8219.500000, 8239.000000
2761, 111212904.000000, 2139.000000, 8143.000000, 8199.000000, 8218.500000
2762, 111213064.000000, 2380.125000, 8150.000000, 8175.000000, 8201.000000
2763, 111213224.000000, 2585.000000, 8133.500000, 8160.000000, 8181.000000
2764, 111213384.000000, 2719.250000, 8146.500000, 8156.000000, 8185.500000
2765, 111213544.000000, 2780.125000, 8263.000000, 8134.000000, 8187.500000
2766, 111213704.000000, 2789.000000, 8272.500000, 8100.500000, 8189.000000
2767, 111213864.000000, 2753.250000, 8039.500000, 8093.500000, 8073.000000
2768, 111214024.000000, 2675.875000, 8132.000000, 8126.000000, 8130.000000
2769, 111214184.000000, 2557.250000, 8154.000000, 8129.500000, 8141.000000
2770, 111214344.000000, 2410.250000, 8172.000000, 8125.000000, 8148.500000
2771, 111214504.000000, 2261.000000, 8179.000000, 8127.000000, 8154.500000
2772, 111214664.000000, 2149.000000, 8201.500000, 8147.000000, 8161.500000
2773, 111214824.000000, 2078.375000, 8233.500000, 8140.500000, 8166.500000
2774, 111214984.000000, 2009.875000, 8240.500000, 8137.500000, 8180.000000
2775, 111215144.000000, 1918.375000, 8264.500000, 8136.500000, 8192.000000
2776, 111215304.000000, 1816.000000, 8255.000000, 8142.500000, 8190.500000
2777, 111215464.000000, 1714.375000, 8212.500000, 8172.500000, 8193.000000
2778, 111215624.000000, 1611.625000, 8166.000000, 8188.500000, 8188.500000
2779, 111215784.000000, 1505.000000, 8168.500000, 8184.000000, 8180.000000
2780, 111215944.000000, 1431.000000, 8173.000000, 8170.500000, 8175.000000
2781, 111216104.000000, 1404.500000, 8151.000000, 8171.500000, 8172.500000
2782, 111216264.000000, 1395.750000, 8158.500000, 8183.500000, 8182.500000
2783, 111216424.000000, 1394.250000, 8184.000000, 8192.500000, 8188.500000
2784, 111216584.000000, 1410.875000, 8198.500000, 8184.500000, 8183.000000
2785, 111216744.000000, 1455.125000, 8206.000000, 8181.000000, 8188.000000
2786, 111216904.000000, 1510.625000, 8180.000000, 8182.000000, 8181.000000
2787, 111217064.000000, 1561.250000, 8175.000000, 8180.500000, 8174.500000
2788, 111217224.000000, 1606.375000, 8180.500000, 8194.500000, 8195.000000
2789, 111217384.000000, 1663.125000, 8201.500000, 8198.000000, 8203.500000
2790, 111217544.000000, 1777.375000, 8215.000000, 8204.000000, 8202.500000
2791, 111217704.000000, 1980.875000, 8202.000000, 8191.000000, 8180.000000
2792, 111217864.000000, 2249.750000, 8183.500000, 8190.000000, 8170.000000
2793, 111218024.000000, 2509.000000, 8177.000000, 8180.000000, 8173.000000
2794, 111218184.000000, 2711.625000, 8181.000000, 8181.000000, 8175.000000
2795, 111218344.000000, 2848.375000, 8185.500000, 8228.000000, 8221.000000
2796, 111218504.000000, 2933.375000, 8393.500000, 8164.000000, 8220.000000
2797, 111218664.000000, 2954.875000, 8226.500000, 8182.000000, 8218.000000
2798, 111218824.000000, 2898.250000, 8131.000000, 8152.500000, 8147.000000
2799, 111218984.000000, 2787.750000, 8202.500000, 8175.500000, 8182.500000
2800, 111219144.000000, 2659.500000, 8215.000000, 8188.500000, 8191.000000
2801, 111219304.000000, 2531.750000, 8225.000000, 8197.000000, 8198.000000
2802, 111219464.000000, 2406.750000, 8235.000000, 8182.000000, 8187.000000
2803, 111219624.000000, 2284.000000, 8235.000000, 8173.500000, 8191.000000
2804, 111219784.000000, 2175.125000, 8254.500000, 8182.000000, 8197.500000
2805, 111219944.000000, 2081.500000, 8286.000000, 8188.000000, 8203.500000
2806, 111220104.000000, 2002.500000, 8314.000000, 8194.000000, 8208.500000
2807, 111220264.000000, 1930.875000, 8288.000000, 8186.000000, 8195.000000
2808, 111220424.000000, 1857.000000, 8216.000000, 8193.000000, 8185.500000
2809, 111220584.000000, 1780.875000, 8188.000000, 8190.000000, 8168.500000
2810, 111220744.000000, 1713.125000, 8176.500000, 8190.000000, 8155.000000
2811, 111220904.000000, 1658.250000, 8177.000000, 8187.000000, 8143.000000
2812, 111221064.000000, 1597.875000, 8184.500000, 8182.500000, 8138.000000
2813, 111221224.000000, 1538.500000, 8184.000000, 8188.000000, 8140.000000
2814, 111221384.000000, 1504.375000, 8187.000000, 8186.000000, 8139.000000
2815, 111221544.000000, 1501.500000, 8190.500000, 8192.500000, 8141.500000
2816, 111221704.000000, 1516.625000, 8195.500000, 8186.000000, 8143.000000
2817, 111221864.000000, 1526.875000, 8166.500000, 8188.500000, 8138.000000
2818, 111222024.000000, 1532.750000, 8174.000000, 8181.500000, 8134.000000
2819, 111222184.000000, 1558.625000, 8204.500000, 8191.500000, 8164.000000
2820, 111222344.000000, 1652.000000, 8210.000000, 8203.500000, 8169.000000
2821, 111222504.000000, 1848.250000, 8190.000000, 8202.000000, 8156.000000
2822, 111222664.000000, 2131.125000, 8155.000000, 8177.500000, 8133.500000
2823, 111222824.000000, 2421.250000, 8156.500000, 8164.000000, 8129.500000
2824, 111222984.000000, 2644.000000, 8173.000000, 8161.000000, 8134.000000
2825, 111223144.000000, 2774.000000, 8170.000000, 8162.000000, 8141.000000
2826, 111223304.000000, 2850.875000, 8149.000000, 8206.500000, 8187.500000
2827, 111223464.000000, 2904.875000, 8374.000000, 8115.000000, 8167.500000
2828, 111223624.000000, 2929.375000, 8154.500000, 8154.000000, 8161.000000
2829, 111223784.000000, 2891.875000, 8077.000000, 8124.500000, 8086.000000
2830, 111223944.000000, 2779.750000, 8139.500000, 8172.000000, 8145.500000
2831, 111224104.000000, 2626.625000, 8163.500000, 8175.000000, 8150.000000
2832, 111224264.000000, 2482.000000, 8151.500000, 8182.500000, 8150.500000
2833, 111224424.000000, 2337.500000, 8152.500000, 8189.000000, 8155.000000
2834, 111224584.000000, 2187.250000, 8157.500000, 8187.000000, 8160.000000
2835, 111224744.000000, 2070.500000, 8179.500000, 8189.000000, 8171.000000
2836, 111224904.000000, 2020.375000, 8201.500000, 8190.500000, 8183.500000
2837, 111225064.000000, 2007.375000, 8189.000000, 8198.000000, 8192.000000
2838, 111225224.000000, 1934.125000, 8126.500000, 8220.500000, 8195.000000
2839, 111225384.000000, 1746.750000, 8048.500000, 8250.000000, 8198.000000
2840, 111225544.000000, 1468.250000, 7995.500000, 8252.000000, 8187.000000
2841, 111225704.000000, 1183.500000, 7956.000000, 8256.500000, 8175.500000
2842, 111225864.000000, 931.625000, 7942.000000, 8257.000000, 8175.500000
2843, 111226024.000000, 677.750000, 7942.500000, 8261.500000, 8182.500000
2844, 111226184.000000, 377.000000, 7976.500000, 8264.500000, 8198.000000
2845, 111226344.000000, 97.625000, 7990.000000, 8265.500000, 8208.500000
2846, 111226504.000000, 16.875000, 8006.500000, 8267.000000, 8216.500000
2847, 111226664.000000, 3.750000, 8021.000000, 8269.000000, 8225.500000
2848, 111226824.000000, 1.000000, 8016.500000, 8274.500000, 8227.500000
2849, 111226984.000000, 9.000000, 8016.500000, 8281.500000, 8254.000000
2850, 111227144.000000, 39.000000, 8043.000000, 8281.500000, 8261.500000
2851, 111227304.000000, 79.625000, 8052.500000, 8267.000000, 8254.500000
2852, 111227464.000000, 128.000000, 8049.000000, 8251.000000, 8231.000000
2853, 111227624.000000, 196.625000, 8058.000000, 8250.000000, 8234.000000
2854, 111227784.000000, 298.750000, 8046.500000, 8256.000000, 8240.500000
2855, 111227944.000000, 414.750000, 8052.500000, 8264.500000, 8254.000000
2856, 111228104.000000, 523.500000, 8048.000000, 8310.000000, 8313.000000
2857, 111228264.000000, 600.625000, 8381.500000, 8139.500000, 8253.000000
2858, 111228424.000000, 647.375000, 7978.000000, 8239.500000, 8229.000000
2859, 111228584.000000, 663.625000, 7980.500000, 8248.000000, 8228.500000
2860, 111228744.000000, 641.375000, 8027.000000, 8296.500000, 8279.500000
2861, 111228904.000000, 577.000000, 8026.000000, 8297.500000, 8277.500000
2862, 111229064.000000, 486.500000, 8040.000000, 8278.000000, 8263.000000
2863, 111229224.000000, 411.875000, 8038.500000, 8276.500000, 8260.500000
2864, 111229384.000000, 387.625000, 8038.000000, 8282.000000, 8265.000000
2865, 111229544.000000, 415.875000, 8060.500000, 8287.500000, 8278.000000
2866, 111229704.000000, 476.125000, 8083.500000, 8299.000000, 8295.000000
2867, 111229864.000000, 532.500000, 8072.000000, 8301.500000, 8294.000000
2868, 111230024.000000, 572.375000, 8042.000000, 8307.000000, 8282.500000
2869, 111230184.000000, 594.375000, 8014.500000, 8312.500000, 8267.500000
2870, 111230344.000000, 617.500000, 8010.000000, 8307.000000, 8239.000000
2871, 111230504.000000, 654.875000, 8021.000000, 8284.000000, 8207.500000
2872, 111230664.000000, 712.625000, 8020.000000, 8279.500000, 8205.000000
2873, 111230824.000000, 791.875000, 8039.000000, 8277.500000, 8214.000000
2874, 111230984.000000, 881.500000, 8040.500000, 8277.500000, 8220.000000
2875, 111231144.000000, 964.750000, 8076.000000, 8279.500000, 8228.500000
2876, 111231304.000000, 1028.375000, 8110.000000, 8284.500000, 8231.000000
2877, 111231464.000000, 1073.000000, 8134.000000, 8280.500000, 8235.000000
2878, 111231624.000000, 1111.000000, 8141.000000, 8280.000000, 8243.500000
2879, 111231784.000000, 1156.750000, 8151.500000, 8285.500000, 8271.000000
2880, 111231944.000000, 1221.250000, 8160.500000, 8296.500000, 8290.500000
2881, 111232104.000000, 1327.500000, 8169.000000, 8295.500000, 8291.500000
2882, 111232264.000000, 1490.500000, 8157.500000, 8299.500000, 8290.000000
2883, 111232424.000000, 1716.000000, 8156.500000, 8302.000000, 8295.000000
2884, 111232584.000000, 1962.000000, 8164.000000, 8320.500000, 8314.000000
2885, 111232744.000000, 2194.625000, 8169.000000, 8321.500000, 8315.500000
2886, 111232904.000000, 2392.500000, 8185.500000, 8342.000000, 8348.500000
2887, 111233064.000000, 2547.375000, 8393.500000, 8252.000000, 8323.000000
2888, 111233224.000000, 2666.750000, 8282.500000, 8242.000000, 8302.500000
2889, 111233384.000000, 2748.875000, 8130.000000, 8238.000000, 8231.000000
2890, 111233544.000000, 2791.625000, 8222.000000, 8289.000000, 8291.000000
2891, 111233704.000000, 2789.625000, 8301.000000, 8328.000000, 8406.500000
2892, 111233864.000000, 2759.000000, 8305.000000, 8345.500000, 8441.000000
2893, 111234024.000000, 2719.625000, 8308.500000, 8353.500000, 8448.000000
2894, 111234184.000000, 2691.125000, 8322.500000, 8348.000000, 8438.000000
2895, 111234344.000000, 2676.875000, 8329.500000, 8320.000000, 8414.000000
2896, 111234504.000000, 2667.250000, 8350.000000, 8308.500000, 8402.000000
2897, 111234664.000000, 2649.375000, 8355.000000, 8303.500000, 8396.500000
2898, 111234824.000000, 2619.125000, 8311.000000, 8306.500000, 8380.500000
2899, 111234984.000000, 2576.125000, 8206.000000, 8327.500000, 8362.500000
2900, 111235144.000000, 2527.375000, 8177.000000, 8311.500000, 8326.500000
2901, 111235304.000000, 2477.750000, 8132.000000, 8308.000000, 8305.500000
2902, 111235464.000000, 2432.875000, 8101.000000, 8316.000000, 8293.000000
2903, 111235624.000000, 2388.750000, 8097.500000, 8305.500000, 8280.000000
2904, 111235784.000000, 2342.750000, 8102.000000, 8310.500000, 8280.500000
2905, 111235944.000000, 2299.375000, 8102.500000, 8303.500000, 8271.000000
2906, 111236104.000000, 2262.500000, 8103.000000, 8294.500000, 8264.500000
2907, 111236264.000000, 2235.375000, 8080.000000, 8290.000000, 8244.500000
2908, 111236424.000000, 2221.875000, 8073.000000, 8290.500000, 8236.500000
2909, 111236584.000000, 2219.750000, 8055.500000, 8287.500000, 8221.000000
2910, 111236744.000000, 2199.375000, 8077.500000, 8270.500000, 8214.500000
2911, 111236904.000000, 2163.875000, 8107.500000, 8256.500000, 8212.500000
2912, 111237064.000000, 2152.750000, 8128.000000, 8240.500000, 8192.000000
2913, 111237224.000000, 2217.375000, 8117.500000, 8221.500000, 8158.000000
2914, 111237384.000000, 2337.000000, 8122.500000, 8204.500000, 8137.500000
2915, 111237544.000000, 2475.750000, 8125.500000, 8197.000000, 8136.000000
2916, 111237704.000000, 2602.875000, 8125.000000, 8192.000000, 8131.500000
2917, 111237864.000000, 2708.500000, 8133.500000, 8188.000000, 8128.500000
2918, 111238024.000000, 2770.375000, 8214.500000, 8207.500000, 8177.500000
2919, 111238184.000000, 2776.000000, 8447.500000, 8067.500000, 8146.000000
2920, 111238344.000000, 2731.375000, 8052.000000, 8124.500000, 8055.500000
2921, 111238504.000000, 2645.000000, 8151.500000, 8175.000000, 8127.000000
2922, 111238664.000000, 2542.750000, 8163.500000, 8185.000000, 8132.500000
2923, 111238824.000000, 2442.875000, 8176.000000, 8183.000000, 8138.000000
2924, 111238984.000000, 2361.500000, 8194.500000, 8181.500000, 8142.500000
2925, 111239144.000000, 2297.000000, 8218.500000, 8181.000000, 8148.000000
2926, 111239304.000000, 2242.875000, 8250.500000, 8169.500000, 8146.000000
2927, 111239464.000000, 2207.750000, 8278.000000, 8154.500000, 8140.500000
2928, 111239624.000000, 2199.375000, 8292.500000, 8156.000000, 8154.000000
2929, 111239784.000000, 2211.375000, 8250.500000, 8166.500000, 8155.500000
2930, 111239944.000000, 2221.875000, 8212.500000, 8180.000000, 8155.000000
2931, 111240104.000000, 2212.000000, 8154.500000, 8192.000000, 8142.500000
2932, 111240264.000000, 2179.750000, 8150.500000, 8180.500000, 8127.000000
2933, 111240424.000000, 2131.500000, 8149.500000, 8176.500000, 8114.500000
2934, 111240584.000000, 2085.000000, 8153.500000, 8175.000000, 8117.500000
2935, 111240744.000000, 2046.625000, 8156.000000, 8175.500000, 8120.500000
2936, 111240904.000000, 2011.125000, 8163.500000, 8164.500000, 8117.500000
2937, 111241064.000000, 1970.375000, 8178.500000, 8144.500000, 8099.000000
2938, 111241224.000000, 1920.875000, 8182.500000, 8127.000000, 8081.000000
2939, 111241384.000000, 1861.250000, 8184.000000, 8123.000000, 8078.000000
2940, 111241544.000000, 1813.000000, 8204.000000, 8106.000000, 8076.000000
2941, 111241704.000000, 1778.500000, 8195.000000, 8108.000000, 8077.000000
2942, 111241864.000000, 1750.000000, 8207.000000, 8101.500000, 8071.000000
2943, 111242024.000000, 1742.750000, 8213.500000, 8113.500000, 8084.500000
2944, 111242184.000000, 1792.875000, 8233.500000, 8130.500000, 8119.500000
2945, 111242344.000000, 1915.875000, 8242.000000, 8145.000000, 8135.500000
2946, 111242504.000000, 2071.625000, 8228.500000, 8135.000000, 8118.000000
2947, 111242664.000000, 2214.500000, 8217.000000, 8131.500000, 8110.500000
2948, 111242824.000000, 2324.375000, 8206.500000, 8137.000000, 8115.000000
2949, 111242984.000000, 2401.625000, 8212.000000, 8142.500000, 8124.000000
2950, 111243144.000000, 2444.125000, 8216.000000, 8149.000000, 8132.500000
2951, 111243304.000000, 2451.875000, 8258.500000, 8192.500000, 8190.000000
2952, 111243464.000000, 2415.750000, 8524.500000, 8041.500000, 8160.000000
2953, 111243624.000000, 2339.750000, 8110.000000, 8109.500000, 8074.500000
2954, 111243784.000000, 2257.750000, 8201.000000, 8145.000000, 8131.500000
2955, 111243944.000000, 2206.875000, 8222.500000, 8174.500000, 8153.000000
2956, 111244104.000000, 2200.875000, 8239.500000, 8178.000000, 8157.000000
2957, 111244264.000000, 2225.500000, 8236.000000, 8180.500000, 8158.000000
2958, 111244424.000000, 2250.750000, 8245.000000, 8187.500000, 8169.000000
2959, 111244584.000000, 2259.000000, 8274.000000, 8186.000000, 8175.000000
2960, 111244744.000000, 2250.375000, 8316.500000, 8187.000000, 8189.000000
2961, 111244904.000000, 2237.500000, 8359.500000, 8179.500000, 8192.000000
2962, 111245064.000000, 2224.875000, 8347.500000, 8172.000000, 8194.500000
2963, 111245224.000000, 2195.000000, 8294.000000, 8180.500000, 8193.500000
2964, 111245384.000000, 2139.625000, 8232.000000, 8187.000000, 8182.000000
2965, 111245544.000000, 2071.125000, 8189.500000, 8182.500000, 8163.000000
2966, 111245704.000000, 2010.500000, 8174.000000, 8180.000000, 8150.500000
2967, 111245864.000000, 1959.875000, 8171.000000, 8171.500000, 8145.000000
2968, 111246024.000000, 1908.500000, 8172.500000, 8168.500000, 8144.000000
2969, 111246184.000000, 1859.125000, 8173.000000, 8168.500000, 8151.500000
2970, 111246344.000000, 1816.250000, 8173.500000, 8168.500000, 8154.500000
2971, 111246504.000000, 1784.125000, 8168.000000, 8166.500000, 8157.500000
2972, 111246664.000000, 1759.000000, 8173.000000, 8161.500000, 8152.000000
2973, 111246824.000000, 1743.500000, 8179.500000, 8158.000000, 8147.000000
2974, 111246984.000000, 1733.500000, 8199.500000, 8149.500000, 8147.500000
2975, 111247144.000000, 1722.500000, 8207.500000, 8149.500000, 8149.000000
2976, 111247304.000000, 1720.875000, 8217.500000, 8142.000000, 8148.000000
2977, 111247464.000000, 1763.500000, 8231.000000, 8151.500000, 8171.500000
2978, 111247624.000000, 1859.375000, 8244.000000, 8147.000000, 8168.500000
2979, 111247784.000000, 1995.250000, 8249.500000, 8138.500000, 8157.500000
2980, 111247944.000000, 2133.375000, 8236.000000, 8127.000000, 8135.000000
2981, 111248104.000000, 2248.375000, 8239.500000, 8126.000000, 8130.500000
2982, 111248264.000000, 2314.125000, 8247.000000, 8121.500000, 8127.000000
2983, 111248424.000000, 2308.000000, 8253.500000, 8118.000000, 8127.000000
2984, 111248584.000000, 2234.750000, 8256.000000, 8191.500000, 8233.500000
2985, 111248744.000000, 2119.750000, 8594.500000, 8007.000000, 8154.500000
2986, 111248904.000000, 1986.625000, 8184.500000, 8087.000000, 8106.000000
2987, 111249064.000000, 1834.000000, 8189.000000, 8086.000000, 8085.500000
2988, 111249224.000000, 1677.750000, 8248.500000, 8139.000000, 8146.500000
2989, 111249384.000000, 1541.375000, 8256.500000, 8148.000000, 8157.000000
2990, 111249544.000000, 1444.125000, 8263.500000, 8153.500000, 8163.000000
2991, 111249704.000000, 1376.000000, 8277.000000, 8149.000000, 8163.000000
2992, 111249864.000000, 1318.125000, 8300.500000, 8150.500000, 8169.000000
2993, 111250024.000000, 1255.750000, 8343.000000, 8142.000000, 8177.000000
2994, 111250184.000000, 1192.500000, 8363.500000, 8146.500000, 8195.500000
2995, 111250344.000000, 1122.125000, 8364.000000, 8154.500000, 8206.000000
2996, 111250504.000000, 1047.875000, 8332.000000, 8167.500000, 8206.500000
2997, 111250664.000000, 966.000000, 8277.000000, 8176.500000, 8194.000000
2998, 111250824.000000, 899.500000, 8237.500000, 8169.000000, 8167.500000
2999, 111250984.000000, 863.625000, 8205.500000, 8158.500000, 8147.500000
3000, 111251144.000000, 862.750000, 8198.000000, 8163.000000, 8146.500000
3001, 111251304.000000, 880.375000, 8191.500000, 8168.500000, 8153.500000
3002, 111251464.000000, 891.625000, 8206.000000, 8168.000000, 8156.500000
3003, 111251624.000000, 875.750000, 8219.000000, 8165.500000, 8160.000000
3004, 111251784.000000, 844.125000, 8241.000000, 8160.000000, 8165.000000
3005, 111251944.000000, 808.875000, 8229.000000, 8170.500000, 8173.000000
3006, 111252104.000000, 777.625000, 8217.000000, 8170.000000, 8172.000000
3007, 111252264.000000, 749.500000, 8211.500000, 8167.000000, 8167.000000
3008, 111252424.000000, 717.750000, 8221.500000, 8186.500000, 8200.000000
3009, 111252584.000000, 703.375000, 8229.500000, 8186.000000, 8205.000000
3010, 111252744.000000, 732.375000, 8233.000000, 8185.000000, 8201.500000
3011, 111252904.000000, 847.250000, 8219.000000, 8093.000000, 8096.000000
3012, 111253064.000000, 1028.375000, 8208.500000, 8101.500000, 8102.500000
3013, 111253224.000000, 1236.625000, 8202.000000, 8110.000000, 8108.000000
3014, 111253384.000000, 1422.000000, 8216.000000, 8111.500000, 8119.500000
3015, 111253544.000000, 1567.875000, 8204.500000, 8162.000000, 8185.500000
3016, 111253704.000000, 1671.500000, 8471.500000, 8081.500000, 8218.000000
3017, 111253864.000000, 1723.125000, 8283.000000, 8101.000000, 8210.500000
3018, 111254024.000000, 1727.625000, 8190.000000, 8096.000000, 8157.000000
3019, 111254184.000000, 1688.875000, 8241.000000, 8167.000000, 8230.000000
3020, 111254344.000000, 1624.500000, 8268.000000, 8170.000000, 8232.500000
3021, 111254504.000000, 1562.500000, 8273.500000, 8167.500000, 8227.000000
3022, 111254664.000000, 1531.375000, 8282.500000, 8167.000000, 8227.000000
3023, 111254824.000000, 1527.625000, 8287.000000, 8172.500000, 8233.000000
3024, 111254984.000000, 1529.750000, 8307.000000, 8171.000000, 8236.500000
3025, 111255144.000000, 1518.625000, 8342.500000, 8170.500000, 8249.500000
3026, 111255304.000000, 1505.000000, 8340.500000, 8182.500000, 8261.500000
3027, 111255464.000000, 1511.750000, 8333.500000, 8191.500000, 8260.000000
3028, 111255624.000000, 1545.625000, 8270.000000, 8197.500000, 8247.500000
3029, 111255784.000000, 1603.250000, 8235.000000, 8189.500000, 8223.500000
3030, 111255944.000000, 1670.375000, 8230.000000, 8174.500000, 8203.500000
3031, 111256104.000000, 1734.625000, 8214.000000, 8178.000000, 8198.000000
3032, 111256264.000000, 1793.750000, 8212.000000, 8184.000000, 8200.500000
3033, 111256424.000000, 1846.500000, 8212.500000, 8179.500000, 8196.000000
3034, 111256584.000000, 1895.125000, 8212.500000, 8185.000000, 8200.500000
3035, 111256744.000000, 1934.375000, 8213.500000, 8182.500000, 8198.500000
3036, 111256904.000000, 1968.500000, 8231.000000, 8183.000000, 8202.000000
3037, 111257064.000000, 1999.125000, 8212.500000, 8186.500000, 8195.000000
3038, 111257224.000000, 2032.875000, 8205.000000, 8187.000000, 8192.000000
3039, 111257384.000000, 2068.125000, 8198.000000, 8194.000000, 8199.000000
3040, 111257544.000000, 2098.375000, 8223.500000, 8203.000000, 8231.000000
3041, 111257704.000000, 2133.875000, 8250.000000, 8197.500000, 8231.000000
3042, 111257864.000000, 2209.125000, 8236.000000, 8190.500000, 8216.500000
3043, 111258024.000000, 2352.875000, 8227.500000, 8176.500000, 8190.000000
3044, 111258184.000000, 2535.125000, 8210.500000, 8182.500000, 8190.000000
3045, 111258344.000000, 2704.875000, 8223.500000, 8181.000000, 8193.000000
3046, 111258504.000000, 2815.250000, 8228.000000, 8177.500000, 8190.500000
3047, 111258664.000000, 2853.875000, 8236.000000, 8230.000000, 8247.500000
3048, 111258824.000000, 2835.875000, 8590.500000, 8030.000000, 8186.500000
3049, 111258984.000000, 2787.875000, 8105.000000, 8123.000000, 8111.000000
3050, 111259144.000000, 2733.375000, 8170.000000, 8155.500000, 8159.000000
3051, 111259304.000000, 2683.750000, 8211.000000, 8192.000000, 8187.000000
3052, 111259464.000000, 2644.250000, 8224.500000, 8180.500000, 8182.000000
3053, 111259624.000000, 2611.500000, 8235.000000, 8179.000000, 8186.500000
3054, 111259784.000000, 2580.125000, 8242.000000, 8179.000000, 8191.000000
3055, 111259944.000000, 2539.125000, 8252.000000, 8178.000000, 8196.000000
3056, 111260104.000000, 2487.000000, 8295.500000, 8180.500000, 8205.500000
3057, 111260264.000000, 2425.375000, 8309.000000, 8181.500000, 8211.500000
3058, 111260424.000000, 2367.500000, 8299.000000, 8189.500000, 8219.500000
3059, 111260584.000000, 2322.000000, 8258.500000, 8197.500000, 8217.000000
3060, 111260744.000000, 2283.875000, 8217.000000, 8201.000000, 8204.500000
3061, 111260904.000000, 2240.125000, 8189.500000, 8188.500000, 8179.000000
3062, 111261064.000000, 2188.250000, 8169.000000, 8184.000000, 8163.000000
3063, 111261224.000000, 2134.250000, 8157.000000, 8186.500000, 8160.500000
3064, 111261384.000000, 2080.250000, 8164.500000, 8184.000000, 8157.000000
3065, 111261544.000000, 2019.125000, 8168.000000, 8185.500000, 8164.000000
3066, 111261704.000000, 1951.875000, 8177.500000, 8188.500000, 8166.000000
3067, 111261864.000000, 1890.625000, 8184.500000, 8181.000000, 8165.000000
3068, 111262024.000000, 1844.250000, 8172.500000, 8181.500000, 8159.500000
3069, 111262184.000000, 1813.125000, 8165.500000, 8178.500000, 8153.000000
3070, 111262344.000000, 1782.375000, 8162.500000, 8182.000000, 8156.500000
3071, 111262504.000000, 1750.500000, 8171.500000, 8188.500000, 8173.000000
3072, 111262664.000000, 1735.625000, 8183.000000, 8177.000000, 8171.000000
3073, 111262824.000000, 1771.250000, 8193.000000, 8174.000000, 8163.000000
3074, 111262984.000000, 1866.250000, 8176.000000, 8159.500000, 8135.500000
3075, 111263144.000000, 1999.000000, 8168.000000, 8153.000000, 8123.000000
3076, 111263304.000000, 2135.625000, 8169.500000, 8162.000000, 8131.000000
3077, 111263464.000000, 2265.875000, 8172.000000, 8154.000000, 8126.000000
3078, 111263624.000000, 2388.750000, 8165.000000, 8173.000000, 8147.500000
3079, 111263784.000000, 2493.875000, 8302.000000, 8151.000000, 8168.500000
3080, 111263944.000000, 2559.625000, 8321.500000, 8084.000000, 8141.500000
3081, 111264104.000000, 2570.250000, 8059.000000, 8103.000000, 8051.000000
3082, 111264264.000000, 2533.125000, 8137.500000, 8166.000000, 8131.000000
3083, 111264424.000000, 2470.125000, 8151.500000, 8174.000000, 8140.500000
3084, 111264584.000000, 2406.125000, 8161.000000, 8173.500000, 8142.000000
3085, 111264744.000000, 2351.500000, 8179.000000, 8169.500000, 8148.000000
3086, 111264904.000000, 2306.000000, 8190.000000, 8168.500000, 8152.500000
3087, 111265064.000000, 2267.250000, 8202.500000, 8162.000000, 8155.000000
3088, 111265224.000000, 2241.000000, 8232.500000, 8161.000000, 8164.000000
3089, 111265384.000000, 2227.750000, 8225.500000, 8168.000000, 8172.000000
3090, 111265544.000000, 2223.625000, 8208.000000, 8170.000000, 8169.500000
3091, 111265704.000000, 2214.875000, 8151.000000, 8177.000000, 8159.000000
3092, 111265864.000000, 2194.625000, 8109.500000, 8170.000000, 8134.000000
3093, 111266024.000000, 2166.500000, 8066.500000, 8170.000000, 8109.500000
3094, 111266184.000000, 2131.125000, 8045.000000, 8177.000000, 8102.500000
3095, 111266344.000000, 2093.250000, 8039.500000, 8179.500000, 8097.500000
3096, 111266504.000000, 2062.750000, 8035.500000, 8178.000000, 8100.000000
3097, 111266664.000000, 2040.625000, 8034.000000, 8180.500000, 8100.500000
3098, 111266824.000000, 2021.625000, 8046.500000, 8181.000000, 8105.500000
3099, 111266984.000000, 1989.625000, 8070.500000, 8191.000000, 8112.000000
3100, 111267144.000000, 1941.000000, 8061.500000, 8192.500000, 8115.000000
3101, 111267304.000000, 1878.750000, 8054.500000, 8190.500000, 8115.500000
3102, 111267464.000000, 1811.875000, 8049.500000, 8189.500000, 8110.000000
3103, 111267624.000000, 1751.250000, 8050.000000, 8207.000000, 8139.000000
3104, 111267784.000000, 1710.875000, 8059.000000, 8219.500000, 8159.500000
3105, 111267944.000000, 1739.875000, 8061.000000, 8223.500000, 8162.500000
3106, 111268104.000000, 1849.375000, 8057.000000, 8225.000000, 8151.000000
3107, 111268264.000000, 2030.750000, 8075.500000, 8239.500000, 8167.500000
3108, 111268424.000000, 2230.375000, 8119.000000, 8261.500000, 8225.500000
3109, 111268584.000000, 2403.750000, 8162.500000, 8284.500000, 8290.000000
3110, 111268744.000000, 2523.125000, 8183.500000, 8329.500000, 8354.000000
3111, 111268904.000000, 2579.250000, 8404.000000, 8249.500000, 8344.000000
3112, 111269064.000000, 2573.000000, 8259.500000, 8253.500000, 8320.500000
3113, 111269224.000000, 2515.625000, 8125.000000, 8256.500000, 8248.000000
3114, 111269384.000000, 2423.875000, 8215.000000, 8308.000000, 8311.000000
3115, 111269544.000000, 2318.750000, 8233.500000, 8321.000000, 8319.000000
3116, 111269704.000000, 2225.125000, 8275.500000, 8322.500000, 8328.000000
3117, 111269864.000000, 2158.500000, 8286.500000, 8331.500000, 8333.500000
3118, 111270024.000000, 2120.625000, 8331.500000, 8335.000000, 8363.000000
3119, 111270184.000000, 2096.375000, 8385.000000, 8334.500000, 8389.000000
3120, 111270344.000000, 2074.750000, 8420.500000, 8331.500000, 8409.500000
3121, 111270504.000000, 2049.750000, 8452.500000, 8344.500000, 8443.500000
3122, 111270664.000000, 2024.875000, 8437.500000, 8343.000000, 8444.000000
3123, 111270824.000000, 2003.375000, 8389.000000, 8359.000000, 8443.500000
3124, 111270984.000000, 1975.250000, 8334.000000, 8356.000000, 8419.000000
3125, 111271144.000000, 1937.375000, 8306.500000, 8346.000000, 8401.000000
3126, 111271304.000000, 1896.125000, 8288.500000, 8346.500000, 8391.000000
3127, 111271464.000000, 1863.750000, 8276.000000, 8343.000000, 8385.000000
3128, 111271624.000000, 1844.250000, 8282.000000, 8340.000000, 8388.000000
3129, 111271784.000000, 1825.375000, 8283.500000, 8348.500000, 8398.500000
3130, 111271944.000000, 1798.250000, 8310.500000, 8348.500000, 8398.500000
3131, 111272104.000000, 1761.625000, 8301.500000, 8348.500000, 8395.500000
3132, 111272264.000000, 1725.250000, 8287.000000, 8331.000000, 8374.500000
3133, 111272424.000000, 1690.625000, 8267.000000, 8322.000000, 8363.000000
3134, 111272584.000000, 1651.125000, 8281.000000, 8298.500000, 8341.500000
3135, 111272744.000000, 1623.500000, 8274.000000, 8264.000000, 8316.500000
3136, 111272904.000000, 1640.250000, 8289.000000, 8269.000000, 8342.000000
3137, 111273064.000000, 1736.500000, 8279.000000, 8257.000000, 8332.000000
3138, 111273224.000000, 1899.750000, 8271.500000, 8240.000000, 8304.000000
3139, 111273384.000000, 2099.625000, 8246.500000, 8229.500000, 8289.000000
3140, 111273544.000000, 2288.250000, 8246.000000, 8225.000000, 8294.000000
3141, 111273704.000000, 2437.500000, 8236.000000, 8224.000000, 8296.000000
3142, 111273864.000000, 2537.625000, 8223.500000, 8240.500000, 8325.500000
3143, 111274024.000000, 2597.000000, 8373.000000, 8192.000000, 8329.500000
3144, 111274184.000000, 2623.125000, 8332.500000, 8159.500000, 8313.000000
3145, 111274344.000000, 2614.000000, 8115.500000, 8157.000000, 8215.000000
3146, 111274504.000000, 2581.500000, 8209.500000, 8206.500000, 8286.000000
3147, 111274664.000000, 2527.000000, 8233.500000, 8213.500000, 8283.500000
3148, 111274824.000000, 2461.625000, 8227.500000, 8211.500000, 8281.000000
3149, 111274984.000000, 2390.875000, 8227.000000, 8206.500000, 8288.500000
3150, 111275144.000000, 2324.375000, 8238.500000, 8211.000000, 8307.000000
3151, 111275304.000000, 2277.625000, 8275.500000, 8213.000000, 8318.500000
3152, 111275464.000000, 2245.375000, 8318.000000, 8217.000000, 8329.000000
3153, 111275624.000000, 2208.000000, 8337.500000, 8213.500000, 8330.500000
3154, 111275784.000000, 2165.750000, 8327.500000, 8203.500000, 8321.000000
3155, 111275944.000000, 2123.000000, 8297.000000, 8216.000000, 8319.000000
3156, 111276104.000000, 2078.750000, 8261.500000, 8210.500000, 8298.000000
3157, 111276264.000000, 2033.125000, 8249.000000, 8211.000000, 8282.000000
3158, 111276424.000000, 1985.000000, 8247.000000, 8210.500000, 8270.000000
3159, 111276584.000000, 1946.000000, 8254.000000, 8201.000000, 8267.000000
3160, 111276744.000000, 1911.125000, 8243.000000, 8195.500000, 8264.500000
3161, 111276904.000000, 1869.750000, 8243.000000, 8197.500000, 8262.500000
3162, 111277064.000000, 1819.250000, 8252.000000, 8204.500000, 8266.500000
3163, 111277224.000000, 1764.250000, 8252.500000, 8213.500000, 8274.000000
3164, 111277384.000000, 1713.875000, 8241.000000, 8219.000000, 8269.000000
3165, 111277544.000000, 1677.500000, 8238.000000, 8220.500000, 8272.000000
3166, 111277704.000000, 1652.875000, 8245.000000, 8218.000000, 8266.000000
3167, 111277864.000000, 1633.625000, 8236.000000, 8216.500000, 8268.000000
3168, 111278024.000000, 1617.875000, 8252.500000, 8221.500000, 8280.500000
3169, 111278184.000000, 1637.250000, 8248.000000, 8218.000000, 8261.000000
3170, 111278344.000000, 1717.625000, 8196.500000, 8217.500000, 8240.500000
3171, 111278504.000000, 1868.500000, 8190.500000, 8209.000000, 8220.000000
3172, 111278664.000000, 2044.625000, 8187.000000, 8200.000000, 8209.500000
3173, 111278824.000000, 2207.875000, 8184.000000, 8195.000000, 8219.500000
3174, 111278984.000000, 2325.375000, 8198.500000, 8191.500000, 8235.000000
3175, 111279144.000000, 2393.250000, 8253.000000, 8242.000000, 8299.500000
3176, 111279304.000000, 2417.000000, 8593.000000, 8070.000000, 8266.000000
3177, 111279464.000000, 2403.500000, 8145.500000, 8166.000000, 8207.000000
3178, 111279624.000000, 2356.000000, 8213.500000, 8176.000000, 8233.000000
3179, 111279784.000000, 2292.750000, 8262.500000, 8199.500000, 8250.500000
3180, 111279944.000000, 2239.125000, 8270.000000, 8197.500000, 8248.500000
3181, 111280104.000000, 2208.375000, 8283.000000, 8194.000000, 8245.500000
3182, 111280264.000000, 2194.625000, 8297.500000, 8187.000000, 8243.500000
3183, 111280424.000000, 2189.375000, 8316.500000, 8183.500000, 8244.500000
3184, 111280584.000000, 2185.875000, 8340.500000, 8178.500000, 8247.500000
3185, 111280744.000000, 2182.125000, 8365.000000, 8178.000000, 8255.500000
3186, 111280904.000000, 2176.625000, 8357.500000, 8185.500000, 8256.000000
3187, 111281064.000000, 2169.750000, 8312.000000, 8193.500000, 8243.500000
3188, 111281224.000000, 2160.125000, 8259.000000, 8199.500000, 8224.000000
3189, 111281384.000000, 2135.875000, 8228.000000, 8190.500000, 8193.500000
3190, 111281544.000000, 2090.250000, 8218.500000, 8178.000000, 8171.000000
3191, 111281704.000000, 2034.625000, 8212.500000, 8178.000000, 8162.000000
3192, 111281864.000000, 1976.000000, 8204.000000, 8174.000000, 8153.000000
3193, 111282024.000000, 1912.125000, 8201.500000, 8176.500000, 8153.500000
3194, 111282184.000000, 1839.250000, 8214.000000, 8181.500000, 8158.500000
3195, 111282344.000000, 1766.500000, 8219.000000, 8175.500000, 8152.500000
3196, 111282504.000000, 1709.875000, 8213.500000, 8178.500000, 8150.000000
3197, 111282664.000000, 1674.500000, 8204.000000, 8168.500000, 8134.000000
3198, 111282824.000000, 1647.625000, 8198.500000, 8165.500000, 8134.000000
3199, 111282984.000000, 1620.750000, 8190.500000, 8167.500000, 8133.000000
3200, 111283144.000000, 1595.250000, 8195.500000, 8168.000000, 8148.000000
3201, 111283304.000000, 1597.625000, 8207.000000, 8181.500000, 8160.500000
3202, 111283464.000000, 1650.125000, 8215.500000, 8173.000000, 8149.000000
3203, 111283624.000000, 1771.625000, 8198.000000, 8163.000000, 8124.000000
3204, 111283784.000000, 1932.375000, 8185.500000, 8159.500000, 8115.500000
3205, 111283944.000000, 2095.125000, 8190.500000, 8163.500000, 8118.000000
3206, 111284104.000000, 2226.375000, 8201.000000, 8158.500000, 8116.500000
3207, 111284264.000000, 2314.250000, 8197.500000, 8184.000000, 8146.000000
3208, 111284424.000000, 2356.500000, 8409.000000, 8107.500000, 8132.000000
3209, 111284584.000000, 2348.125000, 8258.500000, 8104.000000, 8118.000000
3210, 111284744.000000, 2300.125000, 8104.000000, 8093.500000, 8037.000000
3211, 111284904.000000, 2209.750000, 8190.500000, 8146.500000, 8109.500000
3212, 111285064.000000, 2086.875000, 8201.000000, 8152.500000, 8112.000000
3213, 111285224.000000, 1943.750000, 8204.500000, 8149.500000, 8110.500000
3214, 111285384.000000, 1810.000000, 8219.500000, 8141.000000, 8112.000000
3215, 111285544.000000, 1698.375000, 8238.000000, 8141.000000, 8119.000000
3216, 111285704.000000, 1603.250000, 8252.500000, 8122.000000, 8109.000000
3217, 111285864.000000, 1508.875000, 8283.500000, 8116.000000, 8112.000000
3218, 111286024.000000, 1426.625000, 8279.000000, 8110.500000, 8108.000000
3219, 111286184.000000, 1368.500000, 8258.500000, 8123.500000, 8118.000000
3220, 111286344.000000, 1322.750000, 8205.000000, 8144.000000, 8117.000000
3221, 111286504.000000, 1270.750000, 8151.000000, 8139.000000, 8091.000000
3222, 111286664.000000, 1188.250000, 8132.000000, 8127.500000, 8070.500000
3223, 111286824.000000, 1090.625000, 8120.000000, 8127.000000, 8068.000000
3224, 111286984.000000, 1005.750000, 8114.500000, 8132.000000, 8068.500000
3225, 111287144.000000, 943.625000, 8115.500000, 8139.500000, 8077.000000
3226, 111287304.000000, 880.625000, 8122.500000, 8142.500000, 8084.500000
3227, 111287464.000000, 828.375000, 8135.000000, 8138.500000, 8085.500000
3228, 111287624.000000, 791.750000, 8135.500000, 8143.500000, 8088.000000
3229, 111287784.000000, 766.125000, 8128.500000, 8143.500000, 8086.500000
3230, 111287944.000000, 739.625000, 8128.500000, 8144.000000, 8088.000000
3231, 111288104.000000, 708.875000, 8136.500000, 8140.000000, 8084.500000
3232, 111288264.000000, 684.500000, 8142.000000, 8144.000000, 8097.000000
3233, 111288424.000000, 688.625000, 8149.500000, 8146.000000, 8106.000000
3234, 111288584.000000, 777.000000, 8168.500000, 8145.000000, 8106.000000
3235, 111288744.000000, 1031.000000, 8164.000000, 8128.500000, 8082.500000
3236, 111288904.000000, 1344.000000, 8146.000000, 8125.000000, 8068.000000
3237, 111289064.000000, 1545.750000, 8158.500000, 8122.500000, 8072.500000
3238, 111289224.000000, 1671.750000, 8169.500000, 8124.000000, 8078.000000
3239, 111289384.000000, 1725.875000, 8171.000000, 8139.500000, 8097.000000
3240, 111289544.000000, 1725.375000, 8310.500000, 8129.000000, 8132.000000
3241, 111289704.000000, 1673.875000, 8322.500000, 8050.500000, 8076.500000
3242, 111289864.000000, 1588.125000, 8080.000000, 8050.500000, 7984.500000
3243, 111290024.000000, 1489.250000, 8178.500000, 8119.000000, 8082.000000
3244, 111290184.000000, 1410.250000, 8205.000000, 8144.000000, 8109.000000
3245, 111290344.000000, 1363.625000, 8221.500000, 8148.000000, 8119.000000
3246, 111290504.000000, 1327.125000, 8217.000000, 8152.000000, 8123.000000
3247, 111290664.000000, 1284.125000, 8228.500000, 8146.000000, 8124.500000
3248, 111290824.000000, 1237.000000, 8255.000000, 8146.500000, 8133.000000
3249, 111290984.000000, 1200.875000, 8288.000000, 8145.500000, 8145.500000
3250, 111291144.000000, 1170.625000, 8297.000000, 8152.500000, 8158.500000
3251, 111291304.000000, 1142.500000, 8283.500000, 8163.000000, 8163.000000
3252, 111291464.000000, 1115.875000, 8229.000000, 8174.000000, 8155.000000
3253, 111291624.000000, 1097.875000, 8179.000000, 8168.500000, 8128.500000
3254, 111291784.000000, 1083.375000, 8149.500000, 8159.500000, 8109.500000
3255, 111291944.000000, 1070.250000, 8147.000000, 8149.500000, 8099.500000
3256, 111292104.000000, 1054.125000, 8147.000000, 8151.000000, 8100.500000
3257, 111292264.000000, 1031.125000, 8150.000000, 8153.500000, 8101.000000
3258, 111292424.000000, 1003.500000, 8157.000000, 8158.500000, 8110.500000
3259, 111292584.000000, 975.125000, 8165.000000, 8162.500000, 8116.000000
3260, 111292744.000000, 958.750000, 8171.000000, 8160.000000, 8113.000000
3261, 111292904.000000, 958.875000, 8168.000000, 8164.000000, 8114.500000
3262, 111293064.000000, 975.500000, 8167.000000, 8163.000000, 8107.500000
3263, 111293224.000000, 1019.625000, 8173.000000, 8172.500000, 8120.000000
3264, 111293384.000000, 1100.875000, 8175.000000, 8186.500000, 8137.500000
3265, 111293544.000000, 1248.625000, 8192.000000, 8181.500000, 8139.000000
3266, 111293704.000000, 1462.500000, 8180.500000, 8166.000000, 8115.500000
3267, 111293864.000000, 1714.500000, 8155.500000, 8156.500000, 8096.500000
3268, 111294024.000000, 1949.750000, 8151.000000, 8154.500000, 8097.500000
3269, 111294184.000000, 2149.625000, 8158.000000, 8155.500000, 8103.000000
3270, 111294344.000000, 2324.375000, 8158.000000, 8163.500000, 8115.000000
3271, 111294504.000000, 2484.250000, 8221.000000, 8190.500000, 8159.000000
3272, 111294664.000000, 2613.250000, 8451.000000, 8023.000000, 8096.500000
3273, 111294824.000000, 2698.625000, 8039.500000, 8070.000000, 7995.500000
3274, 111294984.000000, 2725.875000, 8122.500000, 8148.000000, 8099.000000
3275, 111295144.000000, 2681.125000, 8160.000000, 8174.500000, 8127.500000
3276, 111295304.000000, 2592.750000, 8169.500000, 8171.500000, 8129.000000
3277, 111295464.000000, 2490.250000, 8190.000000, 8171.000000, 8132.000000
3278, 111295624.000000, 2414.375000, 8202.000000, 8172.000000, 8142.000000
3279, 111295784.000000, 2376.625000, 8223.500000, 8176.000000, 8154.000000
3280, 111295944.000000, 2374.000000, 8264.000000, 8178.000000, 8170.500000
3281, 111296104.000000, 2399.500000, 8282.000000, 8179.500000, 8178.500000
3282, 111296264.000000, 2430.000000, 8276.000000, 8185.500000, 8186.500000
3283, 111296424.000000, 2442.000000, 8232.000000, 8198.000000, 8182.000000
3284, 111296584.000000, 2419.625000, 8176.000000, 8199.500000, 8164.000000
3285, 111296744.000000, 2368.250000, 8151.500000, 8188.500000, 8144.000000
3286, 111296904.000000, 2320.250000, 8142.000000, 8180.000000, 8128.000000
3287, 111297064.000000, 2298.750000, 8134.000000, 8180.000000, 8123.000000
3288, 111297224.000000, 2307.875000, 8146.500000, 8172.000000, 8120.000000
3289, 111297384.000000, 2321.500000, 8151.500000, 8184.500000, 8133.000000
3290, 111297544.000000, 2324.500000, 8164.000000, 8184.000000, 8135.000000
3291, 111297704.000000, 2308.375000, 8162.500000, 8184.500000, 8135.000000
3292, 111297864.000000, 2283.750000, 8158.500000, 8183.500000, 8129.500000
3293, 111298024.000000, 2256.500000, 8161.500000, 8177.000000, 8127.000000
3294, 111298184.000000, 2231.250000, 8162.000000, 8177.500000, 8129.500000
3295, 111298344.000000, 2232.250000, 8158.000000, 8195.500000, 8159.000000
3296, 111298504.000000, 2292.750000, 8162.500000, 8192.500000, 8149.500000
3297, 111298664.000000, 2441.250000, 8168.000000, 8184.500000, 8140.000000
3298, 111298824.000000, 2651.500000, 8154.500000, 8176.000000, 8121.000000
3299, 111298984.000000, 2881.875000, 8145.500000, 8175.000000, 8121.500000
3300, 111299144.000000, 3091.250000, 8152.500000, 8176.500000, 8124.500000
3301, 111299304.000000, 3259.875000, 8148.500000, 8178.500000, 8126.000000
3302, 111299464.000000, 3375.000000, 8139.500000, 8233.000000, 8186.500000
3303, 111299624.000000, 3436.375000, 8476.500000, 8063.000000, 8134.500000
3304, 111299784.000000, 3450.375000, 8096.000000, 8122.500000, 8081.000000
3305, 111299944.000000, 3424.000000, 8093.000000, 8144.000000, 8094.000000
3306, 111300104.000000, 3364.000000, 8145.500000, 8201.500000, 8150.000000
3307, 111300264.000000, 3279.125000, 8160.000000, 8202.500000, 8153.500000
3308, 111300424.000000, 3193.875000, 8176.500000, 8202.000000, 8159.000000
3309, 111300584.000000, 3115.250000, 8181.000000, 8199.000000, 8162.000000
3310, 111300744.000000, 3047.000000, 8203.000000, 8194.500000, 8165.000000
3311, 111300904.000000, 2992.750000, 8226.000000, 8196.500000, 8171.500000
3312, 111301064.000000, 2960.125000, 8259.500000, 8204.000000, 8189.500000
3313, 111301224.000000, 2940.375000, 8270.000000, 8212.500000, 8203.500000
3314, 111301384.000000, 2906.250000, 8240.500000, 8228.500000, 8209.500000
3315, 111301544.000000, 2843.500000, 8185.500000, 8238.000000, 8198.000000
3316, 111301704.000000, 2768.000000, 8140.500000, 8229.500000, 8176.500000
3317, 111301864.000000, 2687.375000, 8122.000000, 8224.500000, 8159.500000
3318, 111302024.000000, 2603.000000, 8117.500000, 8218.000000, 8156.500000
3319, 111302184.000000, 2530.375000, 8104.500000, 8221.000000, 8154.000000
3320, 111302344.000000, 2484.750000, 8111.500000, 8224.500000, 8163.000000
3321, 111302504.000000, 2465.250000, 8111.000000, 8224.000000, 8165.500000
3322, 111302664.000000, 2442.000000, 8106.000000, 8225.000000, 8168.000000
3323, 111302824.000000, 2394.875000, 8100.000000, 8225.000000, 8168.000000
3324, 111302984.000000, 2351.000000, 8100.000000, 8225.000000, 8173.000000
3325, 111303144.000000, 2312.625000, 8096.500000, 8226.000000, 8179.500000
3326, 111303304.000000, 2273.250000, 8104.500000, 8225.000000, 8182.000000
3327, 111303464.000000, 2250.000000, 8099.500000, 8233.500000, 8193.000000
3328, 111303624.000000, 2300.375000, 8122.500000, 8235.500000, 8210.500000
3329, 111303784.000000, 2469.125000, 8131.000000, 8233.000000, 8213.500000
3330, 111303944.000000, 2707.125000, 8134.000000, 8219.000000, 8195.000000
3331, 111304104.000000, 2938.375000, 8118.500000, 8204.000000, 8173.500000
3332, 111304264.000000, 3125.375000, 8125.000000, 8198.000000, 8170.500000
3333, 111304424.000000, 3250.750000, 8146.500000, 8192.000000, 8171.000000
3334, 111304584.000000, 3308.125000, 8149.000000, 8204.000000, 8184.000000
3335, 111304744.000000, 3312.000000, 8193.000000, 8247.000000, 8247.000000
3336, 111304904.000000, 3273.750000, 8525.000000, 8056.500000, 8195.500000
3337, 111305064.000000, 3189.750000, 8048.500000, 8137.500000, 8106.500000
3338, 111305224.000000, 3074.000000, 8131.500000, 8191.500000, 8184.500000
3339, 111305384.000000, 2958.125000, 8152.500000, 8194.000000, 8184.000000
3340, 111305544.000000, 2862.000000, 8151.000000, 8213.500000, 8206.500000
3341, 111305704.000000, 2791.000000, 8161.000000, 8224.500000, 8221.500000
3342, 111305864.000000, 2736.750000, 8179.000000, 8232.000000, 8239.500000
3343, 111306024.000000, 2696.625000, 8194.000000, 8238.000000, 8257.000000
3344, 111306184.000000, 2664.250000, 8230.000000, 8236.500000, 8274.000000
3345, 111306344.000000, 2625.375000, 8262.000000, 8238.500000, 8291.000000
3346, 111306504.000000, 2578.250000, 8261.000000, 8245.000000, 8300.000000
3347, 111306664.000000, 2523.250000, 8218.500000, 8261.500000, 8299.000000
3348, 111306824.000000, 2470.625000, 8166.000000, 8264.500000, 8290.000000
3349, 111306984.000000, 2425.625000, 8131.000000, 8261.500000, 8273.500000
3350, 111307144.000000, 2394.750000, 8129.000000, 8256.000000, 8268.000000
3351, 111307304.000000, 2369.125000, 8118.000000, 8259.500000, 8267.000000
3352, 111307464.000000, 2343.750000, 8119.000000, 8265.000000, 8272.500000
3353, 111307624.000000, 2318.125000, 8115.500000, 8273.500000, 8282.500000
3354, 111307784.000000, 2287.375000, 8129.500000, 8275.000000, 8292.500000
3355, 111307944.000000, 2256.125000, 8151.500000, 8278.500000, 8307.500000
3356, 111308104.000000, 2241.125000, 8179.000000, 8290.500000, 8356.500000
3357, 111308264.000000, 2248.750000, 8171.500000, 8298.500000, 8361.000000
3358, 111308424.000000, 2255.500000, 8154.500000, 8299.000000, 8355.000000
3359, 111308584.000000, 2234.500000, 8150.500000, 8301.000000, 8353.500000
3360, 111308744.000000, 2213.375000, 8155.500000, 8309.500000, 8359.000000
3361, 111308904.000000, 2256.875000, 8180.000000, 8312.500000, 8367.500000
3362, 111309064.000000, 2395.375000, 8180.000000, 8316.000000, 8371.000000
3363, 111309224.000000, 2621.875000, 8177.500000, 8317.500000, 8368.500000
3364, 111309384.000000, 2857.125000, 8161.000000, 8309.000000, 8343.500000
3365, 111309544.000000, 3030.125000, 8156.000000, 8310.500000, 8332.500000
3366, 111309704.000000, 3109.625000, 8161.000000, 8312.500000, 8331.000000
3367, 111309864.000000, 3119.625000, 8163.500000, 8308.000000, 8326.000000
3368, 111310024.000000, 3079.250000, 8158.000000, 8319.500000, 8341.000000
3369, 111310184.000000, 2983.000000, 8270.500000, 8313.500000, 8362.000000
3370, 111310344.000000, 2841.250000, 8358.000000, 8221.500000, 8333.000000
3371, 111310504.000000, 2689.750000, 8058.000000, 8238.500000, 8225.500000
3372, 111310664.000000, 2564.125000, 8144.500000, 8289.000000, 8301.000000
3373, 111310824.000000, 2475.625000, 8160.000000, 8312.000000, 8319.500000
3374, 111310984.000000, 2396.875000, 8173.500000, 8317.000000, 8325.000000
3375, 111311144.000000, 2307.625000, 8182.500000, 8315.500000, 8327.000000
3376, 111311304.000000, 2203.500000, 8199.000000, 8314.000000, 8331.000000
3377, 111311464.000000, 2089.625000, 8216.000000, 8308.000000, 8336.000000
3378, 111311624.000000, 1983.875000, 8250.000000, 8306.500000, 8347.000000
3379, 111311784.000000, 1918.125000, 8274.500000, 8306.500000, 8353.500000
3380, 111311944.000000, 1895.000000, 8266.000000, 8317.000000, 8362.000000
3381, 111312104.000000, 1897.625000, 8216.500000, 8331.000000, 8351.500000
3382, 111312264.000000, 1888.875000, 8165.000000, 8327.000000, 8327.000000
3383, 111312424.000000, 1857.375000, 8140.500000, 8313.000000, 8301.000000
3384, 111312584.000000, 1811.250000, 8137.500000, 8310.000000, 8292.000000
3385, 111312744.000000, 1746.250000, 8137.000000, 8311.000000, 8288.000000
3386, 111312904.000000, 1653.875000, 8149.500000, 8312.000000, 8285.000000
3387, 111313064.000000, 1525.875000, 8158.000000, 8308.500000, 8284.500000
3388, 111313224.000000, 1398.250000, 8159.500000, 8290.500000, 8279.000000
3389, 111313384.000000, 1299.625000, 8150.500000, 8282.500000, 8275.000000
3390, 111313544.000000, 1238.750000, 8149.000000, 8265.000000, 8257.000000
3391, 111313704.000000, 1194.125000, 8151.000000, 8246.500000, 8237.500000
3392, 111313864.000000, 1137.875000, 8152.000000, 8238.000000, 8229.000000
3393, 111314024.000000, 1077.875000, 8149.000000, 8229.500000, 8218.500000
3394, 111314184.000000, 1053.625000, 8144.500000, 8224.000000, 8216.000000
3395, 111314344.000000, 1122.500000, 8154.500000, 8235.500000, 8246.500000
3396, 111314504.000000, 1277.625000, 8159.000000, 8231.500000, 8238.500000
3397, 111314664.000000, 1473.750000, 8165.500000, 8220.500000, 8224.000000
3398, 111314824.000000, 1650.750000, 8150.500000, 8220.000000, 8211.500000
3399, 111314984.000000, 1790.000000, 8150.500000, 8227.000000, 8217.500000
3400, 111315144.000000, 1895.125000, 8155.000000, 8226.000000, 8216.500000
3401, 111315304.000000, 1960.875000, 8157.500000, 8228.500000, 8220.000000
3402, 111315464.000000, 1975.625000, 8149.000000, 8284.000000, 8282.500000
3403, 111315624.000000, 1929.125000, 8491.000000, 8102.000000, 8213.500000
3404, 111315784.000000, 1837.625000, 8087.500000, 8180.000000, 8170.500000
3405, 111315944.000000, 1725.250000, 8095.000000, 8176.500000, 8159.500000
3406, 111316104.000000, 1620.250000, 8161.500000, 8232.500000, 8225.500000
3407, 111316264.000000, 1532.000000, 8175.000000, 8229.000000, 8223.000000
3408, 111316424.000000, 1462.250000, 8183.000000, 8229.000000, 8224.500000
3409, 111316584.000000, 1416.875000, 8205.000000, 8224.000000, 8230.500000
3410, 111316744.000000, 1402.375000, 8220.000000, 8224.500000, 8234.000000
3411, 111316904.000000, 1420.500000, 8247.000000, 8216.500000, 8238.000000
3412, 111317064.000000, 1453.375000, 8266.000000, 8219.000000, 8249.500000
3413, 111317224.000000, 1476.750000, 8277.000000, 8219.000000, 8256.500000
3414, 111317384.000000, 1483.250000, 8250.500000, 8229.000000, 8260.000000
3415, 111317544.000000, 1488.250000, 8185.500000, 8234.500000, 8245.000000
3416, 111317704.000000, 1494.250000, 8145.500000, 8221.000000, 8212.000000
3417, 111317864.000000, 1496.375000, 8125.000000, 8209.000000, 8188.000000
3418, 111318024.000000, 1490.500000, 8131.500000, 8201.000000, 8182.000000
3419, 111318184.000000, 1482.125000, 8133.500000, 8192.500000, 8172.500000
3420, 111318344.000000, 1477.750000, 8132.000000, 8173.000000, 8156.500000
3421, 111318504.000000, 1470.500000, 8154.000000, 8170.500000, 8161.500000
3422, 111318664.000000, 1448.375000, 8161.000000, 8165.000000, 8155.500000
3423, 111318824.000000, 1413.625000, 8158.500000, 8169.000000, 8157.000000
3424, 111318984.000000, 1375.375000, 8163.500000, 8159.500000, 8151.000000
3425, 111319144.000000, 1343.500000, 8163.000000, 8162.000000, 8152.000000
3426, 111319304.000000, 1309.000000, 8165.000000, 8160.000000, 8145.000000
3427, 111319464.000000, 1268.625000, 8164.500000, 8159.500000, 8146.500000
3428, 111319624.000000, 1254.500000, 8162.000000, 8172.500000, 8169.000000
3429, 111319784.000000, 1314.625000, 8172.000000, 8175.500000, 8166.500000
3430, 111319944.000000, 1465.375000, 8166.000000, 8173.000000, 8158.000000
3431, 111320104.000000, 1663.250000, 8144.500000, 8162.000000, 8131.000000
3432, 111320264.000000, 1860.625000, 8143.500000, 8159.000000, 8127.000000
3433, 111320424.000000, 2014.500000, 8143.000000, 8159.500000, 8130.000000
3434, 111320584.000000, 2119.625000, 8139.500000, 8164.000000, 8132.500000
3435, 111320744.000000, 2182.500000, 8127.500000, 8221.000000, 8197.000000
3436, 111320904.000000, 2214.375000, 8458.500000, 8055.500000, 8139.000000
3437, 111321064.000000, 2205.875000, 8093.500000, 8096.000000, 8073.500000
3438, 111321224.000000, 2148.125000, 8093.500000, 8114.500000, 8082.500000
3439, 111321384.000000, 2069.625000, 8150.000000, 8174.500000, 8145.000000
3440, 111321544.000000, 2001.125000, 8160.500000, 8183.500000, 8153.000000
3441, 111321704.000000, 1946.875000, 8168.500000, 8183.000000, 8157.500000
3442, 111321864.000000, 1903.250000, 8186.000000, 8184.500000, 8165.000000
3443, 111322024.000000, 1874.375000, 8197.500000, 8189.000000, 8172.000000
3444, 111322184.000000, 1860.625000, 8219.500000, 8188.000000, 8183.000000
3445, 111322344.000000, 1850.875000, 8250.500000, 8189.000000, 8196.000000
3446, 111322504.000000, 1830.750000, 8257.500000, 8193.500000, 8206.000000
3447, 111322664.000000, 1805.750000, 8225.000000, 8204.500000, 8203.500000
3448, 111322824.000000, 1785.375000, 8162.500000, 8208.500000, 8186.000000
3449, 111322984.000000, 1778.375000, 8113.500000, 8192.500000, 8149.500000
3450, 111323144.000000, 1777.750000, 8092.500000, 8175.500000, 8121.500000
3451, 111323304.000000, 1770.500000, 8092.500000, 8173.500000, 8117.500000
3452, 111323464.000000, 1750.750000, 8088.000000, 8167.500000, 8112.500000
3453, 111323624.000000, 1729.250000, 8104.000000, 8169.000000, 8117.500000
3454, 111323784.000000, 1728.875000, 8109.000000, 8171.500000, 8123.500000
3455, 111323944.000000, 1757.375000, 8114.000000, 8174.500000, 8129.000000
3456, 111324104.000000, 1802.375000, 8112.500000, 8176.500000, 8128.000000
3457, 111324264.000000, 1849.250000, 8126.500000, 8172.000000, 8128.500000
3458, 111324424.000000, 1889.500000, 8120.000000, 8175.500000, 8128.000000
3459, 111324584.000000, 1918.500000, 8123.000000, 8177.500000, 8128.000000
3460, 111324744.000000, 1950.375000, 8122.500000, 8177.500000, 8126.500000
3461, 111324904.000000, 2016.750000, 8125.000000, 8188.500000, 8152.500000
3462, 111325064.000000, 2157.500000, 8140.000000, 8192.500000, 8156.000000
3463, 111325224.000000, 2370.375000, 8138.500000, 8188.000000, 8148.500000
3464, 111325384.000000, 2617.250000, 8127.500000, 8177.500000, 8127.500000
3465, 111325544.000000, 2852.625000, 8120.500000, 8175.000000, 8120.500000
3466, 111325704.000000, 3053.125000, 8125.500000, 8175.500000, 8121.500000
3467, 111325864.000000, 3191.500000, 8131.500000, 8176.500000, 8125.500000
3468, 111326024.000000, 3261.375000, 8110.500000, 8211.000000, 8161.000000
3469, 111326184.000000, 3271.875000, 8323.000000, 8158.000000, 8181.500000
3470, 111326344.000000, 3238.375000, 8216.500000, 8109.000000, 8118.500000
3471, 111326504.000000, 3175.250000, 8044.500000, 8117.000000, 8051.000000
3472, 111326664.000000, 3089.500000, 8133.500000, 8186.500000, 8136.000000
3473, 111326824.000000, 3002.375000, 8142.000000, 8198.000000, 8148.000000
3474, 111326984.000000, 2924.750000, 8151.000000, 8202.500000, 8158.500000
3475, 111327144.000000, 2870.375000, 8169.000000, 8205.000000, 8168.000000
3476, 111327304.000000, 2835.875000, 8190.000000, 8206.000000, 8177.000000
3477, 111327464.000000, 2812.750000, 8208.000000, 8201.500000, 8182.500000
3478, 111327624.000000, 2782.250000, 8243.000000, 8200.500000, 8196.000000
