1649, 129626328.000000, 1943.750000, 8225.000000, 8235.000000, 8246.000000
1650, 129626488.000000, 1945.125000, 8195.500000, 8222.000000, 8225.000000
1651, 129626648.000000, 1927.125000, 8164.000000, 8208.500000, 8199.500000
1652, 129626808.000000, 1890.875000, 8160.000000, 8198.000000, 8187.000000
1653, 129626968.000000, 1862.375000, 8164.000000, 8198.000000, 8188.500000
1654, 129627128.000000, 1846.750000, 8175.000000, 8199.500000, 8195.500000
1655, 129627288.000000, 1827.250000, 8170.000000, 8203.500000, 8196.500000
1656, 129627448.000000, 1797.625000, 8169.500000, 8200.000000, 8194.500000
1657, 129627608.000000, 1762.750000, 8180.000000, 8201.500000, 8196.500000
1658, 129627768.000000, 1722.250000, 8179.500000, 8198.500000, 8199.000000
1659, 129627928.000000, 1677.250000, 8180.000000, 8201.500000, 8198.000000
1660, 129628088.000000, 1637.750000, 8175.500000, 8200.000000, 8191.500000
1661, 129628248.000000, 1610.625000, 8173.500000, 8209.000000, 8213.500000
1662, 129628408.000000, 1586.375000, 8184.000000, 8211.000000, 8215.000000
1663, 129628568.000000, 1562.000000, 8189.500000, 8199.500000, 8208.000000
1664, 129628728.000000, 1556.625000, 8180.000000, 8189.500000, 8185.000000
1665, 129628888.000000, 1590.875000, 8169.000000, 8187.000000, 8180.000000
1666, 129629048.000000, 1659.000000, 8159.000000, 8189.000000, 8172.500000
1667, 129629208.000000, 1753.500000, 8136.000000, 8192.000000, 8172.000000
1668, 129629368.000000, 1868.125000, 8143.500000, 8229.500000, 8217.500000
1669, 129629528.000000, 1972.125000, 8336.000000, 8153.500000, 8201.500000
1670, 129629688.000000, 2045.875000, 8114.500000, 8119.000000, 8124.500000
1671, 129629848.000000, 2100.500000, 8069.000000, 8080.000000, 8048.500000
1672, 129630008.000000, 2146.875000, 8161.000000, 8187.500000, 8172.000000
1673, 129630168.000000, 2184.875000, 8164.500000, 8202.500000, 8188.500000
1674, 129630328.000000, 2211.000000, 8155.500000, 8210.500000, 8192.500000
1675, 129630488.000000, 2226.750000, 8153.500000, 8219.500000, 8195.500000
1676, 129630648.000000, 2225.375000, 8163.000000, 8215.000000, 8195.000000
1677, 129630808.000000, 2190.125000, 8187.500000, 8212.500000, 8199.000000
1678, 129630968.000000, 2133.000000, 8235.500000, 8211.000000, 8218.000000
1679, 129631128.000000, 2102.000000, 8252.000000, 8220.000000, 8229.000000
1680, 129631288.000000, 2130.500000, 8229.000000, 8230.500000, 8233.500000
1681, 129631448.000000, 2192.000000, 8189.000000, 8245.000000, 8237.500000
1682, 129631608.000000, 2243.750000, 8160.000000, 8226.500000, 8209.500000
1683, 129631768.000000, 2286.000000, 8161.500000, 8209.000000, 8196.000000
1684, 129631928.000000, 2325.125000, 8159.500000, 8194.500000, 8179.500000
1685, 129632088.000000, 2356.750000, 8145.000000, 8190.500000, 8180.500000
1686, 129632248.000000, 2380.750000, 8152.000000, 8187.000000, 8175.500000
1687, 129632408.000000, 2424.000000, 8155.000000, 8187.500000, 8176.000000
1688, 129632568.000000, 2497.750000, 8166.000000, 8190.000000, 8183.000000
1689, 129632728.000000, 2586.750000, 8185.500000, 8191.000000, 8182.000000
1690, 129632888.000000, 2660.750000, 8194.500000, 8178.000000, 8179.500000
1691, 129633048.000000, 2707.125000, 8201.000000, 8178.000000, 8175.000000
1692, 129633208.000000, 2723.500000, 8187.500000, 8179.500000, 8169.000000
1693, 129633368.000000, 2740.125000, 8177.500000, 8191.000000, 8185.500000
1694, 129633528.000000, 2775.875000, 8165.500000, 8200.000000, 8197.500000
1695, 129633688.000000, 2827.625000, 8195.000000, 8189.000000, 8190.000000
1696, 129633848.000000, 2886.875000, 8200.500000, 8168.000000, 8166.000000
1697, 129634008.000000, 2954.875000, 8201.000000, 8160.500000, 8147.000000
1698, 129634168.000000, 3026.500000, 8192.500000, 8169.500000, 8154.000000
1699, 129634328.000000, 3101.500000, 8185.000000, 8169.500000, 8159.000000
1700, 129634488.000000, 3205.250000, 8172.500000, 8179.500000, 8171.000000
1701, 129634648.000000, 3327.875000, 8292.500000, 8195.500000, 8225.500000
1702, 129634808.000000, 3423.875000, 8282.500000, 8064.000000, 8111.500000
1703, 129634968.000000, 3487.250000, 8085.500000, 8051.500000, 8031.000000
1704, 129635128.000000, 3530.500000, 8188.500000, 8158.500000, 8152.500000
1705, 129635288.000000, 3533.625000, 8197.500000, 8186.500000, 8178.500000
1706, 129635448.000000, 3498.125000, 8187.500000, 8193.000000, 8178.500000
1707, 129635608.000000, 3447.250000, 8188.500000, 8199.000000, 8190.000000
1708, 129635768.000000, 3362.125000, 8214.000000, 8197.000000, 8193.000000
1709, 129635928.000000, 3240.625000, 8239.000000, 8195.000000, 8203.000000
1710, 129636088.000000, 3141.625000, 8241.000000, 8201.500000, 8205.500000
1711, 129636248.000000, 3113.250000, 8249.000000, 8215.000000, 8224.000000
1712, 129636408.000000, 3092.125000, 8244.500000, 8217.500000, 8222.500000
1713, 129636568.000000, 3003.250000, 8213.000000, 8227.000000, 8230.000000
1714, 129636728.000000, 2876.250000, 8180.000000, 8223.500000, 8220.000000
1715, 129636888.000000, 2782.375000, 8156.000000, 8206.500000, 8198.000000
1716, 129637048.000000, 2743.375000, 8156.500000, 8198.500000, 8185.000000
1717, 129637208.000000, 2702.000000, 8155.000000, 8197.500000, 8185.000000
1718, 129637368.000000, 2626.500000, 8153.000000, 8199.000000, 8183.500000
1719, 129637528.000000, 2511.875000, 8161.500000, 8200.000000, 8191.000000
1720, 129637688.000000, 2382.375000, 8180.500000, 8198.000000, 8194.500000
1721, 129637848.000000, 2265.375000, 8185.500000, 8197.000000, 8192.000000
1722, 129638008.000000, 2187.250000, 8173.500000, 8194.000000, 8188.000000
1723, 129638168.000000, 2128.000000, 8179.500000, 8198.500000, 8192.500000
1724, 129638328.000000, 2065.125000, 8172.500000, 8196.500000, 8193.000000
1725, 129638488.000000, 2006.500000, 8161.000000, 8197.000000, 8183.500000
1726, 129638648.000000, 1963.000000, 8150.500000, 8203.000000, 8197.500000
1727, 129638808.000000, 1916.500000, 8163.500000, 8213.000000, 8208.500000
1728, 129638968.000000, 1865.500000, 8210.000000, 8196.000000, 8206.000000
1729, 129639128.000000, 1829.750000, 8199.000000, 8184.500000, 8187.000000
1730, 129639288.000000, 1850.500000, 8179.500000, 8178.500000, 8168.500000
1731, 129639448.000000, 1947.500000, 8164.000000, 8183.000000, 8172.000000
1732, 129639608.000000, 2079.500000, 8162.500000, 8189.500000, 8173.000000
1733, 129639768.000000, 2172.750000, 8162.500000, 8201.000000, 8192.500000
1734, 129639928.000000, 2225.875000, 8297.000000, 8200.500000, 8239.500000
1735, 129640088.000000, 2265.625000, 8294.000000, 8082.500000, 8137.500000
1736, 129640248.000000, 2286.000000, 8087.500000, 8076.000000, 8057.500000
1737, 129640408.000000, 2249.125000, 8162.000000, 8171.000000, 8162.500000
1738, 129640568.000000, 2160.875000, 8196.500000, 8194.500000, 8188.000000
1739, 129640728.000000, 2093.625000, 8209.500000, 8201.000000, 8194.000000
1740, 129640888.000000, 2102.500000, 8218.000000, 8193.000000, 8196.500000
1741, 129641048.000000, 2124.500000, 8241.500000, 8191.000000, 8198.000000
1742, 129641208.000000, 2075.250000, 8260.000000, 8194.000000, 8212.500000
1743, 129641368.000000, 1952.125000, 8272.500000, 8201.500000, 8218.000000
1744, 129641528.000000, 1853.375000, 8286.000000, 8203.000000, 8227.000000
1745, 129641688.000000, 1828.625000, 8278.000000, 8213.500000, 8238.500000
1746, 129641848.000000, 1815.250000, 8244.500000, 8225.000000, 8237.000000
1747, 129642008.000000, 1751.125000, 8210.000000, 8216.000000, 8224.000000
1748, 129642168.000000, 1651.000000, 8189.500000, 8204.000000, 8200.500000
1749, 129642328.000000, 1583.375000, 8173.500000, 8205.000000, 8196.000000
1750, 129642488.000000, 1553.375000, 8161.500000, 8202.000000, 8194.000000
1751, 129642648.000000, 1509.125000, 8160.000000, 8203.000000, 8195.000000
1752, 129642808.000000, 1448.250000, 8180.500000, 8195.500000, 8193.000000
1753, 129642968.000000, 1381.250000, 8188.500000, 8196.000000, 8198.500000
1754, 129643128.000000, 1312.500000, 8198.000000, 8202.000000, 8205.000000
1755, 129643288.000000, 1249.875000, 8213.000000, 8192.500000, 8198.500000
1756, 129643448.000000, 1217.875000, 8195.000000, 8186.000000, 8190.000000
1757, 129643608.000000, 1223.250000, 8193.000000, 8188.000000, 8191.000000
1758, 129643768.000000, 1221.125000, 8207.500000, 8185.000000, 8189.000000
1759, 129643928.000000, 1149.000000, 8208.500000, 8181.000000, 8191.000000
1760, 129644088.000000, 1047.750000, 8221.000000, 8200.000000, 8218.500000
1761, 129644248.000000, 1001.250000, 8230.000000, 8191.500000, 8212.000000
1762, 129644408.000000, 1069.625000, 8238.000000, 8171.000000, 8187.500000
1763, 129644568.000000, 1216.125000, 8217.500000, 8165.500000, 8167.500000
1764, 129644728.000000, 1386.500000, 8205.000000, 8169.500000, 8170.000000
1765, 129644888.000000, 1534.875000, 8193.500000, 8178.500000, 8173.000000
1766, 129645048.000000, 1660.000000, 8185.500000, 8184.500000, 8176.500000
1767, 129645208.000000, 1765.750000, 8232.500000, 8223.500000, 8242.500000
1768, 129645368.000000, 1810.625000, 8532.000000, 8011.000000, 8132.000000
1769, 129645528.000000, 1764.625000, 8103.000000, 8083.000000, 8075.000000
1770, 129645688.000000, 1675.500000, 8188.500000, 8141.500000, 8147.000000
1771, 129645848.000000, 1612.375000, 8211.500000, 8180.500000, 8180.500000
1772, 129646008.000000, 1584.250000, 8241.000000, 8176.000000, 8181.500000
1773, 129646168.000000, 1515.125000, 8264.500000, 8168.500000, 8185.000000
1774, 129646328.000000, 1377.000000, 8262.000000, 8177.500000, 8196.000000
1775, 129646488.000000, 1217.625000, 8265.000000, 8181.500000, 8199.000000
1776, 129646648.000000, 1112.625000, 8285.000000, 8177.500000, 8203.500000
1777, 129646808.000000, 1080.500000, 8309.500000, 8190.500000, 8221.000000
1778, 129646968.000000, 1077.000000, 8292.000000, 8195.000000, 8221.500000
1779, 129647128.000000, 1055.875000, 8247.000000, 8216.000000, 8230.500000
1780, 129647288.000000, 991.750000, 8184.000000, 8215.500000, 8212.500000
1781, 129647448.000000, 916.250000, 8153.000000, 8209.000000, 8193.000000
1782, 129647608.000000, 861.250000, 8151.000000, 8195.500000, 8179.500000
1783, 129647768.000000, 824.125000, 8162.500000, 8183.500000, 8172.500000
1784, 129647928.000000, 785.250000, 8164.500000, 8188.500000, 8176.500000
1785, 129648088.000000, 732.625000, 8179.500000, 8187.500000, 8182.500000
1786, 129648248.000000, 665.500000, 8208.500000, 8177.500000, 8181.500000
1787, 129648408.000000, 595.875000, 8214.500000, 8178.500000, 8187.500000
1788, 129648568.000000, 536.750000, 8214.500000, 8177.500000, 8185.500000
1789, 129648728.000000, 481.375000, 8209.000000, 8177.500000, 8186.000000
1790, 129648888.000000, 416.625000, 8218.000000, 8182.500000, 8188.000000
1791, 129649048.000000, 344.875000, 8216.000000, 8185.000000, 8196.000000
1792, 129649208.000000, 290.125000, 8200.500000, 8191.000000, 8209.000000
1793, 129649368.000000, 255.750000, 8217.500000, 8195.000000, 8208.000000
1794, 129649528.000000, 211.625000, 8202.500000, 8182.000000, 8187.000000
1795, 129649688.000000, 170.250000, 8187.500000, 8174.000000, 8169.000000
1796, 129649848.000000, 211.875000, 8194.000000, 8172.500000, 8166.000000
1797, 129650008.000000, 387.125000, 8192.500000, 8172.500000, 8169.000000
1798, 129650168.000000, 612.250000, 8187.500000, 8179.500000, 8180.500000
1799, 129650328.000000, 740.625000, 8246.000000, 8219.500000, 8241.500000
1800, 129650488.000000, 739.250000, 8516.000000, 8026.500000, 8153.500000
1801, 129650648.000000, 664.375000, 8070.000000, 8090.500000, 8071.500000
1802, 129650808.000000, 596.125000, 8178.000000, 8150.000000, 8153.500000
1803, 129650968.000000, 527.375000, 8207.000000, 8192.500000, 8191.500000
1804, 129651128.000000, 400.500000, 8201.500000, 8195.000000, 8195.500000
1805, 129651288.000000, 206.875000, 8198.000000, 8204.000000, 8198.000000
1806, 129651448.000000, 48.375000, 8194.000000, 8211.500000, 8201.000000
1807, 129651608.000000, 9.125000, 8231.000000, 8206.000000, 8211.000000
1808, 129651768.000000, 2.125000, 8280.000000, 8199.500000, 8221.000000
1809, 129651928.000000, 1.000000, 8302.000000, 8194.000000, 8232.500000
1810, 129652088.000000, 1.000000, 8297.000000, 8203.000000, 8233.000000
1811, 129652248.000000, 2.500000, 8250.000000, 8217.500000, 8236.500000
1812, 129652408.000000, 28.125000, 8206.500000, 8214.500000, 8221.000000
1813, 129652568.000000, 79.875000, 8168.000000, 8207.000000, 8202.000000
1814, 129652728.000000, 116.000000, 8153.500000, 8198.000000, 8186.500000
1815, 129652888.000000, 105.250000, 8150.000000, 8197.000000, 8185.500000
1816, 129653048.000000, 92.000000, 8147.000000, 8192.500000, 8181.500000
1817, 129653208.000000, 120.375000, 8161.500000, 8194.500000, 8184.500000
1818, 129653368.000000, 158.375000, 8165.500000, 8200.500000, 8193.000000
1819, 129653528.000000, 160.000000, 8161.500000, 8203.500000, 8195.500000
1820, 129653688.000000, 134.375000, 8165.500000, 8195.500000, 8190.500000
1821, 129653848.000000, 146.875000, 8179.500000, 8199.000000, 8193.000000
1822, 129654008.000000, 218.625000, 8183.500000, 8191.000000, 8189.500000
1823, 129654168.000000, 310.375000, 8178.500000, 8195.000000, 8197.000000
1824, 129654328.000000, 374.625000, 8184.500000, 8199.500000, 8212.500000
1825, 129654488.000000, 413.250000, 8204.000000, 8199.000000, 8207.000000
1826, 129654648.000000, 463.750000, 8177.500000, 8184.000000, 8186.000000
1827, 129654808.000000, 565.750000, 8177.500000, 8182.000000, 8175.500000
1828, 129654968.000000, 741.125000, 8177.000000, 8188.500000, 8178.000000
1829, 129655128.000000, 962.125000, 8181.500000, 8182.500000, 8179.000000
1830, 129655288.000000, 1177.000000, 8184.500000, 8185.500000, 8181.000000
1831, 129655448.000000, 1333.500000, 8213.000000, 8234.500000, 8237.500000
1832, 129655608.000000, 1450.625000, 8605.500000, 8020.500000, 8172.000000
1833, 129655768.000000, 1544.000000, 8082.000000, 8125.500000, 8107.500000
1834, 129655928.000000, 1596.500000, 8172.000000, 8154.500000, 8157.500000
1835, 129656088.000000, 1586.625000, 8196.000000, 8186.500000, 8191.000000
1836, 129656248.000000, 1532.125000, 8198.000000, 8195.500000, 8191.000000
1837, 129656408.000000, 1468.625000, 8208.500000, 8195.500000, 8198.500000
1838, 129656568.000000, 1404.375000, 8223.000000, 8200.000000, 8207.500000
1839, 129656728.000000, 1328.000000, 8252.000000, 8206.000000, 8220.000000
1840, 129656888.000000, 1249.750000, 8269.000000, 8199.000000, 8224.500000
1841, 129657048.000000, 1190.875000, 8290.000000, 8197.000000, 8229.000000
1842, 129657208.000000, 1151.625000, 8286.500000, 8202.500000, 8235.500000
1843, 129657368.000000, 1127.000000, 8260.500000, 8212.500000, 8237.000000
1844, 129657528.000000, 1111.625000, 8200.500000, 8224.000000, 8233.500000
1845, 129657688.000000, 1104.875000, 8155.500000, 8219.000000, 8206.000000
1846, 129657848.000000, 1093.750000, 8141.000000, 8205.500000, 8188.500000
1847, 129658008.000000, 1068.500000, 8139.500000, 8199.500000, 8184.000000
1848, 129658168.000000, 1033.875000, 8139.500000, 8202.500000, 8187.000000
1849, 129658328.000000, 994.375000, 8139.000000, 8204.000000, 8189.000000
1850, 129658488.000000, 961.500000, 8138.500000, 8202.500000, 8194.000000
1851, 129658648.000000, 946.875000, 8145.000000, 8204.500000, 8190.500000
1852, 129658808.000000, 938.625000, 8139.000000, 8204.000000, 8185.000000
1853, 129658968.000000, 901.500000, 8145.000000, 8202.500000, 8190.500000
1854, 129659128.000000, 856.875000, 8151.000000, 8205.000000, 8194.000000
1855, 129659288.000000, 843.625000, 8155.500000, 8197.000000, 8192.000000
1856, 129659448.000000, 843.125000, 8171.500000, 8198.000000, 8192.500000
1857, 129659608.000000, 835.875000, 8175.000000, 8199.000000, 8206.500000
1858, 129659768.000000, 845.750000, 8166.000000, 8210.500000, 8213.000000
1859, 129659928.000000, 912.500000, 8156.000000, 8196.500000, 8190.500000
1860, 129660088.000000, 1045.500000, 8137.000000, 8197.000000, 8179.000000
1861, 129660248.000000, 1214.625000, 8128.000000, 8199.000000, 8176.000000
1862, 129660408.000000, 1389.625000, 8129.500000, 8196.500000, 8172.000000
1863, 129660568.000000, 1529.000000, 8134.500000, 8200.500000, 8184.500000
1864, 129660728.000000, 1623.375000, 8152.500000, 8253.500000, 8250.500000
1865, 129660888.000000, 1678.000000, 8552.500000, 8020.500000, 8158.000000
1866, 129661048.000000, 1710.625000, 8009.500000, 8130.000000, 8097.000000
1867, 129661208.000000, 1714.250000, 8082.000000, 8169.000000, 8151.000000
1868, 129661368.000000, 1664.375000, 8127.500000, 8213.500000, 8192.500000
1869, 129661528.000000, 1577.500000, 8123.000000, 8221.500000, 8200.000000
1870, 129661688.000000, 1497.500000, 8132.500000, 8222.000000, 8203.500000
1871, 129661848.000000, 1447.000000, 8150.000000, 8222.000000, 8205.500000
1872, 129662008.000000, 1401.625000, 8172.000000, 8227.000000, 8216.000000
1873, 129662168.000000, 1343.000000, 8193.000000, 8230.000000, 8232.500000
1874, 129662328.000000, 1292.125000, 8208.500000, 8227.500000, 8239.500000
1875, 129662488.000000, 1257.625000, 8232.500000, 8230.000000, 8247.000000
1876, 129662648.000000, 1236.125000, 8230.000000, 8228.500000, 8250.000000
1877, 129662808.000000, 1207.750000, 8198.500000, 8227.000000, 8235.500000
1878, 129662968.000000, 1170.000000, 8178.500000, 8211.500000, 8212.500000
1879, 129663128.000000, 1135.875000, 8172.500000, 8197.000000, 8194.500000
1880, 129663288.000000, 1111.250000, 8180.500000, 8191.000000, 8190.500000
1881, 129663448.000000, 1090.000000, 8180.500000, 8187.500000, 8191.500000
1882, 129663608.000000, 1070.875000, 8190.000000, 8187.500000, 8189.000000
1883, 129663768.000000, 1053.375000, 8183.000000, 8192.500000, 8193.500000
1884, 129663928.000000, 1038.750000, 8186.000000, 8188.500000, 8194.500000
1885, 129664088.000000, 1018.375000, 8201.000000, 8183.500000, 8191.500000
1886, 129664248.000000, 1002.750000, 8194.500000, 8190.500000, 8198.000000
1887, 129664408.000000, 985.000000, 8193.000000, 8184.500000, 8190.000000
1888, 129664568.000000, 960.375000, 8193.500000, 8184.000000, 8192.000000
1889, 129664728.000000, 938.000000, 8213.000000, 8192.000000, 8210.000000
1890, 129664888.000000, 920.750000, 8215.000000, 8196.000000, 8215.500000
1891, 129665048.000000, 917.625000, 8216.500000, 8190.500000, 8207.000000
1892, 129665208.000000, 961.625000, 8207.500000, 8178.500000, 8186.000000
1893, 129665368.000000, 1080.250000, 8188.000000, 8170.500000, 8176.000000
1894, 129665528.000000, 1250.000000, 8192.000000, 8175.500000, 8176.500000
1895, 129665688.000000, 1427.500000, 8193.500000, 8177.000000, 8179.000000
1896, 129665848.000000, 1582.875000, 8191.000000, 8185.500000, 8185.000000
1897, 129666008.000000, 1699.125000, 8277.500000, 8207.000000, 8239.000000
1898, 129666168.000000, 1761.000000, 8518.000000, 8027.000000, 8153.500000
1899, 129666328.000000, 1772.875000, 8096.500000, 8092.500000, 8075.500000
1900, 129666488.000000, 1759.000000, 8181.000000, 8168.000000, 8169.500000
1901, 129666648.000000, 1726.250000, 8205.500000, 8192.500000, 8191.500000
1902, 129666808.000000, 1669.375000, 8220.000000, 8194.500000, 8201.000000
1903, 129666968.000000, 1590.625000, 8239.000000, 8190.500000, 8206.000000
1904, 129667128.000000, 1512.625000, 8253.500000, 8199.500000, 8217.500000
1905, 129667288.000000, 1452.875000, 8255.500000, 8201.000000, 8227.500000
1906, 129667448.000000, 1414.625000, 8280.000000, 8200.500000, 8231.000000
1907, 129667608.000000, 1396.500000, 8309.000000, 8202.000000, 8244.000000
1908, 129667768.000000, 1393.750000, 8332.000000, 8197.500000, 8248.000000
1909, 129667928.000000, 1406.875000, 8306.000000, 8211.500000, 8254.500000
1910, 129668088.000000, 1411.125000, 8241.500000, 8210.000000, 8234.000000
1911, 129668248.000000, 1393.250000, 8196.000000, 8203.000000, 8205.500000
1912, 129668408.000000, 1365.375000, 8166.500000, 8201.500000, 8194.000000
1913, 129668568.000000, 1343.500000, 8163.500000, 8192.500000, 8186.000000
1914, 129668728.000000, 1335.375000, 8192.000000, 8195.000000, 8196.000000
1915, 129668888.000000, 1323.000000, 8194.000000, 8195.000000, 8197.000000
1916, 129669048.000000, 1302.000000, 8197.500000, 8198.000000, 8191.000000
1917, 129669208.000000, 1293.750000, 8182.000000, 8197.000000, 8191.500000
1918, 129669368.000000, 1308.000000, 8170.000000, 8200.000000, 8197.500000
1919, 129669528.000000, 1309.750000, 8165.500000, 8199.500000, 8201.000000
1920, 129669688.000000, 1279.000000, 8171.000000, 8199.500000, 8199.500000
1921, 129669848.000000, 1239.500000, 8178.000000, 8197.500000, 8194.500000
1922, 129670008.000000, 1237.375000, 8183.000000, 8197.000000, 8198.000000
1923, 129670168.000000, 1267.125000, 8185.500000, 8208.000000, 8221.500000
1924, 129670328.000000, 1323.625000, 8192.500000, 8205.500000, 8215.500000
1925, 129670488.000000, 1431.375000, 8185.500000, 8195.000000, 8200.000000
1926, 129670648.000000, 1595.125000, 8167.500000, 8192.000000, 8179.000000
1927, 129670808.000000, 1772.500000, 8161.500000, 8190.000000, 8174.000000
1928, 129670968.000000, 1933.375000, 8167.500000, 8195.000000, 8185.000000
1929, 129671128.000000, 2060.500000, 8170.500000, 8190.500000, 8189.000000
1930, 129671288.000000, 2155.875000, 8167.000000, 8261.000000, 8267.500000
1931, 129671448.000000, 2210.625000, 8559.500000, 8019.000000, 8150.000000
1932, 129671608.000000, 2230.750000, 8074.000000, 8116.000000, 8110.000000
1933, 129671768.000000, 2208.750000, 8125.000000, 8141.500000, 8137.000000
1934, 129671928.000000, 2157.750000, 8176.000000, 8207.000000, 8202.500000
1935, 129672088.000000, 2091.500000, 8168.000000, 8217.000000, 8209.500000
1936, 129672248.000000, 2026.875000, 8181.500000, 8212.000000, 8213.000000
1937, 129672408.000000, 1980.000000, 8204.000000, 8208.000000, 8215.000000
1938, 129672568.000000, 1944.625000, 8232.000000, 8208.000000, 8228.500000
1939, 129672728.000000, 1913.250000, 8256.000000, 8209.000000, 8233.000000
1940, 129672888.000000, 1894.625000, 8276.000000, 8209.500000, 8250.500000
1941, 129673048.000000, 1892.375000, 8295.000000, 8212.500000, 8258.500000
1942, 129673208.000000, 1895.000000, 8283.000000, 8225.000000, 8262.500000
1943, 129673368.000000, 1878.500000, 8225.500000, 8234.500000, 8254.000000
1944, 129673528.000000, 1839.250000, 8165.000000, 8230.000000, 8226.500000
1945, 129673688.000000, 1790.625000, 8136.500000, 8224.500000, 8211.500000
1946, 129673848.000000, 1756.375000, 8139.000000, 8216.000000, 8196.000000
1947, 129674008.000000, 1743.625000, 8149.500000, 8209.500000, 8194.500000
1948, 129674168.000000, 1744.875000, 8152.000000, 8212.500000, 8200.000000
1949, 129674328.000000, 1739.125000, 8166.000000, 8214.500000, 8204.500000
1950, 129674488.000000, 1727.500000, 8158.500000, 8209.000000, 8201.000000
1951, 129674648.000000, 1719.250000, 8160.000000, 8211.500000, 8202.500000
1952, 129674808.000000, 1717.000000, 8150.000000, 8211.000000, 8200.000000
1953, 129674968.000000, 1720.750000, 8157.000000, 8215.000000, 8203.000000
1954, 129675128.000000, 1723.875000, 8172.000000, 8210.000000, 8206.000000
1955, 129675288.000000, 1723.375000, 8173.500000, 8220.000000, 8228.000000
1956, 129675448.000000, 1734.000000, 8183.500000, 8212.000000, 8211.500000
1957, 129675608.000000, 1791.500000, 8176.500000, 8207.000000, 8206.000000
1958, 129675768.000000, 1905.250000, 8161.000000, 8193.500000, 8183.000000
1959, 129675928.000000, 2065.500000, 8160.000000, 8188.500000, 8182.500000
1960, 129676088.000000, 2242.000000, 8165.000000, 8189.500000, 8176.000000
1961, 129676248.000000, 2410.500000, 8161.000000, 8197.500000, 8179.500000
1962, 129676408.000000, 2531.125000, 8152.500000, 8266.500000, 8262.500000
1963, 129676568.000000, 2590.125000, 8488.000000, 8062.000000, 8162.500000
1964, 129676728.000000, 2609.250000, 8083.000000, 8108.000000, 8096.500000
1965, 129676888.000000, 2625.875000, 8121.000000, 8118.500000, 8106.500000
1966, 129677048.000000, 2627.625000, 8182.000000, 8193.500000, 8187.500000
1967, 129677208.000000, 2580.625000, 8171.500000, 8204.500000, 8193.000000
1968, 129677368.000000, 2515.250000, 8184.500000, 8209.500000, 8199.500000
1969, 129677528.000000, 2462.250000, 8192.500000, 8213.000000, 8205.500000
1970, 129677688.000000, 2414.500000, 8211.000000, 8206.500000, 8210.000000
1971, 129677848.000000, 2364.750000, 8235.500000, 8208.000000, 8214.000000
1972, 129678008.000000, 2311.500000, 8265.000000, 8213.500000, 8229.000000
1973, 129678168.000000, 2270.125000, 8278.000000, 8217.000000, 8240.500000
1974, 129678328.000000, 2237.625000, 8268.500000, 8227.000000, 8251.000000
1975, 129678488.000000, 2210.625000, 8210.000000, 8236.000000, 8242.000000
1976, 129678648.000000, 2186.375000, 8156.000000, 8223.000000, 8211.500000
1977, 129678808.000000, 2157.125000, 8147.500000, 8210.000000, 8184.500000
1978, 129678968.000000, 2125.500000, 8144.500000, 8201.000000, 8180.500000
1979, 129679128.000000, 2103.750000, 8151.500000, 8204.000000, 8184.500000
1980, 129679288.000000, 2093.375000, 8142.000000, 8204.000000, 8185.000000
1981, 129679448.000000, 2080.375000, 8137.000000, 8201.500000, 8185.000000
1982, 129679608.000000, 2064.625000, 8156.500000, 8204.000000, 8185.500000
1983, 129679768.000000, 2057.250000, 8163.000000, 8200.500000, 8185.500000
1984, 129679928.000000, 2051.250000, 8166.500000, 8201.500000, 8187.000000
1985, 129680088.000000, 2048.375000, 8168.000000, 8199.000000, 8184.500000
1986, 129680248.000000, 2054.500000, 8169.500000, 8201.500000, 8201.500000
1987, 129680408.000000, 2073.750000, 8177.000000, 8210.000000, 8203.500000
1988, 129680568.000000, 2105.125000, 8183.500000, 8203.500000, 8198.000000
1989, 129680728.000000, 2153.375000, 8166.000000, 8190.500000, 8173.500000
1990, 129680888.000000, 2225.000000, 8146.500000, 8186.500000, 8162.500000
1991, 129681048.000000, 2318.000000, 8140.000000, 8185.500000, 8160.000000
1992, 129681208.000000, 2420.750000, 8159.000000, 8185.000000, 8159.500000
1993, 129681368.000000, 2536.875000, 8166.500000, 8193.000000, 8173.000000
1994, 129681528.000000, 2671.250000, 8252.500000, 8224.000000, 8237.500000
1995, 129681688.000000, 2781.500000, 8376.500000, 8041.500000, 8112.500000
1996, 129681848.000000, 2819.375000, 8048.000000, 8076.500000, 8033.000000
1997, 129682008.000000, 2788.125000, 8149.000000, 8165.000000, 8142.000000
1998, 129682168.000000, 2730.125000, 8166.500000, 8202.500000, 8179.000000
1999, 129682328.000000, 2654.875000, 8174.000000, 8206.500000, 8187.500000
2000, 129682488.000000, 2550.000000, 8185.500000, 8205.500000, 8191.500000
2001, 129682648.000000, 2417.875000, 8204.000000, 8209.500000, 8198.000000
2002, 129682808.000000, 2305.875000, 8216.500000, 8209.000000, 8205.000000
2003, 129682968.000000, 2238.875000, 8245.500000, 8207.500000, 8212.500000
2004, 129683128.000000, 2194.250000, 8275.000000, 8211.500000, 8230.000000
2005, 129683288.000000, 2146.500000, 8278.000000, 8219.000000, 8243.500000
2006, 129683448.000000, 2103.750000, 8239.500000, 8239.500000, 8252.000000
2007, 129683608.000000, 2086.500000, 8186.500000, 8236.000000, 8226.500000
2008, 129683768.000000, 2073.000000, 8159.500000, 8216.000000, 8197.500000
2009, 129683928.000000, 2040.500000, 8155.500000, 8207.000000, 8188.000000
2010, 129684088.000000, 1983.000000, 8145.000000, 8206.500000, 8183.500000
2011, 129684248.000000, 1930.625000, 8140.000000, 8206.500000, 8183.500000
2012, 129684408.000000, 1897.250000, 8145.000000, 8204.000000, 8181.000000
2013, 129684568.000000, 1886.250000, 8149.000000, 8201.000000, 8182.000000
2014, 129684728.000000, 1872.125000, 8160.500000, 8205.000000, 8191.500000
2015, 129684888.000000, 1836.625000, 8155.000000, 8204.500000, 8191.000000
2016, 129685048.000000, 1801.250000, 8148.000000, 8202.500000, 8185.500000
2017, 129685208.000000, 1795.125000, 8163.000000, 8203.000000, 8193.000000
2018, 129685368.000000, 1801.875000, 8176.000000, 8213.000000, 8217.500000
2019, 129685528.000000, 1778.250000, 8184.000000, 8208.500000, 8211.000000
2020, 129685688.000000, 1731.250000, 8171.000000, 8199.000000, 8193.000000
2021, 129685848.000000, 1729.375000, 8145.500000, 8192.500000, 8169.000000
2022, 129686008.000000, 1806.625000, 8139.000000, 8189.500000, 8171.500000
2023, 129686168.000000, 1951.000000, 8155.500000, 8189.500000, 8173.500000
2024, 129686328.000000, 2104.625000, 8180.000000, 8185.000000, 8180.000000
2025, 129686488.000000, 2230.875000, 8186.000000, 8257.000000, 8265.000000
2026, 129686648.000000, 2335.125000, 8507.500000, 8016.000000, 8132.000000
2027, 129686808.000000, 2416.375000, 8049.000000, 8088.000000, 8073.000000
2028, 129686968.000000, 2455.875000, 8130.000000, 8133.500000, 8122.500000
2029, 129687128.000000, 2441.000000, 8186.000000, 8198.500000, 8197.500000
2030, 129687288.000000, 2393.625000, 8187.500000, 8207.500000, 8202.000000
2031, 129687448.000000, 2352.375000, 8188.000000, 8206.000000, 8197.500000
2032, 129687608.000000, 2310.500000, 8206.500000, 8204.500000, 8211.000000
2033, 129687768.000000, 2233.375000, 8226.500000, 8206.500000, 8217.500000
2034, 129687928.000000, 2136.750000, 8243.500000, 8209.500000, 8232.000000
2035, 129688088.000000, 2074.875000, 8267.500000, 8209.000000, 8236.500000
2036, 129688248.000000, 2062.125000, 8290.500000, 8217.500000, 8255.500000
2037, 129688408.000000, 2048.500000, 8269.000000, 8229.000000, 8257.500000
2038, 129688568.000000, 2003.875000, 8204.500000, 8238.000000, 8251.500000
2039, 129688728.000000, 1937.500000, 8144.500000, 8227.000000, 8219.000000
2040, 129688888.000000, 1876.625000, 8140.000000, 8213.500000, 8197.000000
2041, 129689048.000000, 1838.625000, 8148.000000, 8205.000000, 8189.000000
2042, 129689208.000000, 1828.125000, 8151.000000, 8205.000000, 8189.000000
2043, 129689368.000000, 1831.000000, 8157.500000, 8201.000000, 8192.500000
2044, 129689528.000000, 1821.875000, 8157.500000, 8204.000000, 8186.500000
2045, 129689688.000000, 1779.250000, 8153.000000, 8205.000000, 8192.500000
2046, 129689848.000000, 1706.875000, 8142.500000, 8204.500000, 8187.000000
2047, 129690008.000000, 1650.875000, 8142.500000, 8203.000000, 8185.500000
2048, 129690168.000000, 1651.000000, 8150.000000, 8199.500000, 8183.500000
2049, 129690328.000000, 1672.625000, 8153.500000, 8202.500000, 8184.000000
2050, 129690488.000000, 1637.000000, 8168.500000, 8212.500000, 8208.000000
2051, 129690648.000000, 1571.875000, 8171.500000, 8205.500000, 8197.000000
2052, 129690808.000000, 1546.375000, 8159.500000, 8199.000000, 8187.500000
2053, 129690968.000000, 1575.250000, 8136.500000, 8188.500000, 8159.000000
2054, 129691128.000000, 1648.500000, 8143.500000, 8186.000000, 8161.000000
2055, 129691288.000000, 1770.000000, 8141.500000, 8186.500000, 8158.500000
2056, 129691448.000000, 1909.375000, 8143.000000, 8186.000000, 8156.500000
2057, 129691608.000000, 2015.250000, 8143.000000, 8250.500000, 8237.000000
2058, 129691768.000000, 2068.125000, 8407.000000, 8080.500000, 8144.000000
2059, 129691928.000000, 2095.125000, 8073.500000, 8093.500000, 8076.000000
2060, 129692088.000000, 2127.250000, 8099.000000, 8103.000000, 8071.000000
2061, 129692248.000000, 2145.375000, 8161.500000, 8184.500000, 8167.500000
2062, 129692408.000000, 2135.000000, 8160.000000, 8197.000000, 8176.000000
2063, 129692568.000000, 2100.625000, 8168.000000, 8198.500000, 8182.000000
2064, 129692728.000000, 2048.000000, 8170.500000, 8199.000000, 8185.000000
2065, 129692888.000000, 1981.625000, 8193.000000, 8202.000000, 8194.000000
2066, 129693048.000000, 1931.875000, 8215.000000, 8205.500000, 8199.500000
2067, 129693208.000000, 1911.625000, 8237.500000, 8208.000000, 8207.500000
2068, 129693368.000000, 1918.375000, 8259.000000, 8216.500000, 8222.500000
2069, 129693528.000000, 1936.000000, 8250.000000, 8223.500000, 8234.500000
2070, 129693688.000000, 1954.250000, 8203.000000, 8237.500000, 8235.000000
2071, 129693848.000000, 1943.625000, 8156.500000, 8220.500000, 8202.500000
2072, 129694008.000000, 1910.000000, 8139.000000, 8205.000000, 8174.000000
2073, 129694168.000000, 1882.125000, 8132.000000, 8203.000000, 8169.500000
2074, 129694328.000000, 1880.750000, 8121.000000, 8199.500000, 8169.500000
2075, 129694488.000000, 1883.875000, 8135.500000, 8202.000000, 8170.000000
2076, 129694648.000000, 1865.375000, 8137.000000, 8202.000000, 8170.500000
2077, 129694808.000000, 1812.625000, 8137.000000, 8196.000000, 8164.000000
2078, 129694968.000000, 1757.375000, 8130.000000, 8192.500000, 8171.500000
2079, 129695128.000000, 1743.750000, 8147.000000, 8199.000000, 8174.500000
2080, 129695288.000000, 1758.125000, 8144.500000, 8191.000000, 8167.500000
2081, 129695448.000000, 1776.875000, 8155.000000, 8189.000000, 8164.000000
2082, 129695608.000000, 1777.375000, 8171.500000, 8199.500000, 8193.000000
2083, 129695768.000000, 1766.875000, 8186.500000, 8185.500000, 8185.500000
2084, 129695928.000000, 1767.625000, 8198.500000, 8179.500000, 8175.000000
2085, 129696088.000000, 1801.000000, 8173.000000, 8167.500000, 8145.000000
2086, 129696248.000000, 1873.875000, 8147.500000, 8173.500000, 8135.500000
2087, 129696408.000000, 1963.500000, 8139.500000, 8173.500000, 8136.000000
2088, 129696568.000000, 2056.250000, 8148.000000, 8174.000000, 8143.000000
2089, 129696728.000000, 2156.750000, 8142.000000, 8236.500000, 8217.500000
2090, 129696888.000000, 2258.125000, 8380.500000, 8078.500000, 8134.000000
2091, 129697048.000000, 2342.625000, 8044.500000, 8097.500000, 8068.500000
2092, 129697208.000000, 2380.875000, 8075.500000, 8095.000000, 8052.500000
2093, 129697368.000000, 2368.500000, 8139.000000, 8187.500000, 8154.500000
2094, 129697528.000000, 2336.500000, 8154.500000, 8194.000000, 8165.500000
2095, 129697688.000000, 2328.750000, 8163.500000, 8193.500000, 8172.000000
2096, 129697848.000000, 2335.750000, 8179.500000, 8190.500000, 8172.500000
2097, 129698008.000000, 2327.625000, 8200.500000, 8190.500000, 8181.500000
2098, 129698168.000000, 2294.000000, 8199.000000, 8194.500000, 8186.500000
2099, 129698328.000000, 2261.250000, 8224.000000, 8203.000000, 8203.500000
2100, 129698488.000000, 2239.125000, 8241.000000, 8213.000000, 8220.000000
2101, 129698648.000000, 2191.125000, 8233.500000, 8222.000000, 8225.500000
2102, 129698808.000000, 2108.625000, 8201.500000, 8231.000000, 8232.000000
2103, 129698968.000000, 2014.875000, 8162.000000, 8210.000000, 8199.500000
2104, 129699128.000000, 1935.750000, 8138.500000, 8206.500000, 8184.000000
2105, 129699288.000000, 1867.250000, 8116.500000, 8196.500000, 8173.500000
2106, 129699448.000000, 1812.250000, 8138.500000, 8194.000000, 8173.500000
2107, 129699608.000000, 1794.250000, 8143.500000, 8196.000000, 8175.000000
2108, 129699768.000000, 1783.875000, 8138.000000, 8196.500000, 8178.000000
2109, 129699928.000000, 1729.625000, 8136.500000, 8201.500000, 8184.500000
2110, 129700088.000000, 1640.625000, 8145.500000, 8197.500000, 8185.000000
2111, 129700248.000000, 1552.000000, 8167.500000, 8193.500000, 8179.500000
2112, 129700408.000000, 1485.750000, 8168.500000, 8194.000000, 8177.500000
2113, 129700568.000000, 1442.125000, 8150.500000, 8196.000000, 8178.500000
2114, 129700728.000000, 1415.125000, 8149.500000, 8204.000000, 8202.000000
2115, 129700888.000000, 1383.625000, 8163.500000, 8202.500000, 8199.500000
2116, 129701048.000000, 1338.375000, 8163.500000, 8193.000000, 8189.000000
2117, 129701208.000000, 1302.875000, 8151.500000, 8177.500000, 8161.000000
2118, 129701368.000000, 1322.750000, 8154.500000, 8171.000000, 8154.000000
2119, 129701528.000000, 1400.875000, 8170.000000, 8174.000000, 8158.500000
2120, 129701688.000000, 1485.250000, 8184.500000, 8171.500000, 8160.000000
2121, 129701848.000000, 1544.000000, 8178.500000, 8229.000000, 8228.000000
2122, 129702008.000000, 1615.000000, 8394.000000, 8100.000000, 8171.500000
2123, 129702168.000000, 1715.000000, 8110.500000, 8105.500000, 8105.500000
2124, 129702328.000000, 1800.500000, 8113.500000, 8088.500000, 8074.500000
2125, 129702488.000000, 1810.750000, 8190.500000, 8176.500000, 8175.500000
2126, 129702648.000000, 1759.125000, 8200.500000, 8188.500000, 8184.500000
2127, 129702808.000000, 1697.875000, 8200.000000, 8192.500000, 8194.500000
2128, 129702968.000000, 1668.750000, 8218.000000, 8191.000000, 8198.000000
2129, 129703128.000000, 1665.750000, 8240.500000, 8189.500000, 8208.000000
2130, 129703288.000000, 1671.750000, 8258.000000, 8188.000000, 8209.000000
2131, 129703448.000000, 1691.875000, 8273.000000, 8191.500000, 8215.500000
2132, 129703608.000000, 1728.125000, 8295.000000, 8197.500000, 8231.000000
2133, 129703768.000000, 1743.125000, 8282.000000, 8214.500000, 8247.500000
2134, 129703928.000000, 1702.250000, 8236.000000, 8224.000000, 8246.500000
2135, 129704088.000000, 1621.000000, 8189.500000, 8214.500000, 8219.500000
2136, 129704248.000000, 1561.125000, 8169.000000, 8204.500000, 8201.500000
2137, 129704408.000000, 1550.750000, 8177.500000, 8195.500000, 8193.000000
2138, 129704568.000000, 1547.625000, 8182.000000, 8194.500000, 8194.000000
2139, 129704728.000000, 1503.500000, 8172.000000, 8199.000000, 8199.000000
2140, 129704888.000000, 1429.625000, 8177.000000, 8197.500000, 8197.500000
2141, 129705048.000000, 1389.875000, 8174.000000, 8198.500000, 8197.000000
2142, 129705208.000000, 1399.875000, 8170.500000, 8198.500000, 8198.000000
2143, 129705368.000000, 1406.125000, 8174.500000, 8196.500000, 8201.000000
2144, 129705528.000000, 1369.750000, 8176.000000, 8195.500000, 8199.500000
2145, 129705688.000000, 1302.625000, 8166.000000, 8195.500000, 8193.500000
2146, 129705848.000000, 1257.500000, 8162.500000, 8205.000000, 8203.500000
2147, 129706008.000000, 1253.500000, 8164.500000, 8208.500000, 8219.000000
2148, 129706168.000000, 1278.875000, 8195.000000, 8205.500000, 8216.500000
2149, 129706328.000000, 1368.500000, 8191.000000, 8193.000000, 8199.500000
2150, 129706488.000000, 1526.875000, 8175.500000, 8185.500000, 8181.500000
2151, 129706648.000000, 1737.000000, 8177.500000, 8181.000000, 8174.500000
2152, 129706808.000000, 1954.250000, 8178.000000, 8180.500000, 8176.500000
2153, 129706968.000000, 2148.125000, 8181.000000, 8180.000000, 8182.500000
2154, 129707128.000000, 2288.125000, 8230.000000, 8244.000000, 8264.500000
2155, 129707288.000000, 2370.000000, 8508.500000, 8009.500000, 8131.500000
2156, 129707448.000000, 2421.750000, 8081.500000, 8077.500000, 8069.000000
2157, 129707608.000000, 2451.875000, 8175.500000, 8143.500000, 8152.500000
2158, 129707768.000000, 2447.250000, 8202.000000, 8187.000000, 8194.500000
2159, 129707928.000000, 2385.250000, 8218.000000, 8191.000000, 8197.500000
2160, 129708088.000000, 2297.250000, 8232.500000, 8188.500000, 8201.500000
2161, 129708248.000000, 2230.000000, 8248.000000, 8187.500000, 8205.000000
2162, 129708408.000000, 2206.625000, 8274.500000, 8190.000000, 8214.000000
2163, 129708568.000000, 2183.875000, 8282.500000, 8193.000000, 8226.000000
2164, 129708728.000000, 2122.375000, 8299.500000, 8197.000000, 8236.500000
2165, 129708888.000000, 2080.375000, 8304.000000, 8203.500000, 8236.500000
2166, 129709048.000000, 2084.000000, 8286.500000, 8209.500000, 8243.500000
2167, 129709208.000000, 2095.750000, 8242.500000, 8214.500000, 8236.000000
2168, 129709368.000000, 2096.125000, 8196.500000, 8205.500000, 8211.500000
2169, 129709528.000000, 2090.875000, 8189.500000, 8198.000000, 8196.500000
2170, 129709688.000000, 2069.750000, 8183.000000, 8188.000000, 8188.000000
2171, 129709848.000000, 2024.125000, 8178.000000, 8190.500000, 8192.500000
2172, 129710008.000000, 1973.500000, 8174.500000, 8191.000000, 8190.500000
2173, 129710168.000000, 1931.750000, 8181.000000, 8195.500000, 8198.000000
2174, 129710328.000000, 1890.500000, 8187.000000, 8200.500000, 8202.000000
2175, 129710488.000000, 1832.375000, 8187.000000, 8193.000000, 8198.500000
2176, 129710648.000000, 1780.250000, 8185.000000, 8189.500000, 8189.000000
2177, 129710808.000000, 1747.500000, 8188.500000, 8189.500000, 8193.000000
2178, 129710968.000000, 1710.125000, 8179.500000, 8187.000000, 8190.000000
2179, 129711128.000000, 1656.000000, 8180.500000, 8199.000000, 8214.500000
2180, 129711288.000000, 1601.375000, 8191.000000, 8198.500000, 8216.500000
2181, 129711448.000000, 1615.625000, 8198.000000, 8188.000000, 8202.000000
2182, 129711608.000000, 1752.625000, 8176.500000, 8177.000000, 8177.000000
2183, 129711768.000000, 2008.125000, 8170.000000, 8180.000000, 8173.000000
2184, 129711928.000000, 2291.250000, 8169.000000, 8176.500000, 8171.500000
2185, 129712088.000000, 2523.375000, 8169.500000, 8180.500000, 8174.500000
2186, 129712248.000000, 2662.625000, 8165.500000, 8203.000000, 8203.000000
2187, 129712408.000000, 2729.375000, 8337.000000, 8163.500000, 8221.500000
2188, 129712568.000000, 2764.500000, 8258.000000, 8074.000000, 8127.000000
2189, 129712728.000000, 2768.625000, 8077.500000, 8090.000000, 8072.000000
2190, 129712888.000000, 2716.250000, 8175.000000, 8174.500000, 8173.500000
2191, 129713048.000000, 2585.625000, 8193.000000, 8193.500000, 8191.500000
2192, 129713208.000000, 2459.250000, 8192.500000, 8194.500000, 8193.000000
2193, 129713368.000000, 2406.750000, 8205.000000, 8198.000000, 8202.500000
2194, 129713528.000000, 2400.250000, 8222.500000, 8198.000000, 8213.000000
2195, 129713688.000000, 2351.750000, 8250.500000, 8196.000000, 8215.000000
2196, 129713848.000000, 2233.500000, 8270.500000, 8193.500000, 8223.500000
2197, 129714008.000000, 2137.500000, 8285.000000, 8202.500000, 8236.500000
2198, 129714168.000000, 2122.250000, 8286.000000, 8212.000000, 8245.500000
2199, 129714328.000000, 2144.125000, 8255.000000, 8219.500000, 8246.500000
2200, 129714488.000000, 2122.125000, 8200.000000, 8214.000000, 8227.500000
2201, 129714648.000000, 2060.625000, 8172.000000, 8205.000000, 8204.500000
2202, 129714808.000000, 2003.625000, 8165.500000, 8201.000000, 8192.500000
2203, 129714968.000000, 1968.000000, 8163.000000, 8196.500000, 8191.500000
2204, 129715128.000000, 1951.750000, 8167.500000, 8196.500000, 8192.500000
2205, 129715288.000000, 1930.375000, 8169.500000, 8196.500000, 8194.000000
2206, 129715448.000000, 1891.875000, 8170.500000, 8198.000000, 8191.000000
2207, 129715608.000000, 1861.625000, 8177.000000, 8199.000000, 8194.000000
2208, 129715768.000000, 1834.500000, 8179.000000, 8198.500000, 8198.500000
2209, 129715928.000000, 1806.375000, 8168.500000, 8193.500000, 8193.000000
2210, 129716088.000000, 1795.250000, 8173.500000, 8191.500000, 8186.500000
2211, 129716248.000000, 1790.125000, 8177.000000, 8192.000000, 8184.500000
2212, 129716408.000000, 1774.750000, 8173.000000, 8201.000000, 8205.500000
2213, 129716568.000000, 1779.500000, 8190.500000, 8203.000000, 8212.000000
2214, 129716728.000000, 1837.875000, 8194.500000, 8197.000000, 8207.000000
2215, 129716888.000000, 1977.500000, 8168.500000, 8183.500000, 8175.000000
2216, 129717048.000000, 2212.500000, 8159.500000, 8176.500000, 8164.500000
2217, 129717208.000000, 2514.750000, 8169.000000, 8179.000000, 8165.000000
2218, 129717368.000000, 2775.875000, 8171.500000, 8181.500000, 8170.500000
2219, 129717528.000000, 2926.875000, 8160.000000, 8205.000000, 8199.000000
2220, 129717688.000000, 2990.750000, 8312.500000, 8167.000000, 8208.000000
2221, 129717848.000000, 3020.625000, 8278.500000, 8075.500000, 8121.500000
2222, 129718008.000000, 3031.000000, 8077.000000, 8090.000000, 8064.500000
2223, 129718168.000000, 2987.875000, 8170.500000, 8183.000000, 8172.000000
2224, 129718328.000000, 2902.000000, 8180.000000, 8199.000000, 8192.500000
2225, 129718488.000000, 2788.625000, 8183.000000, 8201.500000, 8195.000000
2226, 129718648.000000, 2669.750000, 8192.000000, 8203.000000, 8197.500000
2227, 129718808.000000, 2578.375000, 8206.500000, 8203.000000, 8202.000000
2228, 129718968.000000, 2541.125000, 8229.000000, 8208.000000, 8216.500000
2229, 129719128.000000, 2525.000000, 8247.500000, 8206.000000, 8226.000000
2230, 129719288.000000, 2496.875000, 8267.000000, 8210.500000, 8230.500000
2231, 129719448.000000, 2440.375000, 8260.500000, 8216.500000, 8234.000000
2232, 129719608.000000, 2388.250000, 8236.000000, 8226.500000, 8238.000000
2233, 129719768.000000, 2361.750000, 8178.000000, 8224.500000, 8219.500000
2234, 129719928.000000, 2348.625000, 8147.000000, 8212.500000, 8197.000000
2235, 129720088.000000, 2321.000000, 8127.000000, 8206.000000, 8185.000000
2236, 129720248.000000, 2278.125000, 8133.500000, 8204.500000, 8182.000000
2237, 129720408.000000, 2250.125000, 8145.000000, 8204.000000, 8185.000000
2238, 129720568.000000, 2245.125000, 8153.500000, 8201.000000, 8187.500000
2239, 129720728.000000, 2238.125000, 8154.500000, 8208.000000, 8192.000000
2240, 129720888.000000, 2220.125000, 8149.000000, 8210.000000, 8199.500000
2241, 129721048.000000, 2203.500000, 8153.500000, 8206.500000, 8192.000000
2242, 129721208.000000, 2199.000000, 8156.500000, 8195.500000, 8186.500000
2243, 129721368.000000, 2198.500000, 8169.000000, 8198.000000, 8191.000000
2244, 129721528.000000, 2179.250000, 8169.500000, 8197.500000, 8193.000000
2245, 129721688.000000, 2149.250000, 8173.000000, 8210.000000, 8219.500000
2246, 129721848.000000, 2138.875000, 8188.000000, 8203.500000, 8208.000000
2247, 129722008.000000, 2181.625000, 8189.000000, 8190.500000, 8196.500000
2248, 129722168.000000, 2307.625000, 8171.500000, 8187.500000, 8174.000000
2249, 129722328.000000, 2535.375000, 8170.500000, 8186.500000, 8178.500000
2250, 129722488.000000, 2837.375000, 8160.500000, 8186.000000, 8175.000000
2251, 129722648.000000, 3123.250000, 8183.500000, 8185.000000, 8174.000000
2252, 129722808.000000, 3316.875000, 8175.500000, 8241.000000, 8250.000000
2253, 129722968.000000, 3409.000000, 8567.000000, 8030.000000, 8161.000000
2254, 129723128.000000, 3424.250000, 8100.500000, 8108.000000, 8104.000000
2255, 129723288.000000, 3408.750000, 8140.500000, 8133.500000, 8131.500000
2256, 129723448.000000, 3393.000000, 8193.500000, 8193.500000, 8188.500000
2257, 129723608.000000, 3349.125000, 8205.500000, 8197.000000, 8193.500000
2258, 129723768.000000, 3245.375000, 8210.500000, 8200.000000, 8202.000000
2259, 129723928.000000, 3110.500000, 8218.500000, 8203.000000, 8208.500000
2260, 129724088.000000, 3001.375000, 8230.500000, 8200.500000, 8211.500000
2261, 129724248.000000, 2956.375000, 8256.000000, 8200.000000, 8223.500000
2262, 129724408.000000, 2940.875000, 8279.500000, 8202.500000, 8233.500000
2263, 129724568.000000, 2904.250000, 8296.000000, 8210.000000, 8248.000000
2264, 129724728.000000, 2852.750000, 8281.500000, 8216.500000, 8251.000000
2265, 129724888.000000, 2817.625000, 8233.000000, 8225.000000, 8242.000000
2266, 129725048.000000, 2801.500000, 8185.000000, 8214.000000, 8214.500000
2267, 129725208.000000, 2784.625000, 8160.500000, 8207.500000, 8193.000000
2268, 129725368.000000, 2766.750000, 8156.000000, 8202.000000, 8190.500000
2269, 129725528.000000, 2747.000000, 8162.000000, 8205.500000, 8196.500000
2270, 129725688.000000, 2729.625000, 8168.500000, 8205.000000, 8195.500000
2271, 129725848.000000, 2725.625000, 8164.500000, 8199.000000, 8196.000000
2272, 129726008.000000, 2706.875000, 8174.500000, 8201.000000, 8197.500000
2273, 129726168.000000, 2649.875000, 8167.500000, 8202.000000, 8195.000000
2274, 129726328.000000, 2597.000000, 8171.000000, 8204.000000, 8201.000000
2275, 129726488.000000, 2585.000000, 8171.500000, 8199.000000, 8193.500000
2276, 129726648.000000, 2580.625000, 8179.500000, 8193.500000, 8191.500000
2277, 129726808.000000, 2526.000000, 8175.000000, 8201.000000, 8205.500000
2278, 129726968.000000, 2446.750000, 8172.500000, 8204.000000, 8209.000000
2279, 129727128.000000, 2405.875000, 8183.000000, 8206.000000, 8210.000000
2280, 129727288.000000, 2434.750000, 8170.000000, 8189.000000, 8178.500000
2281, 129727448.000000, 2559.500000, 8156.500000, 8183.000000, 8167.500000
2282, 129727608.000000, 2761.875000, 8160.000000, 8184.500000, 8170.500000
2283, 129727768.000000, 2994.500000, 8167.500000, 8183.000000, 8173.000000
2284, 129727928.000000, 3217.250000, 8170.500000, 8199.500000, 8193.500000
2285, 129728088.000000, 3392.250000, 8264.500000, 8214.000000, 8236.500000
2286, 129728248.000000, 3493.500000, 8397.000000, 8057.500000, 8144.000000
2287, 129728408.000000, 3518.000000, 8062.000000, 8084.500000, 8058.500000
2288, 129728568.000000, 3515.875000, 8167.000000, 8170.500000, 8170.500000
2289, 129728728.000000, 3517.875000, 8194.500000, 8200.000000, 8195.000000
2290, 129728888.000000, 3482.750000, 8196.500000, 8204.000000, 8196.500000
2291, 129729048.000000, 3392.250000, 8209.500000, 8197.000000, 8194.000000
2292, 129729208.000000, 3259.750000, 8211.500000, 8201.000000, 8206.000000
2293, 129729368.000000, 3151.750000, 8228.500000, 8202.500000, 8212.000000
2294, 129729528.000000, 3098.000000, 8260.000000, 8208.000000, 8233.500000
2295, 129729688.000000, 3060.875000, 8292.500000, 8207.000000, 8234.000000
2296, 129729848.000000, 3033.375000, 8293.500000, 8210.000000, 8243.500000
2297, 129730008.000000, 3003.625000, 8252.000000, 8224.000000, 8247.000000
2298, 129730168.000000, 2947.375000, 8190.000000, 8223.000000, 8225.000000
2299, 129730328.000000, 2893.750000, 8152.000000, 8212.000000, 8200.500000
2300, 129730488.000000, 2869.750000, 8159.000000, 8199.000000, 8186.000000
2301, 129730648.000000, 2830.375000, 8156.500000, 8196.000000, 8180.500000
2302, 129730808.000000, 2761.625000, 8157.500000, 8197.500000, 8184.500000
2303, 129730968.000000, 2708.000000, 8158.500000, 8201.500000, 8188.500000
2304, 129731128.000000, 2675.500000, 8165.500000, 8200.000000, 8192.500000
2305, 129731288.000000, 2638.375000, 8172.500000, 8200.000000, 8195.500000
2306, 129731448.000000, 2604.625000, 8172.000000, 8199.000000, 8195.000000
2307, 129731608.000000, 2563.625000, 8169.500000, 8194.000000, 8183.500000
2308, 129731768.000000, 2485.375000, 8172.500000, 8192.000000, 8185.500000
2309, 129731928.000000, 2396.375000, 8174.500000, 8203.500000, 8205.000000
2310, 129732088.000000, 2340.000000, 8171.500000, 8206.000000, 8208.500000
2311, 129732248.000000, 2294.500000, 8190.500000, 8206.500000, 8203.000000
2312, 129732408.000000, 2239.750000, 8171.500000, 8187.500000, 8180.000000
2313, 129732568.000000, 2221.875000, 8159.500000, 8182.500000, 8166.000000
2314, 129732728.000000, 2311.375000, 8177.000000, 8184.500000, 8170.000000
2315, 129732888.000000, 2495.250000, 8170.000000, 8182.000000, 8170.500000
2316, 129733048.000000, 2715.875000, 8170.000000, 8192.500000, 8181.500000
2317, 129733208.000000, 2917.625000, 8248.000000, 8221.000000, 8238.500000
2318, 129733368.000000, 3071.375000, 8456.000000, 8034.500000, 8138.500000
2319, 129733528.000000, 3159.250000, 8071.500000, 8074.500000, 8053.500000
2320, 129733688.000000, 3179.500000, 8170.000000, 8170.500000, 8167.000000
2321, 129733848.000000, 3121.500000, 8194.000000, 8195.000000, 8189.500000
2322, 129734008.000000, 3007.500000, 8199.500000, 8201.000000, 8194.500000
2323, 129734168.000000, 2858.750000, 8216.000000, 8200.500000, 8202.500000
2324, 129734328.000000, 2711.000000, 8226.500000, 8198.000000, 8209.000000
2325, 129734488.000000, 2598.875000, 8250.500000, 8200.000000, 8216.000000
2326, 129734648.000000, 2525.375000, 8256.500000, 8207.000000, 8226.000000
2327, 129734808.000000, 2438.625000, 8285.000000, 8209.000000, 8237.000000
2328, 129734968.000000, 2326.750000, 8289.500000, 8215.500000, 8246.500000
2329, 129735128.000000, 2221.625000, 8261.500000, 8227.500000, 8251.000000
2330, 129735288.000000, 2161.250000, 8210.000000, 8223.000000, 8230.000000
2331, 129735448.000000, 2122.125000, 8161.500000, 8211.500000, 8203.500000
2332, 129735608.000000, 2054.875000, 8157.500000, 8200.000000, 8189.500000
2333, 129735768.000000, 1985.875000, 8163.000000, 8197.000000, 8185.000000
2334, 129735928.000000, 1955.625000, 8163.000000, 8201.500000, 8189.500000
2335, 129736088.000000, 1943.875000, 8162.000000, 8206.500000, 8196.000000
2336, 129736248.000000, 1895.250000, 8168.500000, 8197.500000, 8192.000000
2337, 129736408.000000, 1836.000000, 8176.000000, 8202.000000, 8195.000000
2338, 129736568.000000, 1815.375000, 8167.000000, 8197.000000, 8198.000000
2339, 129736728.000000, 1793.500000, 8164.500000, 8200.500000, 8195.500000
2340, 129736888.000000, 1726.875000, 8168.500000, 8198.500000, 8194.000000
2341, 129737048.000000, 1671.500000, 8182.000000, 8213.000000, 8216.500000
2342, 129737208.000000, 1656.375000, 8185.500000, 8205.000000, 8211.500000
2343, 129737368.000000, 1635.875000, 8185.000000, 8202.500000, 8209.500000
2344, 129737528.000000, 1614.625000, 8160.500000, 8186.500000, 8179.000000
2345, 129737688.000000, 1649.500000, 8171.000000, 8184.000000, 8176.500000
2346, 129737848.000000, 1791.875000, 8170.000000, 8183.000000, 8176.000000
2347, 129738008.000000, 2034.750000, 8172.000000, 8189.000000, 8183.000000
2348, 129738168.000000, 2336.375000, 8166.000000, 8228.000000, 8229.000000
2349, 129738328.000000, 2638.625000, 8397.000000, 8131.500000, 8211.000000
2350, 129738488.000000, 2881.375000, 8165.500000, 8102.500000, 8120.500000
2351, 129738648.000000, 3034.875000, 8086.500000, 8104.500000, 8082.500000
2352, 129738808.000000, 3109.875000, 8176.000000, 8189.500000, 8188.000000
2353, 129738968.000000, 3100.500000, 8181.500000, 8203.500000, 8201.000000
2354, 129739128.000000, 3021.875000, 8196.500000, 8204.500000, 8203.500000
2355, 129739288.000000, 2913.625000, 8214.500000, 8205.500000, 8208.500000
2356, 129739448.000000, 2782.875000, 8220.000000, 8204.500000, 8214.000000
2357, 129739608.000000, 2624.500000, 8233.000000, 8207.500000, 8223.000000
2358, 129739768.000000, 2462.500000, 8257.500000, 8215.500000, 8239.500000
2359, 129739928.000000, 2361.250000, 8284.500000, 8220.000000, 8251.500000
2360, 129740088.000000, 2310.250000, 8280.000000, 8225.000000, 8254.500000
2361, 129740248.000000, 2271.000000, 8231.000000, 8231.000000, 8248.000000
2362, 129740408.000000, 2233.625000, 8184.500000, 8226.500000, 8228.500000
2363, 129740568.000000, 2202.125000, 8160.000000, 8209.500000, 8205.500000
2364, 129740728.000000, 2169.500000, 8144.000000, 8205.000000, 8198.000000
2365, 129740888.000000, 2136.750000, 8146.500000, 8205.500000, 8192.500000
2366, 129741048.000000, 2095.375000, 8150.500000, 8206.500000, 8195.000000
2367, 129741208.000000, 2037.750000, 8154.000000, 8205.500000, 8201.500000
2368, 129741368.000000, 1981.875000, 8164.500000, 8205.500000, 8205.500000
2369, 129741528.000000, 1931.250000, 8157.000000, 8205.000000, 8201.000000
2370, 129741688.000000, 1890.875000, 8165.500000, 8205.000000, 8198.500000
2371, 129741848.000000, 1854.000000, 8156.500000, 8203.000000, 8195.500000
2372, 129742008.000000, 1808.500000, 8167.500000, 8215.000000, 8218.500000
2373, 129742168.000000, 1756.125000, 8178.500000, 8214.000000, 8220.000000
2374, 129742328.000000, 1714.625000, 8177.500000, 8205.500000, 8211.000000
2375, 129742488.000000, 1688.875000, 8159.000000, 8195.000000, 8184.500000
2376, 129742648.000000, 1657.625000, 8149.500000, 8190.500000, 8170.500000
2377, 129742808.000000, 1642.500000, 8153.000000, 8187.000000, 8171.500000
2378, 129742968.000000, 1747.750000, 8149.000000, 8189.500000, 8177.000000
2379, 129743128.000000, 2008.125000, 8149.000000, 8220.000000, 8209.000000
2380, 129743288.000000, 2356.125000, 8327.000000, 8174.500000, 8224.500000
2381, 129743448.000000, 2659.375000, 8177.000000, 8089.000000, 8111.000000
2382, 129743608.000000, 2853.375000, 8084.000000, 8084.000000, 8059.000000
2383, 129743768.000000, 2949.750000, 8176.500000, 8186.500000, 8179.500000
2384, 129743928.000000, 2990.000000, 8179.500000, 8211.000000, 8201.000000
2385, 129744088.000000, 2978.000000, 8184.000000, 8213.500000, 8203.500000
2386, 129744248.000000, 2910.500000, 8202.000000, 8212.500000, 8208.500000
2387, 129744408.000000, 2797.375000, 8209.500000, 8209.500000, 8210.000000
2388, 129744568.000000, 2655.250000, 8224.000000, 8211.000000, 8219.500000
2389, 129744728.000000, 2523.750000, 8250.000000, 8217.000000, 8236.500000
2390, 129744888.000000, 2420.750000, 8262.000000, 8224.500000, 8243.000000
2391, 129745048.000000, 2331.625000, 8261.000000, 8229.000000, 8247.000000
2392, 129745208.000000, 2271.125000, 8208.500000, 8236.500000, 8244.500000
2393, 129745368.000000, 2263.250000, 8166.000000, 8231.500000, 8223.500000
2394, 129745528.000000, 2281.250000, 8134.500000, 8221.500000, 8202.500000
2395, 129745688.000000, 2262.500000, 8128.000000, 8213.500000, 8189.000000
2396, 129745848.000000, 2205.000000, 8134.000000, 8201.500000, 8186.000000
2397, 129746008.000000, 2149.125000, 8125.000000, 8207.000000, 8184.500000
2398, 129746168.000000, 2099.375000, 8137.500000, 8211.000000, 8189.000000
2399, 129746328.000000, 2044.000000, 8144.000000, 8211.000000, 8192.000000
2400, 129746488.000000, 1977.500000, 8137.000000, 8207.500000, 8191.000000
2401, 129746648.000000, 1910.750000, 8148.000000, 8210.500000, 8188.500000
2402, 129746808.000000, 1867.625000, 8143.500000, 8209.000000, 8188.000000
2403, 129746968.000000, 1845.625000, 8154.000000, 8225.000000, 8218.000000
2404, 129747128.000000, 1812.875000, 8153.500000, 8210.500000, 8205.000000
2405, 129747288.000000, 1772.375000, 8147.500000, 8205.000000, 8185.000000
2406, 129747448.000000, 1742.375000, 8126.500000, 8197.500000, 8167.000000
2407, 129747608.000000, 1715.375000, 8128.000000, 8187.500000, 8155.500000
2408, 129747768.000000, 1729.750000, 8142.000000, 8184.000000, 8165.000000
2409, 129747928.000000, 1859.875000, 8137.500000, 8184.500000, 8165.500000
2410, 129748088.000000, 2126.875000, 8154.000000, 8258.000000, 8245.000000
2411, 129748248.000000, 2438.250000, 8444.500000, 8055.000000, 8147.000000
2412, 129748408.000000, 2713.000000, 8021.500000, 8115.500000, 8078.000000
2413, 129748568.000000, 2929.250000, 8118.500000, 8138.500000, 8113.500000
2414, 129748728.000000, 3074.125000, 8157.000000, 8203.000000, 8178.000000
2415, 129748888.000000, 3135.875000, 8158.000000, 8206.000000, 8180.500000
2416, 129749048.000000, 3137.250000, 8161.500000, 8210.500000, 8185.500000
2417, 129749208.000000, 3078.875000, 8176.500000, 8205.000000, 8185.000000
2418, 129749368.000000, 2974.875000, 8190.500000, 8204.500000, 8191.000000
2419, 129749528.000000, 2850.875000, 8212.500000, 8208.500000, 8202.500000
2420, 129749688.000000, 2720.625000, 8233.000000, 8209.500000, 8211.500000
2421, 129749848.000000, 2597.125000, 8245.000000, 8212.500000, 8210.000000
2422, 129750008.000000, 2501.125000, 8223.000000, 8228.000000, 8221.000000
2423, 129750168.000000, 2450.375000, 8169.000000, 8233.000000, 8212.000000
2424, 129750328.000000, 2412.250000, 8132.000000, 8216.500000, 8187.000000
2425, 129750488.000000, 2350.750000, 8125.500000, 8209.500000, 8170.500000
2426, 129750648.000000, 2271.000000, 8122.000000, 8203.500000, 8161.500000
2427, 129750808.000000, 2193.625000, 8123.000000, 8202.500000, 8164.500000
2428, 129750968.000000, 2113.000000, 8133.500000, 8201.000000, 8168.000000
2429, 129751128.000000, 2043.000000, 8148.000000, 8195.500000, 8171.500000
2430, 129751288.000000, 1994.125000, 8146.500000, 8200.500000, 8173.500000
2431, 129751448.000000, 1936.125000, 8150.000000, 8196.000000, 8169.000000
2432, 129751608.000000, 1855.125000, 8155.000000, 8196.000000, 8171.000000
2433, 129751768.000000, 1785.375000, 8154.000000, 8208.500000, 8187.500000
2434, 129751928.000000, 1732.500000, 8153.500000, 8216.500000, 8196.500000
2435, 129752088.000000, 1677.375000, 8160.500000, 8208.000000, 8190.500000
2436, 129752248.000000, 1620.750000, 8130.000000, 8193.500000, 8165.500000
2437, 129752408.000000, 1567.000000, 8136.000000, 8187.000000, 8145.000000
2438, 129752568.000000, 1561.875000, 8134.500000, 8182.500000, 8149.500000
2439, 129752728.000000, 1692.125000, 8157.500000, 8179.000000, 8147.500000
2440, 129752888.000000, 1945.625000, 8171.000000, 8192.000000, 8171.000000
2441, 129753048.000000, 2256.500000, 8290.000000, 8184.500000, 8211.000000
2442, 129753208.000000, 2555.500000, 8220.500000, 8109.500000, 8130.500000
2443, 129753368.000000, 2801.000000, 8061.000000, 8072.500000, 8034.500000
2444, 129753528.000000, 2985.500000, 8164.500000, 8163.500000, 8142.500000
2445, 129753688.000000, 3074.500000, 8196.500000, 8183.500000, 8168.000000
2446, 129753848.000000, 3077.750000, 8190.500000, 8190.500000, 8171.500000
2447, 129754008.000000, 2969.000000, 8183.000000, 8188.000000, 8169.000000
2448, 129754168.000000, 2821.625000, 8197.000000, 8190.000000, 8182.500000
2449, 129754328.000000, 2676.875000, 8227.000000, 8190.500000, 8190.000000
2450, 129754488.000000, 2567.125000, 8249.500000, 8194.000000, 8198.500000
2451, 129754648.000000, 2520.125000, 8270.000000, 8199.000000, 8205.000000
2452, 129754808.000000, 2444.750000, 8259.500000, 8202.000000, 8209.000000
2453, 129754968.000000, 2319.125000, 8223.500000, 8221.500000, 8224.500000
2454, 129755128.000000, 2203.875000, 8191.500000, 8218.000000, 8215.000000
2455, 129755288.000000, 2147.125000, 8150.500000, 8204.000000, 8187.500000
2456, 129755448.000000, 2116.750000, 8151.000000, 8198.000000, 8178.000000
2457, 129755608.000000, 2062.250000, 8161.000000, 8195.500000, 8178.500000
2458, 129755768.000000, 2005.375000, 8169.000000, 8196.000000, 8184.000000
2459, 129755928.000000, 1974.625000, 8178.500000, 8192.500000, 8187.000000
2460, 129756088.000000, 1946.875000, 8167.500000, 8194.000000, 8190.000000
2461, 129756248.000000, 1872.500000, 8164.000000, 8200.000000, 8192.500000
2462, 129756408.000000, 1791.500000, 8177.000000, 8194.000000, 8187.500000
2463, 129756568.000000, 1736.625000, 8181.500000, 8199.500000, 8196.000000
2464, 129756728.000000, 1686.000000, 8191.500000, 8209.000000, 8220.500000
2465, 129756888.000000, 1615.375000, 8216.000000, 8198.000000, 8213.000000
2466, 129757048.000000, 1542.375000, 8201.000000, 8191.000000, 8195.000000
2467, 129757208.000000, 1523.250000, 8173.000000, 8178.000000, 8168.500000
2468, 129757368.000000, 1608.625000, 8179.500000, 8179.500000, 8172.500000
2469, 129757528.000000, 1815.375000, 8175.000000, 8180.500000, 8171.500000
2470, 129757688.000000, 2095.375000, 8167.500000, 8186.500000, 8174.500000
2471, 129757848.000000, 2375.250000, 8187.000000, 8247.000000, 8252.500000
2472, 129758008.000000, 2583.500000, 8470.000000, 8046.500000, 8157.000000
2473, 129758168.000000, 2712.125000, 8048.000000, 8108.000000, 8096.500000
2474, 129758328.000000, 2810.375000, 8153.000000, 8138.000000, 8130.000000
2475, 129758488.000000, 2865.250000, 8188.500000, 8191.500000, 8188.500000
2476, 129758648.000000, 2801.500000, 8192.500000, 8195.000000, 8186.500000
2477, 129758808.000000, 2625.250000, 8196.500000, 8195.000000, 8195.000000
2478, 129758968.000000, 2428.250000, 8221.500000, 8189.000000, 8196.500000
2479, 129759128.000000, 2268.375000, 8257.500000, 8194.000000, 8207.500000
2480, 129759288.000000, 2140.125000, 8264.500000, 8190.500000, 8213.000000
2481, 129759448.000000, 2024.750000, 8280.000000, 8192.500000, 8225.000000
2482, 129759608.000000, 1910.625000, 8285.000000, 8204.500000, 8225.500000
2483, 129759768.000000, 1816.625000, 8253.000000, 8220.500000, 8233.500000
2484, 129759928.000000, 1782.750000, 8212.000000, 8222.500000, 8232.000000
2485, 129760088.000000, 1775.875000, 8180.500000, 8213.000000, 8213.500000
2486, 129760248.000000, 1717.500000, 8173.500000, 8197.000000, 8193.000000
2487, 129760408.000000, 1601.750000, 8171.000000, 8195.500000, 8188.500000
2488, 129760568.000000, 1517.000000, 8165.000000, 8199.000000, 8194.000000
2489, 129760728.000000, 1477.375000, 8174.000000, 8198.000000, 8195.000000
2490, 129760888.000000, 1418.625000, 8185.500000, 8195.000000, 8196.500000
2491, 129761048.000000, 1334.750000, 8194.500000, 8197.500000, 8195.500000
2492, 129761208.000000, 1280.875000, 8195.500000, 8194.000000, 8195.500000
2493, 129761368.000000, 1288.000000, 8189.500000, 8191.500000, 8194.500000
2494, 129761528.000000, 1339.250000, 8201.500000, 8194.000000, 8204.500000
2495, 129761688.000000, 1360.125000, 8208.500000, 8196.500000, 8211.500000
2496, 129761848.000000, 1315.375000, 8230.500000, 8184.000000, 8202.000000
2497, 129762008.000000, 1246.875000, 8218.500000, 8174.000000, 8176.500000
2498, 129762168.000000, 1301.125000, 8177.000000, 8172.000000, 8165.500000
2499, 129762328.000000, 1528.125000, 8170.500000, 8179.500000, 8165.500000
2500, 129762488.000000, 1867.125000, 8166.000000, 8181.500000, 8166.500000
2501, 129762648.000000, 2225.750000, 8172.500000, 8186.000000, 8180.500000
2502, 129762808.000000, 2535.375000, 8289.500000, 8200.000000, 8235.000000
2503, 129762968.000000, 2725.250000, 8334.500000, 8063.000000, 8130.000000
2504, 129763128.000000, 2833.375000, 8081.000000, 8076.500000, 8047.000000
2505, 129763288.000000, 2922.375000, 8189.000000, 8165.500000, 8161.500000
2506, 129763448.000000, 2966.500000, 8203.000000, 8187.500000, 8184.500000
2507, 129763608.000000, 2885.875000, 8203.000000, 8188.000000, 8181.500000
2508, 129763768.000000, 2674.750000, 8217.500000, 8193.000000, 8197.000000
2509, 129763928.000000, 2433.625000, 8230.000000, 8197.500000, 8199.500000
2510, 129764088.000000, 2248.375000, 8250.000000, 8193.000000, 8207.000000
2511, 129764248.000000, 2188.625000, 8265.500000, 8190.000000, 8214.000000
2512, 129764408.000000, 2219.500000, 8284.000000, 8204.000000, 8228.500000
2513, 129764568.000000, 2268.625000, 8276.500000, 8210.500000, 8234.500000
2514, 129764728.000000, 2291.375000, 8238.000000, 8219.000000, 8237.500000
2515, 129764888.000000, 2292.250000, 8195.500000, 8218.000000, 8219.500000
2516, 129765048.000000, 2296.375000, 8167.000000, 8202.000000, 8198.500000
2517, 129765208.000000, 2295.375000, 8163.000000, 8196.000000, 8192.000000
2518, 129765368.000000, 2257.125000, 8163.500000, 8194.500000, 8190.000000
2519, 129765528.000000, 2147.750000, 8175.000000, 8205.500000, 8197.500000
2520, 129765688.000000, 2011.625000, 8168.000000, 8203.000000, 8197.500000
2521, 129765848.000000, 1902.500000, 8169.000000, 8200.000000, 8199.500000
2522, 129766008.000000, 1817.000000, 8181.000000, 8199.000000, 8203.500000
2523, 129766168.000000, 1746.750000, 8185.500000, 8196.500000, 8200.000000
2524, 129766328.000000, 1669.875000, 8181.000000, 8199.500000, 8196.500000
2525, 129766488.000000, 1550.125000, 8175.500000, 8204.500000, 8212.500000
2526, 129766648.000000, 1379.125000, 8184.000000, 8210.500000, 8223.000000
2527, 129766808.000000, 1223.125000, 8192.500000, 8207.000000, 8215.000000
2528, 129766968.000000, 1196.500000, 8178.500000, 8187.500000, 8190.500000
2529, 129767128.000000, 1360.625000, 8176.500000, 8184.000000, 8180.000000
2530, 129767288.000000, 1680.000000, 8173.000000, 8182.000000, 8176.500000
2531, 129767448.000000, 2070.625000, 8185.000000, 8187.000000, 8178.000000
2532, 129767608.000000, 2458.000000, 8172.500000, 8189.500000, 8185.000000
2533, 129767768.000000, 2779.250000, 8260.000000, 8218.000000, 8252.500000
2534, 129767928.000000, 2998.500000, 8398.000000, 8046.000000, 8139.500000
2535, 129768088.000000, 3079.000000, 8063.500000, 8077.500000, 8057.500000
2536, 129768248.000000, 3060.250000, 8180.000000, 8166.500000, 8167.500000
2537, 129768408.000000, 3001.500000, 8199.000000, 8194.000000, 8194.500000
2538, 129768568.000000, 2914.125000, 8208.000000, 8200.500000, 8204.000000
2539, 129768728.000000, 2775.000000, 8210.500000, 8196.500000, 8207.000000
2540, 129768888.000000, 2572.875000, 8224.500000, 8198.500000, 8208.500000
2541, 129769048.000000, 2349.000000, 8252.500000, 8192.000000, 8212.500000
2542, 129769208.000000, 2153.500000, 8271.000000, 8196.500000, 8225.000000
2543, 129769368.000000, 2044.500000, 8290.500000, 8201.000000, 8237.500000
2544, 129769528.000000, 1996.875000, 8286.500000, 8212.000000, 8243.000000
2545, 129769688.000000, 1951.625000, 8254.000000, 8218.000000, 8241.500000
2546, 129769848.000000, 1878.750000, 8209.500000, 8213.500000, 8222.500000
2547, 129770008.000000, 1813.875000, 8179.500000, 8206.000000, 8207.500000
2548, 129770168.000000, 1783.750000, 8179.500000, 8199.000000, 8199.500000
2549, 129770328.000000, 1777.500000, 8173.500000, 8196.000000, 8195.500000
2550, 129770488.000000, 1756.750000, 8173.000000, 8198.000000, 8194.000000
2551, 129770648.000000, 1683.125000, 8170.500000, 8197.000000, 8194.000000
2552, 129770808.000000, 1586.750000, 8179.000000, 8199.500000, 8203.000000
2553, 129770968.000000, 1513.000000, 8177.500000, 8198.000000, 8206.500000
2554, 129771128.000000, 1466.750000, 8180.500000, 8197.000000, 8199.500000
2555, 129771288.000000, 1425.125000, 8183.000000, 8192.500000, 8198.500000
2556, 129771448.000000, 1367.000000, 8179.000000, 8195.000000, 8191.500000
2557, 129771608.000000, 1310.625000, 8188.500000, 8205.500000, 8222.000000
2558, 129771768.000000, 1288.250000, 8199.500000, 8201.000000, 8215.000000
2559, 129771928.000000, 1349.625000, 8198.500000, 8191.500000, 8209.000000
2560, 129772088.000000, 1533.125000, 8170.500000, 8182.000000, 8175.000000
2561, 129772248.000000, 1853.125000, 8174.500000, 8181.000000, 8170.500000
2562, 129772408.000000, 2285.750000, 8170.500000, 8182.000000, 8177.000000
2563, 129772568.000000, 2762.625000, 8168.000000, 8179.500000, 8172.500000
2564, 129772728.000000, 3186.375000, 8166.000000, 8232.500000, 8236.500000
2565, 129772888.000000, 3472.250000, 8464.000000, 8090.500000, 8184.000000
2566, 129773048.000000, 3611.375000, 8130.500000, 8103.000000, 8115.000000
2567, 129773208.000000, 3632.625000, 8110.000000, 8106.500000, 8092.000000
2568, 129773368.000000, 3574.375000, 8178.500000, 8191.500000, 8185.000000
2569, 129773528.000000, 3452.750000, 8172.500000, 8201.500000, 8192.000000
2570, 129773688.000000, 3270.250000, 8175.500000, 8207.500000, 8201.500000
2571, 129773848.000000, 3033.750000, 8185.500000, 8200.500000, 8191.500000
2572, 129774008.000000, 2781.375000, 8211.500000, 8202.500000, 8208.500000
2573, 129774168.000000, 2572.500000, 8222.000000, 8207.500000, 8218.500000
2574, 129774328.000000, 2433.750000, 8238.500000, 8209.500000, 8227.500000
2575, 129774488.000000, 2352.000000, 8255.500000, 8217.500000, 8235.000000
2576, 129774648.000000, 2293.000000, 8260.000000, 8218.000000, 8236.500000
2577, 129774808.000000, 2223.875000, 8224.000000, 8224.000000, 8235.500000
2578, 129774968.000000, 2116.000000, 8184.000000, 8212.000000, 8220.000000
2579, 129775128.000000, 1998.375000, 8165.500000, 8198.500000, 8191.000000
2580, 129775288.000000, 1886.500000, 8172.500000, 8188.500000, 8182.000000
2581, 129775448.000000, 1765.750000, 8184.500000, 8184.000000, 8184.000000
2582, 129775608.000000, 1628.625000, 8178.500000, 8180.000000, 8176.500000
2583, 129775768.000000, 1542.875000, 8192.500000, 8187.500000, 8193.500000
2584, 129775928.000000, 1516.000000, 8193.000000, 8185.000000, 8199.000000
2585, 129776088.000000, 1481.000000, 8189.500000, 8184.000000, 8200.500000
2586, 129776248.000000, 1399.750000, 8191.500000, 8181.500000, 8187.000000
2587, 129776408.000000, 1294.500000, 8195.000000, 8180.000000, 8182.000000
2588, 129776568.000000, 1198.125000, 8214.000000, 8184.500000, 8205.000000
2589, 129776728.000000, 1146.875000, 8218.000000, 8189.500000, 8209.000000
2590, 129776888.000000, 1135.750000, 8217.000000, 8182.000000, 8191.500000
2591, 129777048.000000, 1185.250000, 8201.000000, 8172.500000, 8171.000000
2592, 129777208.000000, 1348.750000, 8182.000000, 8172.500000, 8163.000000
2593, 129777368.000000, 1672.250000, 8177.500000, 8179.500000, 8167.000000
2594, 129777528.000000, 2087.750000, 8162.000000, 8179.000000, 8165.000000
2595, 129777688.000000, 2489.000000, 8162.000000, 8201.500000, 8191.000000
2596, 129777848.000000, 2823.500000, 8299.000000, 8183.500000, 8214.000000
2597, 129778008.000000, 3063.875000, 8297.500000, 8089.500000, 8146.000000
2598, 129778168.000000, 3166.250000, 8055.000000, 8087.500000, 8057.500000
2599, 129778328.000000, 3054.750000, 8158.000000, 8172.000000, 8164.000000
2600, 129778488.000000, 2818.000000, 8179.500000, 8198.000000, 8185.000000
2601, 129778648.000000, 2562.375000, 8183.000000, 8195.500000, 8188.000000
2602, 129778808.000000, 2326.875000, 8204.000000, 8199.000000, 8193.500000
2603, 129778968.000000, 2077.875000, 8224.000000, 8193.500000, 8201.500000
2604, 129779128.000000, 1852.125000, 8233.500000, 8202.000000, 8210.000000
2605, 129779288.000000, 1747.125000, 8239.500000, 8201.000000, 8218.500000
2606, 129779448.000000, 1743.250000, 8266.000000, 8202.500000, 8223.500000
2607, 129779608.000000, 1751.250000, 8276.500000, 8206.500000, 8232.000000
2608, 129779768.000000, 1726.125000, 8240.500000, 8221.500000, 8243.000000
2609, 129779928.000000, 1655.625000, 8173.000000, 8215.000000, 8216.500000
2610, 129780088.000000, 1584.125000, 8159.000000, 8206.500000, 8196.000000
2611, 129780248.000000, 1539.000000, 8157.500000, 8197.500000, 8185.000000
2612, 129780408.000000, 1480.750000, 8154.000000, 8193.000000, 8180.000000
2613, 129780568.000000, 1368.875000, 8158.000000, 8190.000000, 8183.000000
2614, 129780728.000000, 1255.000000, 8161.000000, 8190.500000, 8183.000000
2615, 129780888.000000, 1192.250000, 8168.000000, 8192.000000, 8185.000000
2616, 129781048.000000, 1150.875000, 8171.000000, 8189.500000, 8184.500000
2617, 129781208.000000, 1122.750000, 8165.000000, 8192.000000, 8186.000000
2618, 129781368.000000, 1106.000000, 8174.000000, 8191.500000, 8187.500000
2619, 129781528.000000, 1083.125000, 8173.000000, 8206.000000, 8208.000000
2620, 129781688.000000, 1048.000000, 8170.500000, 8197.500000, 8203.000000
2621, 129781848.000000, 1011.250000, 8180.500000, 8191.000000, 8191.500000
2622, 129782008.000000, 1012.500000, 8157.500000, 8179.000000, 8168.000000
2623, 129782168.000000, 1151.375000, 8156.500000, 8178.500000, 8165.000000
2624, 129782328.000000, 1444.750000, 8157.500000, 8177.000000, 8162.500000
2625, 129782488.000000, 1842.875000, 8162.500000, 8178.000000, 8168.500000
2626, 129782648.000000, 2251.750000, 8147.000000, 8212.000000, 8201.500000
2627, 129782808.000000, 2608.250000, 8360.500000, 8137.500000, 8194.500000
2628, 129782968.000000, 2850.125000, 8206.500000, 8111.000000, 8142.000000
2629, 129783128.000000, 2937.125000, 8059.500000, 8110.500000, 8076.500000
2630, 129783288.000000, 2901.625000, 8122.000000, 8192.500000, 8168.500000
2631, 129783448.000000, 2760.875000, 8127.000000, 8214.500000, 8184.500000
2632, 129783608.000000, 2531.125000, 8117.500000, 8212.500000, 8182.000000
2633, 129783768.000000, 2241.000000, 8133.500000, 8214.000000, 8191.500000
2634, 129783928.000000, 1942.750000, 8159.500000, 8205.000000, 8197.500000
2635, 129784088.000000, 1680.250000, 8212.500000, 8197.000000, 8200.500000
2636, 129784248.000000, 1474.500000, 8249.000000, 8196.000000, 8207.000000
2637, 129784408.000000, 1306.750000, 8267.000000, 8198.000000, 8222.000000
2638, 129784568.000000, 1163.500000, 8261.500000, 8205.500000, 8233.500000
2639, 129784728.000000, 1070.875000, 8240.500000, 8209.000000, 8230.000000
2640, 129784888.000000, 1020.000000, 8203.500000, 8209.500000, 8211.000000
2641, 129785048.000000, 982.250000, 8168.500000, 8200.500000, 8194.000000
2642, 129785208.000000, 939.000000, 8148.000000, 8202.000000, 8183.000000
2643, 129785368.000000, 902.000000, 8132.000000, 8205.500000, 8183.000000
2644, 129785528.000000, 860.125000, 8153.500000, 8197.500000, 8183.000000
2645, 129785688.000000, 791.625000, 8171.000000, 8192.500000, 8180.000000
2646, 129785848.000000, 718.250000, 8181.500000, 8193.000000, 8184.500000
2647, 129786008.000000, 660.750000, 8184.000000, 8189.000000, 8187.000000
2648, 129786168.000000, 601.250000, 8182.500000, 8191.500000, 8191.000000
2649, 129786328.000000, 522.375000, 8185.000000, 8189.500000, 8186.500000
2650, 129786488.000000, 410.125000, 8192.500000, 8206.500000, 8214.500000
2651, 129786648.000000, 292.500000, 8213.000000, 8196.500000, 8208.500000
2652, 129786808.000000, 282.000000, 8203.000000, 8186.500000, 8193.500000
2653, 129786968.000000, 450.750000, 8175.500000, 8183.500000, 8176.500000
2654, 129787128.000000, 775.125000, 8153.500000, 8190.500000, 8174.000000
2655, 129787288.000000, 1260.250000, 8171.000000, 8187.000000, 8168.500000
2656, 129787448.000000, 1845.250000, 8189.500000, 8180.000000, 8172.000000
2657, 129787608.000000, 2405.125000, 8199.000000, 8233.000000, 8243.500000
2658, 129787768.000000, 2846.500000, 8559.500000, 8058.000000, 8182.000000
2659, 129787928.000000, 3133.750000, 8149.500000, 8142.500000, 8153.500000
2660, 129788088.000000, 3251.625000, 8143.000000, 8119.000000, 8113.500000
2661, 129788248.000000, 3238.500000, 8213.500000, 8172.500000, 8177.000000
2662, 129788408.000000, 3131.125000, 8215.000000, 8188.000000, 8189.500000
2663, 129788568.000000, 2916.750000, 8227.000000, 8189.000000, 8195.000000
2664, 129788728.000000, 2666.750000, 8224.000000, 8192.500000, 8201.000000
2665, 129788888.000000, 2474.125000, 8249.500000, 8189.000000, 8204.000000
2666, 129789048.000000, 2326.375000, 8271.500000, 8189.500000, 8214.500000
2667, 129789208.000000, 2177.625000, 8306.500000, 8181.000000, 8221.000000
2668, 129789368.000000, 2063.250000, 8315.500000, 8189.500000, 8235.500000
2669, 129789528.000000, 2031.125000, 8299.500000, 8198.500000, 8239.000000
2670, 129789688.000000, 2009.750000, 8234.500000, 8213.500000, 8234.000000
2671, 129789848.000000, 1937.250000, 8181.000000, 8213.000000, 8214.500000
2672, 129790008.000000, 1866.750000, 8167.500000, 8202.000000, 8200.000000
2673, 129790168.000000, 1843.125000, 8171.000000, 8202.500000, 8198.000000
2674, 129790328.000000, 1822.375000, 8165.000000, 8199.500000, 8192.500000
2675, 129790488.000000, 1786.250000, 8159.000000, 8197.500000, 8192.000000
2676, 129790648.000000, 1735.875000, 8163.000000, 8199.500000, 8192.500000
2677, 129790808.000000, 1651.125000, 8176.500000, 8201.000000, 8201.500000
2678, 129790968.000000, 1530.250000, 8180.500000, 8201.500000, 8200.000000
2679, 129791128.000000, 1418.625000, 8191.500000, 8196.000000, 8206.000000
2680, 129791288.000000, 1316.250000, 8201.000000, 8200.000000, 8214.000000
2681, 129791448.000000, 1187.250000, 8196.500000, 8206.000000, 8223.000000
2682, 129791608.000000, 1054.000000, 8209.000000, 8202.500000, 8221.000000
2683, 129791768.000000, 1010.750000, 8194.500000, 8190.000000, 8203.500000
2684, 129791928.000000, 1117.375000, 8184.000000, 8183.000000, 8186.000000
2685, 129792088.000000, 1351.375000, 8201.500000, 8178.500000, 8184.500000
2686, 129792248.000000, 1653.125000, 8194.000000, 8181.500000, 8189.500000
2687, 129792408.000000, 1968.375000, 8193.500000, 8185.000000, 8196.000000
2688, 129792568.000000, 2243.500000, 8229.000000, 8236.000000, 8254.500000
2689, 129792728.000000, 2437.625000, 8570.500000, 8035.500000, 8193.000000
2690, 129792888.000000, 2513.500000, 8091.000000, 8118.500000, 8110.500000
2691, 129793048.000000, 2471.000000, 8162.000000, 8160.500000, 8171.500000
2692, 129793208.000000, 2335.125000, 8206.000000, 8194.000000, 8205.000000
2693, 129793368.000000, 2127.625000, 8205.500000, 8202.000000, 8210.000000
2694, 129793528.000000, 1856.000000, 8208.000000, 8205.500000, 8220.000000
2695, 129793688.000000, 1513.750000, 8207.000000, 8205.500000, 8221.500000
2696, 129793848.000000, 1165.875000, 8229.500000, 8207.000000, 8228.000000
2697, 129794008.000000, 866.875000, 8259.000000, 8202.500000, 8237.000000
2698, 129794168.000000, 613.125000, 8289.500000, 8208.000000, 8254.000000
2699, 129794328.000000, 393.250000, 8289.500000, 8210.000000, 8260.000000
2700, 129794488.000000, 201.000000, 8257.500000, 8226.500000, 8255.000000
2701, 129794648.000000, 63.875000, 8195.000000, 8232.000000, 8242.000000
2702, 129794808.000000, 12.250000, 8148.500000, 8227.000000, 8219.000000
2703, 129794968.000000, 2.625000, 8129.000000, 8213.000000, 8204.500000
2704, 129795128.000000, 1.000000, 8134.500000, 8210.500000, 8192.500000
2705, 129795288.000000, 1.000000, 8137.000000, 8206.500000, 8186.500000
2706, 129795448.000000, 1.000000, 8138.500000, 8204.000000, 8189.500000
2707, 129795608.000000, 1.000000, 8149.500000, 8206.000000, 8194.000000
2708, 129795768.000000, 1.000000, 8155.500000, 8205.000000, 8199.000000
2709, 129795928.000000, 1.000000, 8156.000000, 8207.500000, 8196.500000
2710, 129796088.000000, 1.000000, 8143.000000, 8208.000000, 8193.500000
2711, 129796248.000000, 10.250000, 8144.000000, 8211.000000, 8196.500000
2712, 129796408.000000, 22.625000, 8157.500000, 8218.500000, 8219.500000
2713, 129796568.000000, 19.125000, 8177.000000, 8206.000000, 8211.000000
2714, 129796728.000000, 25.750000, 8166.500000, 8193.000000, 8193.000000
2715, 129796888.000000, 111.625000, 8149.500000, 8183.500000, 8166.500000
2716, 129797048.000000, 321.500000, 8154.000000, 8191.000000, 8174.000000
2717, 129797208.000000, 649.250000, 8157.000000, 8192.000000, 8174.000000
2718, 129797368.000000, 1030.750000, 8159.000000, 8186.000000, 8177.500000
2719, 129797528.000000, 1385.000000, 8174.000000, 8247.500000, 8245.500000
2720, 129797688.000000, 1654.750000, 8558.500000, 8001.000000, 8132.500000
2721, 129797848.000000, 1810.375000, 8053.500000, 8093.500000, 8067.500000
2722, 129798008.000000, 1881.375000, 8132.500000, 8150.000000, 8141.000000
2723, 129798168.000000, 1894.125000, 8182.000000, 8197.000000, 8185.500000
2724, 129798328.000000, 1826.750000, 8180.000000, 8205.500000, 8190.500000
2725, 129798488.000000, 1687.125000, 8191.500000, 8198.500000, 8189.500000
2726, 129798648.000000, 1547.250000, 8203.500000, 8199.000000, 8195.000000
2727, 129798808.000000, 1437.625000, 8220.000000, 8203.000000, 8208.500000
2728, 129798968.000000, 1317.625000, 8241.000000, 8208.500000, 8219.000000
2729, 129799128.000000, 1196.750000, 8268.500000, 8203.000000, 8227.000000
2730, 129799288.000000, 1133.875000, 8287.000000, 8204.000000, 8231.500000
2731, 129799448.000000, 1128.875000, 8265.000000, 8225.000000, 8241.500000
2732, 129799608.000000, 1146.750000, 8203.000000, 8225.500000, 8226.500000
2733, 129799768.000000, 1182.625000, 8148.500000, 8218.000000, 8200.500000
2734, 129799928.000000, 1204.625000, 8136.500000, 8205.500000, 8184.500000
2735, 129800088.000000, 1194.750000, 8129.000000, 8204.000000, 8174.000000
2736, 129800248.000000, 1193.375000, 8144.500000, 8195.500000, 8170.000000
2737, 129800408.000000, 1227.625000, 8145.000000, 8189.500000, 8167.500000
2738, 129800568.000000, 1245.875000, 8153.500000, 8197.500000, 8178.000000
2739, 129800728.000000, 1230.750000, 8143.000000, 8206.000000, 8177.500000
2740, 129800888.000000, 1221.250000, 8143.500000, 8200.500000, 8170.500000
2741, 129801048.000000, 1232.375000, 8159.000000, 8198.500000, 8173.500000
2742, 129801208.000000, 1256.750000, 8171.500000, 8214.500000, 8207.000000
2743, 129801368.000000, 1261.125000, 8183.000000, 8212.000000, 8205.000000
2744, 129801528.000000, 1228.375000, 8154.000000, 8192.000000, 8177.000000
2745, 129801688.000000, 1186.500000, 8140.500000, 8180.500000, 8150.500000
2746, 129801848.000000, 1244.250000, 8150.500000, 8185.000000, 8156.000000
2747, 129802008.000000, 1462.750000, 8146.500000, 8177.500000, 8148.500000
2748, 129802168.000000, 1802.000000, 8154.500000, 8182.000000, 8156.000000
2749, 129802328.000000, 2164.875000, 8129.500000, 8253.500000, 8230.000000
2750, 129802488.000000, 2501.125000, 8498.000000, 8055.500000, 8149.500000
2751, 129802648.000000, 2762.625000, 8040.000000, 8115.500000, 8076.500000
2752, 129802808.000000, 2925.125000, 8082.000000, 8125.500000, 8081.500000
2753, 129802968.000000, 2986.375000, 8151.500000, 8201.000000, 8164.500000
2754, 129803128.000000, 2981.250000, 8144.000000, 8199.500000, 8165.000000
2755, 129803288.000000, 2915.500000, 8160.500000, 8205.500000, 8172.500000
2756, 129803448.000000, 2775.125000, 8172.500000, 8204.500000, 8181.000000
2757, 129803608.000000, 2574.875000, 8196.500000, 8199.000000, 8187.000000
2758, 129803768.000000, 2381.000000, 8218.000000, 8199.000000, 8190.500000
2759, 129803928.000000, 2229.000000, 8235.000000, 8201.000000, 8201.500000
2760, 129804088.000000, 2083.500000, 8260.000000, 8203.000000, 8213.500000
2761, 129804248.000000, 1924.000000, 8256.000000, 8213.000000, 8222.500000
2762, 129804408.000000, 1787.750000, 8210.000000, 8221.500000, 8214.000000
2763, 129804568.000000, 1724.500000, 8162.000000, 8217.000000, 8194.000000
2764, 129804728.000000, 1709.375000, 8133.500000, 8210.500000, 8174.000000
2765, 129804888.000000, 1687.375000, 8120.500000, 8203.500000, 8164.000000
2766, 129805048.000000, 1629.750000, 8129.000000, 8208.000000, 8165.500000
2767, 129805208.000000, 1520.125000, 8122.000000, 8200.000000, 8166.500000
2768, 129805368.000000, 1399.125000, 8139.500000, 8207.000000, 8172.500000
2769, 129805528.000000, 1340.000000, 8139.500000, 8202.500000, 8175.000000
2770, 129805688.000000, 1322.875000, 8134.000000, 8206.500000, 8172.500000
2771, 129805848.000000, 1250.875000, 8131.500000, 8207.000000, 8181.000000
2772, 129806008.000000, 1102.875000, 8147.000000, 8221.000000, 8201.500000
2773, 129806168.000000, 997.125000, 8167.500000, 8216.000000, 8203.000000
2774, 129806328.000000, 971.250000, 8168.500000, 8198.500000, 8187.500000
2775, 129806488.000000, 970.250000, 8142.500000, 8194.500000, 8168.000000
2776, 129806648.000000, 968.750000, 8138.500000, 8191.500000, 8158.000000
2777, 129806808.000000, 1004.375000, 8146.500000, 8188.500000, 8162.500000
2778, 129806968.000000, 1148.500000, 8136.000000, 8186.000000, 8161.000000
2779, 129807128.000000, 1426.375000, 8141.000000, 8229.000000, 8202.500000
2780, 129807288.000000, 1779.375000, 8362.000000, 8146.500000, 8197.000000
2781, 129807448.000000, 2041.250000, 8174.500000, 8101.000000, 8110.500000
2782, 129807608.000000, 2169.500000, 8063.500000, 8097.500000, 8060.000000
2783, 129807768.000000, 2260.875000, 8159.000000, 8187.000000, 8167.000000
2784, 129807928.000000, 2403.000000, 8161.500000, 8203.000000, 8184.000000
2785, 129808088.000000, 2539.875000, 8170.500000, 8204.000000, 8186.000000
2786, 129808248.000000, 2504.875000, 8178.500000, 8203.500000, 8190.000000
2787, 129808408.000000, 2266.000000, 8209.000000, 8211.500000, 8201.500000
2788, 129808568.000000, 1986.625000, 8219.500000, 8208.000000, 8211.500000
2789, 129808728.000000, 1848.875000, 8244.000000, 8213.000000, 8225.500000
2790, 129808888.000000, 1835.750000, 8270.000000, 8220.000000, 8231.000000
2791, 129809048.000000, 1844.500000, 8253.000000, 8226.500000, 8241.000000
2792, 129809208.000000, 1869.000000, 8211.000000, 8239.000000, 8242.000000
2793, 129809368.000000, 1930.875000, 8160.000000, 8230.500000, 8221.500000
2794, 129809528.000000, 1981.500000, 8141.000000, 8222.000000, 8201.500000
2795, 129809688.000000, 1976.000000, 8147.000000, 8213.500000, 8194.000000
2796, 129809848.000000, 1961.375000, 8138.500000, 8204.500000, 8189.000000
2797, 129810008.000000, 1984.250000, 8139.500000, 8210.500000, 8193.000000
2798, 129810168.000000, 2003.875000, 8138.000000, 8214.000000, 8193.500000
2799, 129810328.000000, 1962.500000, 8148.000000, 8211.000000, 8200.000000
2800, 129810488.000000, 1881.375000, 8161.500000, 8213.500000, 8197.500000
2801, 129810648.000000, 1796.750000, 8156.500000, 8206.000000, 8200.000000
2802, 129810808.000000, 1731.875000, 8169.000000, 8218.000000, 8211.000000
2803, 129810968.000000, 1694.375000, 8161.000000, 8227.500000, 8232.000000
2804, 129811128.000000, 1683.375000, 8190.000000, 8215.500000, 8220.500000
2805, 129811288.000000, 1666.250000, 8167.000000, 8204.500000, 8198.500000
2806, 129811448.000000, 1644.750000, 8159.500000, 8189.000000, 8175.500000
2807, 129811608.000000, 1693.000000, 8162.000000, 8192.000000, 8177.500000
2808, 129811768.000000, 1852.750000, 8156.500000, 8194.500000, 8181.500000
2809, 129811928.000000, 2093.000000, 8154.500000, 8194.000000, 8181.000000
2810, 129812088.000000, 2360.375000, 8187.000000, 8259.500000, 8263.000000
2811, 129812248.000000, 2621.375000, 8501.500000, 8009.000000, 8133.000000
2812, 129812408.000000, 2843.750000, 8049.000000, 8083.500000, 8064.500000
2813, 129812568.000000, 2987.250000, 8152.500000, 8155.500000, 8157.500000
2814, 129812728.000000, 3045.625000, 8181.500000, 8198.000000, 8189.500000
2815, 129812888.000000, 3029.000000, 8174.500000, 8205.500000, 8201.000000
2816, 129813048.000000, 2968.000000, 8196.000000, 8209.500000, 8206.500000
2817, 129813208.000000, 2870.500000, 8215.500000, 8209.000000, 8216.000000
2818, 129813368.000000, 2755.875000, 8231.500000, 8207.500000, 8220.000000
2819, 129813528.000000, 2647.625000, 8244.000000, 8207.000000, 8229.000000
2820, 129813688.000000, 2552.375000, 8282.500000, 8209.000000, 8244.000000
2821, 129813848.000000, 2467.000000, 8300.000000, 8213.500000, 8254.500000
2822, 129814008.000000, 2396.125000, 8278.500000, 8228.500000, 8261.000000
2823, 129814168.000000, 2367.875000, 8217.000000, 8230.000000, 8248.500000
2824, 129814328.000000, 2368.750000, 8193.500000, 8220.000000, 8221.000000
2825, 129814488.000000, 2364.000000, 8177.000000, 8204.000000, 8199.000000
2826, 129814648.000000, 2336.500000, 8167.000000, 8201.000000, 8195.000000
2827, 129814808.000000, 2304.000000, 8165.500000, 8208.000000, 8205.000000
2828, 129814968.000000, 2263.000000, 8169.500000, 8205.000000, 8201.500000
2829, 129815128.000000, 2227.250000, 8169.500000, 8201.500000, 8201.500000
2830, 129815288.000000, 2213.250000, 8179.000000, 8197.000000, 8203.000000
2831, 129815448.000000, 2195.500000, 8193.000000, 8200.000000, 8209.500000
2832, 129815608.000000, 2167.125000, 8189.000000, 8201.500000, 8202.500000
2833, 129815768.000000, 2163.250000, 8176.000000, 8197.000000, 8197.500000
2834, 129815928.000000, 2173.000000, 8183.000000, 8213.500000, 8221.500000
2835, 129816088.000000, 2130.000000, 8186.000000, 8208.000000, 8223.000000
2836, 129816248.000000, 2040.500000, 8199.500000, 8201.500000, 8213.500000
2837, 129816408.000000, 2001.625000, 8197.000000, 8183.500000, 8192.000000
2838, 129816568.000000, 2062.875000, 8203.000000, 8184.500000, 8185.000000
2839, 129816728.000000, 2239.375000, 8199.000000, 8182.000000, 8179.000000
2840, 129816888.000000, 2496.000000, 8186.500000, 8178.000000, 8173.000000
2841, 129817048.000000, 2778.625000, 8181.500000, 8198.500000, 8198.500000
2842, 129817208.000000, 2989.250000, 8310.000000, 8195.500000, 8247.000000
2843, 129817368.000000, 3112.750000, 8323.000000, 8041.500000, 8109.000000
2844, 129817528.000000, 3190.250000, 8087.500000, 8073.000000, 8051.500000
2845, 129817688.000000, 3252.000000, 8187.500000, 8178.500000, 8182.500000
2846, 129817848.000000, 3264.750000, 8193.000000, 8198.500000, 8194.500000
2847, 129818008.000000, 3189.125000, 8195.500000, 8202.000000, 8201.500000
2848, 129818168.000000, 3053.625000, 8210.500000, 8197.500000, 8206.000000
2849, 129818328.000000, 2892.375000, 8236.500000, 8205.500000, 8215.000000
2850, 129818488.000000, 2751.375000, 8236.500000, 8205.500000, 8218.000000
2851, 129818648.000000, 2654.500000, 8265.500000, 8204.500000, 8232.500000
2852, 129818808.000000, 2598.375000, 8292.500000, 8209.000000, 8246.000000
2853, 129818968.000000, 2563.250000, 8296.500000, 8214.500000, 8252.000000
2854, 129819128.000000, 2540.250000, 8264.000000, 8222.000000, 8253.000000
2855, 129819288.000000, 2496.500000, 8202.000000, 8219.000000, 8228.000000
2856, 129819448.000000, 2448.125000, 8168.000000, 8209.000000, 8203.500000
2857, 129819608.000000, 2425.250000, 8163.500000, 8205.500000, 8194.000000
2858, 129819768.000000, 2410.375000, 8166.500000, 8195.500000, 8193.000000
2859, 129819928.000000, 2348.750000, 8179.000000, 8195.000000, 8190.500000
2860, 129820088.000000, 2245.250000, 8181.000000, 8194.000000, 8190.000000
2861, 129820248.000000, 2169.125000, 8175.500000, 8196.000000, 8190.500000
2862, 129820408.000000, 2121.125000, 8175.500000, 8197.500000, 8202.500000
2863, 129820568.000000, 2076.125000, 8183.000000, 8200.500000, 8204.500000
2864, 129820728.000000, 2013.625000, 8177.000000, 8191.500000, 8191.500000
2865, 129820888.000000, 1943.000000, 8185.500000, 8191.000000, 8191.500000
2866, 129821048.000000, 1905.875000, 8175.500000, 8190.500000, 8195.500000
2867, 129821208.000000, 1908.375000, 8186.000000, 8212.500000, 8222.500000
2868, 129821368.000000, 1909.000000, 8187.500000, 8209.000000, 8215.000000
2869, 129821528.000000, 1938.625000, 8161.500000, 8201.500000, 8198.500000
2870, 129821688.000000, 2067.250000, 8150.000000, 8190.000000, 8177.000000
2871, 129821848.000000, 2289.250000, 8154.500000, 8189.000000, 8168.500000
2872, 129822008.000000, 2517.750000, 8156.500000, 8195.000000, 8182.500000
2873, 129822168.000000, 2748.875000, 8163.500000, 8188.500000, 8179.500000
2874, 129822328.000000, 2974.250000, 8154.500000, 8257.500000, 8257.500000
2875, 129822488.000000, 3131.250000, 8503.000000, 8037.500000, 8149.000000
2876, 129822648.000000, 3183.000000, 8077.500000, 8092.500000, 8080.500000
2877, 129822808.000000, 3158.000000, 8125.000000, 8126.000000, 8119.000000
2878, 129822968.000000, 3074.250000, 8189.000000, 8195.000000, 8192.000000
2879, 129823128.000000, 2958.375000, 8185.000000, 8201.000000, 8194.000000
2880, 129823288.000000, 2841.000000, 8184.500000, 8203.000000, 8195.500000
2881, 129823448.000000, 2707.250000, 8203.000000, 8205.500000, 8204.000000
2882, 129823608.000000, 2569.375000, 8228.500000, 8205.000000, 8212.500000
2883, 129823768.000000, 2480.875000, 8235.000000, 8213.000000, 8226.500000
2884, 129823928.000000, 2447.500000, 8263.000000, 8205.000000, 8228.500000
2885, 129824088.000000, 2400.750000, 8284.000000, 8208.500000, 8236.000000
2886, 129824248.000000, 2348.500000, 8280.500000, 8217.500000, 8243.500000
2887, 129824408.000000, 2314.625000, 8229.000000, 8222.000000, 8237.500000
2888, 129824568.000000, 2285.875000, 8173.000000, 8223.000000, 8214.500000
2889, 129824728.000000, 2233.000000, 8148.000000, 8203.500000, 8190.500000
2890, 129824888.000000, 2162.875000, 8154.500000, 8200.500000, 8181.000000
2891, 129825048.000000, 2079.500000, 8160.000000, 8199.500000, 8183.500000
2892, 129825208.000000, 1986.625000, 8154.500000, 8200.000000, 8189.500000
2893, 129825368.000000, 1896.250000, 8158.000000, 8208.000000, 8197.000000
2894, 129825528.000000, 1813.125000, 8160.500000, 8199.500000, 8190.000000
2895, 129825688.000000, 1719.375000, 8174.000000, 8196.000000, 8193.000000
2896, 129825848.000000, 1624.625000, 8175.500000, 8201.500000, 8195.000000
2897, 129826008.000000, 1546.250000, 8171.000000, 8194.000000, 8194.000000
2898, 129826168.000000, 1492.250000, 8176.000000, 8191.500000, 8185.500000
2899, 129826328.000000, 1443.375000, 8170.500000, 8190.000000, 8184.000000
2900, 129826488.000000, 1386.750000, 8183.000000, 8206.000000, 8213.000000
2901, 129826648.000000, 1354.625000, 8189.000000, 8196.500000, 8199.500000
2902, 129826808.000000, 1382.125000, 8184.000000, 8193.500000, 8198.000000
2903, 129826968.000000, 1505.500000, 8172.000000, 8177.500000, 8170.500000
2904, 129827128.000000, 1715.125000, 8170.500000, 8177.000000, 8165.000000
2905, 129827288.000000, 1971.625000, 8171.000000, 8179.000000, 8164.500000
2906, 129827448.000000, 2202.625000, 8174.500000, 8180.000000, 8170.500000
2907, 129827608.000000, 2363.125000, 8163.000000, 8235.500000, 8237.000000
2908, 129827768.000000, 2435.625000, 8442.500000, 8089.000000, 8173.000000
2909, 129827928.000000, 2424.875000, 8140.000000, 8088.500000, 8093.000000
2910, 129828088.000000, 2350.875000, 8105.000000, 8107.000000, 8088.500000
2911, 129828248.000000, 2219.125000, 8184.500000, 8188.500000, 8184.000000
2912, 129828408.000000, 2049.250000, 8193.500000, 8198.000000, 8197.000000
2913, 129828568.000000, 1852.000000, 8205.000000, 8195.000000, 8193.000000
2914, 129828728.000000, 1664.750000, 8213.000000, 8199.000000, 8199.000000
2915, 129828888.000000, 1528.750000, 8223.500000, 8198.500000, 8204.500000
2916, 129829048.000000, 1453.125000, 8228.500000, 8202.500000, 8220.000000
2917, 129829208.000000, 1398.125000, 8269.500000, 8209.500000, 8233.000000
2918, 129829368.000000, 1343.000000, 8274.500000, 8210.500000, 8239.500000
2919, 129829528.000000, 1283.000000, 8270.500000, 8215.500000, 8243.000000
2920, 129829688.000000, 1224.750000, 8229.500000, 8225.000000, 8237.000000
2921, 129829848.000000, 1182.375000, 8179.000000, 8218.000000, 8215.500000
2922, 129830008.000000, 1146.750000, 8153.000000, 8210.000000, 8199.500000
2923, 129830168.000000, 1104.875000, 8156.000000, 8204.000000, 8188.000000
2924, 129830328.000000, 1059.250000, 8152.000000, 8200.500000, 8186.000000
2925, 129830488.000000, 1020.125000, 8161.500000, 8200.500000, 8187.500000
2926, 129830648.000000, 982.125000, 8159.500000, 8199.500000, 8191.000000
2927, 129830808.000000, 918.750000, 8162.000000, 8204.500000, 8196.000000
2928, 129830968.000000, 830.875000, 8164.500000, 8197.000000, 8195.000000
2929, 129831128.000000, 722.500000, 8162.000000, 8203.500000, 8190.500000
2930, 129831288.000000, 619.750000, 8163.500000, 8196.500000, 8186.000000
2931, 129831448.000000, 547.875000, 8171.000000, 8189.000000, 8182.000000
2932, 129831608.000000, 516.000000, 8173.500000, 8188.000000, 8185.000000
2933, 129831768.000000, 508.375000, 8171.000000, 8193.000000, 8188.500000
2934, 129831928.000000, 523.625000, 8174.000000, 8202.000000, 8208.000000
2935, 129832088.000000, 600.875000, 8193.000000, 8202.000000, 8205.500000
2936, 129832248.000000, 762.875000, 8187.500000, 8187.000000, 8190.000000
2937, 129832408.000000, 1013.625000, 8172.000000, 8180.000000, 8173.000000
2938, 129832568.000000, 1299.500000, 8172.000000, 8182.000000, 8171.000000
2939, 129832728.000000, 1581.750000, 8167.000000, 8180.000000, 8163.000000
2940, 129832888.000000, 1828.375000, 8158.500000, 8184.500000, 8171.500000
2941, 129833048.000000, 2003.000000, 8162.000000, 8253.500000, 8252.500000
2942, 129833208.000000, 2085.625000, 8525.500000, 8028.000000, 8149.500000
2943, 129833368.000000, 2059.500000, 8082.500000, 8084.500000, 8071.000000
2944, 129833528.000000, 1960.875000, 8131.000000, 8135.000000, 8128.500000
2945, 129833688.000000, 1833.250000, 8181.500000, 8196.500000, 8187.000000
2946, 129833848.000000, 1714.625000, 8180.000000, 8206.000000, 8199.000000
2947, 129834008.000000, 1595.500000, 8201.000000, 8204.500000, 8203.000000
2948, 129834168.000000, 1462.625000, 8205.500000, 8209.000000, 8210.000000
2949, 129834328.000000, 1347.125000, 8226.000000, 8207.500000, 8215.000000
2950, 129834488.000000, 1275.625000, 8252.500000, 8207.500000, 8226.500000
2951, 129834648.000000, 1251.750000, 8272.500000, 8210.500000, 8244.500000
2952, 129834808.000000, 1235.000000, 8282.000000, 8217.500000, 8254.500000
2953, 129834968.000000, 1214.250000, 8273.500000, 8223.500000, 8253.500000
2954, 129835128.000000, 1186.500000, 8216.000000, 8234.000000, 8252.000000
2955, 129835288.000000, 1146.375000, 8167.500000, 8221.000000, 8220.500000
2956, 129835448.000000, 1095.750000, 8151.500000, 8212.500000, 8202.000000
2957, 129835608.000000, 1059.375000, 8148.000000, 8206.500000, 8196.500000
2958, 129835768.000000, 1039.625000, 8159.500000, 8201.000000, 8196.500000
2959, 129835928.000000, 1012.375000, 8159.000000, 8204.500000, 8195.000000
2960, 129836088.000000, 964.250000, 8172.000000, 8203.500000, 8201.500000
2961, 129836248.000000, 924.625000, 8170.000000, 8205.500000, 8208.000000
2962, 129836408.000000, 895.125000, 8170.500000, 8207.000000, 8205.000000
2963, 129836568.000000, 871.000000, 8161.500000, 8202.000000, 8199.000000
2964, 129836728.000000, 854.750000, 8169.000000, 8202.500000, 8198.500000
2965, 129836888.000000, 828.000000, 8166.000000, 8197.500000, 8189.500000
2966, 129837048.000000, 785.125000, 8173.500000, 8193.500000, 8189.500000
2967, 129837208.000000, 783.000000, 8174.000000, 8209.500000, 8213.500000
2968, 129837368.000000, 884.375000, 8177.500000, 8206.500000, 8217.000000
2969, 129837528.000000, 1097.875000, 8193.000000, 8202.500000, 8214.000000
2970, 129837688.000000, 1358.750000, 8183.000000, 8185.500000, 8189.500000
2971, 129837848.000000, 1612.875000, 8169.000000, 8182.500000, 8172.500000
2972, 129838008.000000, 1827.125000, 8162.500000, 8184.500000, 8176.000000
2973, 129838168.000000, 1973.000000, 8173.500000, 8184.500000, 8174.500000
2974, 129838328.000000, 2041.875000, 8176.500000, 8193.000000, 8183.000000
2975, 129838488.000000, 2040.125000, 8214.500000, 8236.000000, 8247.000000
2976, 129838648.000000, 1977.375000, 8490.000000, 8014.000000, 8130.000000
2977, 129838808.000000, 1865.875000, 8053.500000, 8078.500000, 8057.500000
2978, 129838968.000000, 1735.500000, 8162.000000, 8165.500000, 8163.000000
2979, 129839128.000000, 1605.125000, 8187.500000, 8197.500000, 8195.500000
2980, 129839288.000000, 1470.625000, 8194.000000, 8202.000000, 8200.500000
2981, 129839448.000000, 1349.625000, 8211.000000, 8204.500000, 8207.500000
2982, 129839608.000000, 1265.250000, 8227.000000, 8201.500000, 8208.000000
2983, 129839768.000000, 1232.375000, 8226.000000, 8200.500000, 8217.000000
2984, 129839928.000000, 1221.250000, 8246.000000, 8207.500000, 8223.500000
2985, 129840088.000000, 1217.750000, 8281.000000, 8210.000000, 8238.000000
2986, 129840248.000000, 1223.625000, 8286.000000, 8208.500000, 8245.000000
2987, 129840408.000000, 1227.500000, 8285.000000, 8217.000000, 8250.000000
2988, 129840568.000000, 1210.000000, 8215.000000, 8224.000000, 8231.500000
2989, 129840728.000000, 1190.375000, 8167.500000, 8213.500000, 8203.500000
2990, 129840888.000000, 1169.250000, 8158.000000, 8210.500000, 8192.000000
2991, 129841048.000000, 1139.375000, 8141.000000, 8200.500000, 8185.500000
2992, 129841208.000000, 1100.875000, 8139.000000, 8206.000000, 8185.000000
2993, 129841368.000000, 1066.750000, 8152.500000, 8206.000000, 8190.000000
2994, 129841528.000000, 1029.875000, 8163.500000, 8196.500000, 8190.500000
2995, 129841688.000000, 993.750000, 8178.500000, 8194.500000, 8189.000000
2996, 129841848.000000, 959.625000, 8160.500000, 8199.500000, 8192.000000
2997, 129842008.000000, 935.375000, 8176.500000, 8193.000000, 8188.000000
2998, 129842168.000000, 919.000000, 8172.500000, 8195.500000, 8187.500000
2999, 129842328.000000, 900.750000, 8175.500000, 8184.500000, 8172.000000
3000, 129842488.000000, 892.125000, 8187.500000, 8181.000000, 8175.500000
3001, 129842648.000000, 907.750000, 8179.000000, 8199.000000, 8201.000000
3002, 129842808.000000, 1000.500000, 8185.000000, 8206.000000, 8209.500000
3003, 129842968.000000, 1202.250000, 8197.500000, 8193.500000, 8194.000000
3004, 129843128.000000, 1473.125000, 8166.000000, 8173.500000, 8162.500000
3005, 129843288.000000, 1718.125000, 8162.000000, 8168.000000, 8152.000000
3006, 129843448.000000, 1898.125000, 8166.500000, 8168.500000, 8153.000000
3007, 129843608.000000, 2013.750000, 8173.500000, 8168.500000, 8158.500000
3008, 129843768.000000, 2061.250000, 8185.500000, 8179.500000, 8166.500000
3009, 129843928.000000, 2035.000000, 8286.000000, 8198.500000, 8218.000000
3010, 129844088.000000, 1954.625000, 8394.500000, 8053.500000, 8129.500000
3011, 129844248.000000, 1839.750000, 8086.000000, 8082.500000, 8051.000000
3012, 129844408.000000, 1698.125000, 8183.000000, 8150.500000, 8143.500000
3013, 129844568.000000, 1566.250000, 8196.500000, 8175.000000, 8169.500000
3014, 129844728.000000, 1445.875000, 8203.000000, 8179.500000, 8170.500000
3015, 129844888.000000, 1331.875000, 8219.000000, 8183.000000, 8178.500000
3016, 129845048.000000, 1245.375000, 8224.500000, 8183.500000, 8191.000000
3017, 129845208.000000, 1204.625000, 8242.500000, 8189.000000, 8197.500000
3018, 129845368.000000, 1179.500000, 8263.000000, 8186.000000, 8197.000000
3019, 129845528.000000, 1136.750000, 8287.500000, 8190.500000, 8211.500000
3020, 129845688.000000, 1079.000000, 8284.500000, 8198.500000, 8219.000000
3021, 129845848.000000, 1033.250000, 8262.000000, 8211.000000, 8221.500000
3022, 129846008.000000, 1018.375000, 8204.500000, 8214.000000, 8210.500000
3023, 129846168.000000, 1010.375000, 8172.500000, 8199.500000, 8178.500000
3024, 129846328.000000, 969.000000, 8158.000000, 8194.000000, 8166.500000
3025, 129846488.000000, 894.750000, 8166.000000, 8188.500000, 8169.500000
3026, 129846648.000000, 842.625000, 8157.500000, 8185.000000, 8169.500000
3027, 129846808.000000, 845.000000, 8154.500000, 8186.500000, 8170.000000
3028, 129846968.000000, 866.125000, 8169.500000, 8195.000000, 8182.500000
3029, 129847128.000000, 853.750000, 8179.500000, 8191.000000, 8179.000000
3030, 129847288.000000, 809.500000, 8176.500000, 8184.000000, 8174.000000
3031, 129847448.000000, 781.500000, 8176.500000, 8189.500000, 8179.500000
3032, 129847608.000000, 779.000000, 8173.500000, 8198.000000, 8182.000000
3033, 129847768.000000, 768.875000, 8161.500000, 8189.000000, 8172.000000
3034, 129847928.000000, 728.375000, 8172.000000, 8186.500000, 8169.500000
3035, 129848088.000000, 710.250000, 8181.000000, 8199.500000, 8201.000000
3036, 129848248.000000, 795.750000, 8200.500000, 8187.000000, 8194.500000
3037, 129848408.000000, 993.375000, 8213.500000, 8179.500000, 8181.000000
3038, 129848568.000000, 1248.750000, 8187.000000, 8169.500000, 8153.500000
3039, 129848728.000000, 1486.375000, 8187.000000, 8167.000000, 8153.000000
3040, 129848888.000000, 1644.125000, 8178.500000, 8172.000000, 8159.000000
3041, 129849048.000000, 1704.375000, 8191.000000, 8178.500000, 8164.000000
3042, 129849208.000000, 1705.625000, 8175.500000, 8234.500000, 8230.000000
3043, 129849368.000000, 1667.500000, 8544.000000, 8032.500000, 8149.500000
3044, 129849528.000000, 1571.625000, 8102.000000, 8116.000000, 8100.500000
3045, 129849688.000000, 1429.000000, 8141.000000, 8118.500000, 8106.500000
3046, 129849848.000000, 1261.750000, 8187.500000, 8177.000000, 8172.000000
3047, 129850008.000000, 1084.125000, 8194.000000, 8184.500000, 8173.000000
3048, 129850168.000000, 921.750000, 8211.000000, 8181.000000, 8179.000000
3049, 129850328.000000, 778.000000, 8246.500000, 8178.500000, 8185.500000
3050, 129850488.000000, 637.000000, 8261.500000, 8176.500000, 8193.500000
3051, 129850648.000000, 516.000000, 8272.000000, 8180.500000, 8200.500000
3052, 129850808.000000, 431.625000, 8279.500000, 8189.000000, 8216.000000
3053, 129850968.000000, 358.000000, 8285.000000, 8194.000000, 8220.000000
3054, 129851128.000000, 276.125000, 8268.500000, 8195.500000, 8219.500000
3055, 129851288.000000, 187.750000, 8243.500000, 8213.000000, 8224.000000
3056, 129851448.000000, 79.875000, 8193.000000, 8208.000000, 8203.000000
3057, 129851608.000000, 15.625000, 8150.000000, 8201.500000, 8183.000000
3058, 129851768.000000, 3.250000, 8154.500000, 8188.500000, 8171.000000
3059, 129851928.000000, 1.000000, 8149.000000, 8190.500000, 8171.500000
3060, 129852088.000000, 1.000000, 8157.000000, 8189.500000, 8176.500000
3061, 129852248.000000, 1.000000, 8161.500000, 8192.500000, 8181.500000
3062, 129852408.000000, 1.000000, 8155.000000, 8196.500000, 8180.000000
3063, 129852568.000000, 1.000000, 8149.500000, 8194.500000, 8176.500000
3064, 129852728.000000, 2.000000, 8168.500000, 8184.000000, 8178.000000
3065, 129852888.000000, 1.000000, 8176.500000, 8180.000000, 8176.000000
3066, 129853048.000000, 1.000000, 8185.000000, 8190.500000, 8181.500000
3067, 129853208.000000, 4.875000, 8167.500000, 8182.000000, 8176.000000
3068, 129853368.000000, 25.500000, 8169.500000, 8201.500000, 8197.000000
3069, 129853528.000000, 81.625000, 8180.000000, 8196.000000, 8193.500000
3070, 129853688.000000, 181.125000, 8177.500000, 8185.500000, 8178.000000
3071, 129853848.000000, 336.000000, 8173.500000, 8174.500000, 8160.500000
3072, 129854008.000000, 527.125000, 8182.500000, 8176.000000, 8162.000000
3073, 129854168.000000, 722.375000, 8172.500000, 8171.500000, 8158.000000
3074, 129854328.000000, 879.125000, 8179.000000, 8177.500000, 8165.500000
3075, 129854488.000000, 977.750000, 8167.000000, 8243.000000, 8238.500000
3076, 129854648.000000, 1023.375000, 8553.500000, 8032.000000, 8160.000000
3077, 129854808.000000, 1030.000000, 8048.000000, 8122.500000, 8095.500000
3078, 129854968.000000, 990.750000, 8113.000000, 8144.000000, 8123.500000
3079, 129855128.000000, 912.500000, 8172.500000, 8196.500000, 8177.500000
3080, 129855288.000000, 821.500000, 8186.500000, 8196.500000, 8188.000000
3081, 129855448.000000, 741.875000, 8204.500000, 8202.000000, 8193.500000
3082, 129855608.000000, 688.125000, 8205.000000, 8200.500000, 8194.500000
3083, 129855768.000000, 660.625000, 8220.500000, 8202.500000, 8207.500000
3084, 129855928.000000, 632.750000, 8243.500000, 8198.000000, 8211.500000
3085, 129856088.000000, 580.000000, 8277.000000, 8204.000000, 8224.500000
3086, 129856248.000000, 530.875000, 8286.500000, 8206.500000, 8235.500000
3087, 129856408.000000, 530.375000, 8262.000000, 8214.500000, 8236.000000
3088, 129856568.000000, 552.125000, 8219.500000, 8227.000000, 8226.500000
3089, 129856728.000000, 553.500000, 8159.500000, 8217.000000, 8206.000000
3090, 129856888.000000, 539.750000, 8146.000000, 8206.500000, 8186.000000
3091, 129857048.000000, 521.000000, 8135.500000, 8202.000000, 8178.000000
3092, 129857208.000000, 498.250000, 8136.500000, 8204.000000, 8182.500000
3093, 129857368.000000, 480.625000, 8132.000000, 8200.500000, 8181.000000
3094, 129857528.000000, 491.750000, 8149.000000, 8199.000000, 8178.500000
3095, 129857688.000000, 526.875000, 8146.000000, 8205.000000, 8186.500000
3096, 129857848.000000, 546.625000, 8147.500000, 8202.500000, 8188.500000
3097, 129858008.000000, 543.875000, 8142.000000, 8199.000000, 8184.000000
3098, 129858168.000000, 538.125000, 8147.500000, 8200.500000, 8177.000000
3099, 129858328.000000, 539.750000, 8146.500000, 8196.500000, 8179.500000
3100, 129858488.000000, 549.250000, 8151.000000, 8205.500000, 8201.500000
3101, 129858648.000000, 596.000000, 8154.500000, 8208.500000, 8201.000000
3102, 129858808.000000, 699.750000, 8155.000000, 8198.500000, 8188.000000
3103, 129858968.000000, 853.500000, 8135.000000, 8187.500000, 8160.500000
3104, 129859128.000000, 1040.750000, 8138.500000, 8183.000000, 8158.500000
3105, 129859288.000000, 1266.625000, 8140.000000, 8184.500000, 8163.000000
3106, 129859448.000000, 1493.125000, 8154.000000, 8188.000000, 8170.000000
3107, 129859608.000000, 1672.750000, 8139.500000, 8240.500000, 8225.000000
3108, 129859768.000000, 1796.625000, 8447.500000, 8082.500000, 8170.500000
3109, 129859928.000000, 1880.875000, 8090.000000, 8120.500000, 8102.000000
3110, 129860088.000000, 1939.750000, 8079.000000, 8124.000000, 8095.000000
3111, 129860248.000000, 1959.375000, 8153.000000, 8194.500000, 8172.000000
3112, 129860408.000000, 1942.625000, 8165.500000, 8198.500000, 8178.000000
3113, 129860568.000000, 1893.000000, 8170.000000, 8197.500000, 8186.000000
3114, 129860728.000000, 1835.625000, 8194.000000, 8195.000000, 8190.500000
3115, 129860888.000000, 1803.375000, 8217.000000, 8194.000000, 8200.000000
3116, 129861048.000000, 1794.250000, 8239.000000, 8195.500000, 8210.000000
3117, 129861208.000000, 1793.000000, 8266.500000, 8198.500000, 8221.000000
3118, 129861368.000000, 1793.000000, 8288.000000, 8206.000000, 8229.000000
3119, 129861528.000000, 1793.000000, 8268.500000, 8209.000000, 8232.000000
3120, 129861688.000000, 1789.375000, 8221.000000, 8226.000000, 8236.000000
3121, 129861848.000000, 1787.375000, 8169.500000, 8214.000000, 8207.500000
3122, 129862008.000000, 1785.250000, 8137.000000, 8207.000000, 8184.500000
3123, 129862168.000000, 1766.875000, 8129.500000, 8202.000000, 8175.500000
3124, 129862328.000000, 1736.500000, 8128.500000, 8200.000000, 8173.000000
3125, 129862488.000000, 1717.875000, 8138.000000, 8200.500000, 8181.500000
3126, 129862648.000000, 1712.250000, 8141.500000, 8199.500000, 8180.500000
3127, 129862808.000000, 1693.250000, 8138.000000, 8208.500000, 8186.000000
3128, 129862968.000000, 1660.875000, 8134.000000, 8202.500000, 8180.000000
3129, 129863128.000000, 1627.875000, 8144.000000, 8198.000000, 8185.000000
3130, 129863288.000000, 1612.375000, 8149.000000, 8197.500000, 8183.000000
3131, 129863448.000000, 1613.375000, 8160.500000, 8194.000000, 8179.000000
3132, 129863608.000000, 1611.250000, 8153.500000, 8189.500000, 8175.000000
3133, 129863768.000000, 1610.250000, 8157.500000, 8209.000000, 8200.500000
3134, 129863928.000000, 1653.500000, 8166.500000, 8201.500000, 8199.500000
3135, 129864088.000000, 1785.875000, 8164.500000, 8195.000000, 8187.000000
3136, 129864248.000000, 1993.375000, 8152.000000, 8182.500000, 8165.000000
3137, 129864408.000000, 2240.125000, 8145.000000, 8184.000000, 8164.000000
3138, 129864568.000000, 2470.250000, 8156.000000, 8185.500000, 8166.000000
3139, 129864728.000000, 2658.000000, 8162.000000, 8185.000000, 8167.500000
3140, 129864888.000000, 2805.125000, 8158.000000, 8232.500000, 8224.000000
3141, 129865048.000000, 2917.125000, 8438.000000, 8101.000000, 8184.000000
3142, 129865208.000000, 2981.000000, 8166.000000, 8101.500000, 8117.000000
3143, 129865368.000000, 2967.875000, 8095.000000, 8107.500000, 8086.500000
3144, 129865528.000000, 2903.750000, 8175.000000, 8185.500000, 8180.500000
3145, 129865688.000000, 2827.125000, 8180.000000, 8195.500000, 8194.000000
3146, 129865848.000000, 2755.500000, 8184.500000, 8201.000000, 8200.000000
3147, 129866008.000000, 2680.375000, 8208.500000, 8202.500000, 8199.000000
3148, 129866168.000000, 2606.500000, 8221.000000, 8200.500000, 8209.500000
3149, 129866328.000000, 2554.375000, 8233.000000, 8208.000000, 8223.500000
3150, 129866488.000000, 2533.375000, 8263.000000, 8207.500000, 8231.000000
3151, 129866648.000000, 2540.625000, 8301.000000, 8207.000000, 8243.500000
3152, 129866808.000000, 2551.875000, 8293.000000, 8213.000000, 8249.500000
3153, 129866968.000000, 2539.250000, 8251.000000, 8216.000000, 8241.500000
3154, 129867128.000000, 2515.125000, 8196.000000, 8216.000000, 8224.000000
3155, 129867288.000000, 2502.500000, 8165.000000, 8213.000000, 8209.500000
3156, 129867448.000000, 2487.000000, 8145.000000, 8208.000000, 8195.000000
3157, 129867608.000000, 2462.750000, 8129.500000, 8203.500000, 8191.000000
3158, 129867768.000000, 2461.500000, 8127.500000, 8207.000000, 8192.500000
3159, 129867928.000000, 2491.625000, 8143.500000, 8209.000000, 8202.000000
3160, 129868088.000000, 2524.625000, 8159.500000, 8206.500000, 8205.000000
3161, 129868248.000000, 2543.125000, 8151.500000, 8211.500000, 8208.000000
3162, 129868408.000000, 2541.500000, 8164.500000, 8206.500000, 8199.500000
3163, 129868568.000000, 2522.750000, 8167.000000, 8198.500000, 8200.500000
3164, 129868728.000000, 2513.250000, 8179.000000, 8198.500000, 8201.000000
3165, 129868888.000000, 2517.125000, 8193.500000, 8198.500000, 8209.500000
3166, 129869048.000000, 2527.375000, 8195.000000, 8204.500000, 8223.500000
3167, 129869208.000000, 2566.375000, 8213.500000, 8205.500000, 8222.000000
3168, 129869368.000000, 2665.500000, 8194.000000, 8193.500000, 8200.000000
3169, 129869528.000000, 2838.375000, 8165.000000, 8191.000000, 8183.500000
3170, 129869688.000000, 3054.750000, 8147.500000, 8191.000000, 8184.000000
3171, 129869848.000000, 3278.875000, 8150.000000, 8198.000000, 8183.000000
3172, 129870008.000000, 3474.875000, 8148.500000, 8201.000000, 8185.500000
3173, 129870168.000000, 3610.625000, 8159.500000, 8258.000000, 8257.500000
3174, 129870328.000000, 3681.625000, 8557.500000, 8030.000000, 8167.000000
3175, 129870488.000000, 3683.125000, 8060.500000, 8125.500000, 8108.000000
3176, 129870648.000000, 3621.375000, 8139.000000, 8150.500000, 8152.000000
3177, 129870808.000000, 3504.750000, 8189.500000, 8198.000000, 8199.500000
3178, 129870968.000000, 3355.875000, 8191.000000, 8205.500000, 8204.000000
3179, 129871128.000000, 3203.000000, 8197.000000, 8203.500000, 8207.000000
3180, 129871288.000000, 3079.500000, 8216.500000, 8210.000000, 8217.000000
3181, 129871448.000000, 3003.000000, 8227.500000, 8207.500000, 8220.000000
3182, 129871608.000000, 2948.625000, 8257.000000, 8208.000000, 8230.500000
3183, 129871768.000000, 2889.625000, 8272.500000, 8207.500000, 8240.500000
3184, 129871928.000000, 2823.500000, 8290.000000, 8214.000000, 8251.000000
3185, 129872088.000000, 2749.750000, 8277.000000, 8223.000000, 8255.500000
3186, 129872248.000000, 2688.500000, 8222.000000, 8226.000000, 8241.000000
3187, 129872408.000000, 2668.125000, 8179.000000, 8213.500000, 8211.000000
3188, 129872568.000000, 2680.375000, 8151.500000, 8197.500000, 8191.000000
3189, 129872728.000000, 2659.750000, 8141.500000, 8204.500000, 8188.000000
3190, 129872888.000000, 2580.000000, 8129.500000, 8212.500000, 8193.000000
3191, 129873048.000000, 2471.625000, 8134.000000, 8206.500000, 8189.500000
3192, 129873208.000000, 2386.500000, 8162.500000, 8205.500000, 8195.500000
3193, 129873368.000000, 2337.375000, 8186.000000, 8202.000000, 8199.500000
3194, 129873528.000000, 2310.000000, 8173.000000, 8197.500000, 8199.000000
3195, 129873688.000000, 2299.625000, 8151.500000, 8204.000000, 8198.500000
3196, 129873848.000000, 2305.500000, 8152.000000, 8206.500000, 8197.000000
3197, 129874008.000000, 2325.000000, 8167.000000, 8202.000000, 8197.500000
3198, 129874168.000000, 2348.750000, 8183.000000, 8209.000000, 8217.000000
3199, 129874328.000000, 2373.750000, 8181.500000, 8206.500000, 8216.500000
3200, 129874488.000000, 2408.750000, 8175.500000, 8198.000000, 8201.000000
3201, 129874648.000000, 2475.500000, 8166.000000, 8189.500000, 8179.500000
3202, 129874808.000000, 2594.000000, 8178.000000, 8186.500000, 8175.500000
3203, 129874968.000000, 2764.625000, 8182.500000, 8182.500000, 8171.500000
3204, 129875128.000000, 2967.750000, 8187.500000, 8183.500000, 8182.500000
3205, 129875288.000000, 3147.875000, 8170.000000, 8252.500000, 8254.000000
3206, 129875448.000000, 3271.125000, 8517.500000, 8053.000000, 8168.000000
3207, 129875608.000000, 3324.125000, 8081.500000, 8109.500000, 8092.000000
3208, 129875768.000000, 3321.500000, 8130.000000, 8126.500000, 8114.500000
3209, 129875928.000000, 3258.500000, 8185.500000, 8195.500000, 8188.500000
3210, 129876088.000000, 3161.000000, 8181.500000, 8209.000000, 8200.500000
3211, 129876248.000000, 3062.750000, 8186.000000, 8207.500000, 8207.500000
3212, 129876408.000000, 2964.125000, 8196.500000, 8211.500000, 8207.000000
3213, 129876568.000000, 2859.625000, 8224.500000, 8214.000000, 8219.000000
3214, 129876728.000000, 2762.500000, 8246.000000, 8214.000000, 8229.000000
3215, 129876888.000000, 2690.250000, 8272.000000, 8219.000000, 8249.500000
3216, 129877048.000000, 2623.500000, 8275.500000, 8225.500000, 8258.000000
3217, 129877208.000000, 2551.375000, 8263.000000, 8232.500000, 8263.500000
3218, 129877368.000000, 2470.125000, 8215.500000, 8243.500000, 8256.000000
3219, 129877528.000000, 2397.750000, 8176.500000, 8227.500000, 8231.500000
3220, 129877688.000000, 2354.750000, 8149.000000, 8218.000000, 8214.500000
3221, 129877848.000000, 2308.625000, 8139.500000, 8215.500000, 8204.000000
3222, 129878008.000000, 2235.125000, 8148.500000, 8212.500000, 8201.000000
3223, 129878168.000000, 2153.750000, 8148.500000, 8214.000000, 8205.500000
3224, 129878328.000000, 2094.375000, 8167.500000, 8213.500000, 8211.500000
3225, 129878488.000000, 2055.750000, 8170.500000, 8219.000000, 8217.000000
3226, 129878648.000000, 2015.250000, 8166.000000, 8215.500000, 8218.500000
3227, 129878808.000000, 1966.875000, 8169.500000, 8217.000000, 8208.500000
3228, 129878968.000000, 1924.875000, 8171.500000, 8209.000000, 8207.500000
3229, 129879128.000000, 1895.250000, 8179.000000, 8211.500000, 8220.000000
3230, 129879288.000000, 1866.750000, 8173.000000, 8227.000000, 8240.500000
3231, 129879448.000000, 1823.000000, 8181.500000, 8219.500000, 8228.500000
3232, 129879608.000000, 1798.375000, 8168.000000, 8209.000000, 8204.000000
3233, 129879768.000000, 1846.375000, 8153.500000, 8204.000000, 8187.000000
3234, 129879928.000000, 1993.000000, 8166.000000, 8201.000000, 8194.000000
3235, 129880088.000000, 2198.625000, 8158.000000, 8196.000000, 8188.500000
3236, 129880248.000000, 2412.625000, 8168.000000, 8201.000000, 8192.000000
3237, 129880408.000000, 2587.750000, 8182.500000, 8264.500000, 8271.000000
3238, 129880568.000000, 2711.750000, 8491.500000, 8031.000000, 8148.500000
3239, 129880728.000000, 2786.375000, 8057.000000, 8097.000000, 8084.500000
3240, 129880888.000000, 2834.250000, 8150.500000, 8154.500000, 8158.000000
3241, 129881048.000000, 2845.000000, 8184.500000, 8204.000000, 8200.500000
3242, 129881208.000000, 2797.375000, 8187.000000, 8216.000000, 8215.500000
3243, 129881368.000000, 2700.125000, 8213.000000, 8213.500000, 8220.500000
3244, 129881528.000000, 2590.250000, 8211.500000, 8213.500000, 8223.500000
3245, 129881688.000000, 2505.875000, 8227.500000, 8221.500000, 8230.500000
3246, 129881848.000000, 2444.875000, 8235.500000, 8220.500000, 8239.500000
3247, 129882008.000000, 2384.375000, 8253.000000, 8226.500000, 8251.000000
3248, 129882168.000000, 2335.000000, 8265.000000, 8233.500000, 8267.500000
3249, 129882328.000000, 2313.125000, 8248.500000, 8244.500000, 8271.000000
3250, 129882488.000000, 2300.500000, 8200.000000, 8242.500000, 8255.500000
3251, 129882648.000000, 2282.875000, 8141.500000, 8231.500000, 8224.000000
