3008, 124393720.000000, 2214.750000, 8145.000000, 8202.000000, 8189.000000
3009, 124393880.000000, 2165.625000, 8153.000000, 8204.500000, 8195.000000
3010, 124394040.000000, 2125.125000, 8166.000000, 8204.500000, 8199.500000
3011, 124394200.000000, 2080.500000, 8173.000000, 8197.500000, 8193.000000
3012, 124394360.000000, 2023.125000, 8179.500000, 8195.500000, 8194.500000
3013, 124394520.000000, 1939.250000, 8176.000000, 8195.000000, 8190.500000
3014, 124394680.000000, 1872.875000, 8177.000000, 8198.500000, 8190.000000
3015, 124394840.000000, 1823.875000, 8177.500000, 8206.000000, 8208.500000
3016, 124395000.000000, 1752.500000, 8169.000000, 8212.000000, 8213.500000
3017, 124395160.000000, 1656.375000, 8179.000000, 8206.500000, 8204.000000
3018, 124395320.000000, 1588.875000, 8170.000000, 8189.500000, 8180.000000
3019, 124395480.000000, 1580.750000, 8168.500000, 8185.500000, 8170.000000
3020, 124395640.000000, 1673.250000, 8170.500000, 8183.000000, 8172.000000
3021, 124395800.000000, 1885.250000, 8172.000000, 8179.000000, 8167.000000
3022, 124395960.000000, 2215.750000, 8171.000000, 8200.000000, 8188.500000
3023, 124396120.000000, 2599.125000, 8303.500000, 8201.000000, 8239.500000
3024, 124396280.000000, 2854.125000, 8252.500000, 8071.500000, 8113.500000
3025, 124396440.000000, 3008.625000, 8078.000000, 8066.500000, 8042.500000
3026, 124396600.000000, 3092.375000, 8176.000000, 8173.000000, 8170.500000
3027, 124396760.000000, 3098.125000, 8192.000000, 8195.000000, 8185.500000
3028, 124396920.000000, 3030.625000, 8196.500000, 8204.500000, 8197.000000
3029, 124397080.000000, 2901.375000, 8200.500000, 8205.500000, 8200.500000
3030, 124397240.000000, 2737.250000, 8222.000000, 8204.000000, 8210.000000
3031, 124397400.000000, 2578.875000, 8240.500000, 8198.500000, 8212.000000
3032, 124397560.000000, 2446.000000, 8271.500000, 8202.500000, 8222.500000
3033, 124397720.000000, 2344.250000, 8280.000000, 8206.000000, 8229.500000
3034, 124397880.000000, 2266.625000, 8272.500000, 8216.500000, 8244.000000
3035, 124398040.000000, 2208.500000, 8238.000000, 8228.000000, 8242.500000
3036, 124398200.000000, 2165.875000, 8191.000000, 8218.500000, 8218.000000
3037, 124398360.000000, 2128.500000, 8167.500000, 8206.000000, 8193.000000
3038, 124398520.000000, 2099.500000, 8158.500000, 8197.000000, 8185.000000
3039, 124398680.000000, 2069.500000, 8160.000000, 8199.000000, 8189.000000
3040, 124398840.000000, 2038.625000, 8160.500000, 8199.000000, 8186.500000
3041, 124399000.000000, 2001.250000, 8165.500000, 8196.500000, 8187.000000
3042, 124399160.000000, 1948.875000, 8168.500000, 8195.500000, 8186.000000
3043, 124399320.000000, 1886.250000, 8169.000000, 8197.500000, 8189.500000
3044, 124399480.000000, 1826.750000, 8170.500000, 8196.500000, 8187.500000
3045, 124399640.000000, 1779.250000, 8172.000000, 8193.500000, 8183.500000
3046, 124399800.000000, 1732.500000, 8179.000000, 8192.500000, 8180.000000
3047, 124399960.000000, 1666.375000, 8179.000000, 8206.500000, 8203.500000
3048, 124400120.000000, 1591.625000, 8177.000000, 8200.000000, 8199.000000
3049, 124400280.000000, 1544.375000, 8184.500000, 8196.500000, 8191.000000
3050, 124400440.000000, 1568.750000, 8161.500000, 8184.000000, 8166.000000
3051, 124400600.000000, 1699.875000, 8170.000000, 8173.000000, 8155.000000
3052, 124400760.000000, 1936.500000, 8174.500000, 8171.500000, 8156.000000
3053, 124400920.000000, 2241.625000, 8177.000000, 8175.500000, 8161.500000
3054, 124401080.000000, 2553.750000, 8181.500000, 8243.000000, 8248.000000
3055, 124401240.000000, 2810.875000, 8503.500000, 8033.000000, 8139.500000
3056, 124401400.000000, 2988.625000, 8059.500000, 8074.000000, 8049.000000
3057, 124401560.000000, 3079.250000, 8142.500000, 8125.000000, 8112.500000
3058, 124401720.000000, 3106.750000, 8192.500000, 8185.000000, 8174.500000
3059, 124401880.000000, 3080.750000, 8199.000000, 8198.000000, 8183.000000
3060, 124402040.000000, 3000.125000, 8195.500000, 8199.500000, 8192.000000
3061, 124402200.000000, 2863.625000, 8207.500000, 8193.500000, 8190.000000
3062, 124402360.000000, 2692.750000, 8239.500000, 8191.000000, 8197.500000
3063, 124402520.000000, 2529.250000, 8256.000000, 8193.500000, 8208.000000
3064, 124402680.000000, 2401.625000, 8272.000000, 8197.000000, 8222.000000
3065, 124402840.000000, 2307.250000, 8272.500000, 8204.500000, 8226.000000
3066, 124403000.000000, 2223.125000, 8255.500000, 8214.000000, 8226.000000
3067, 124403160.000000, 2153.000000, 8215.500000, 8221.000000, 8221.500000
3068, 124403320.000000, 2104.000000, 8172.500000, 8209.000000, 8200.000000
3069, 124403480.000000, 2071.375000, 8160.000000, 8198.500000, 8185.500000
3070, 124403640.000000, 2030.125000, 8163.500000, 8195.000000, 8183.000000
3071, 124403800.000000, 1983.875000, 8158.500000, 8190.500000, 8179.500000
3072, 124403960.000000, 1932.625000, 8167.000000, 8191.500000, 8180.000000
3073, 124404120.000000, 1870.250000, 8180.000000, 8192.500000, 8189.500000
3074, 124404280.000000, 1796.000000, 8183.500000, 8194.000000, 8193.500000
3075, 124404440.000000, 1721.750000, 8181.000000, 8192.500000, 8190.500000
3076, 124404600.000000, 1648.500000, 8184.000000, 8189.500000, 8184.500000
3077, 124404760.000000, 1580.875000, 8187.000000, 8188.500000, 8178.500000
3078, 124404920.000000, 1511.500000, 8190.000000, 8185.500000, 8176.500000
3079, 124405080.000000, 1443.000000, 8191.000000, 8199.000000, 8204.500000
3080, 124405240.000000, 1399.500000, 8184.000000, 8196.500000, 8204.000000
3081, 124405400.000000, 1401.875000, 8198.000000, 8191.500000, 8197.500000
3082, 124405560.000000, 1477.250000, 8187.000000, 8180.500000, 8170.500000
3083, 124405720.000000, 1662.125000, 8169.500000, 8176.000000, 8162.500000
3084, 124405880.000000, 1947.375000, 8180.000000, 8175.500000, 8164.500000
3085, 124406040.000000, 2272.500000, 8176.000000, 8172.500000, 8165.000000
3086, 124406200.000000, 2567.000000, 8177.500000, 8189.000000, 8184.500000
3087, 124406360.000000, 2795.500000, 8322.500000, 8190.000000, 8232.000000
3088, 124406520.000000, 2950.875000, 8323.000000, 8052.500000, 8115.500000
3089, 124406680.000000, 3011.625000, 8083.500000, 8063.500000, 8042.500000
3090, 124406840.000000, 2990.500000, 8179.000000, 8167.000000, 8164.000000
3091, 124407000.000000, 2906.875000, 8207.000000, 8195.000000, 8187.000000
3092, 124407160.000000, 2781.000000, 8217.500000, 8189.000000, 8183.000000
3093, 124407320.000000, 2629.250000, 8220.500000, 8195.000000, 8198.000000
3094, 124407480.000000, 2469.625000, 8222.500000, 8201.000000, 8203.500000
3095, 124407640.000000, 2324.625000, 8245.000000, 8203.000000, 8215.000000
3096, 124407800.000000, 2185.875000, 8256.000000, 8202.000000, 8216.500000
3097, 124407960.000000, 2058.750000, 8278.500000, 8208.500000, 8235.000000
3098, 124408120.000000, 1962.000000, 8267.500000, 8213.000000, 8240.000000
3099, 124408280.000000, 1909.000000, 8224.500000, 8229.500000, 8240.000000
3100, 124408440.000000, 1861.625000, 8176.500000, 8226.000000, 8219.000000
3101, 124408600.000000, 1796.625000, 8171.500000, 8203.000000, 8190.000000
3102, 124408760.000000, 1710.375000, 8176.500000, 8199.000000, 8182.000000
3103, 124408920.000000, 1620.875000, 8194.000000, 8193.000000, 8185.500000
3104, 124409080.000000, 1537.000000, 8210.000000, 8201.500000, 8195.000000
3105, 124409240.000000, 1476.250000, 8211.500000, 8193.000000, 8182.500000
3106, 124409400.000000, 1437.750000, 8200.500000, 8194.000000, 8184.000000
3107, 124409560.000000, 1406.750000, 8222.000000, 8189.500000, 8188.000000
3108, 124409720.000000, 1369.875000, 8214.500000, 8187.500000, 8184.000000
3109, 124409880.000000, 1332.875000, 8221.000000, 8180.500000, 8176.000000
3110, 124410040.000000, 1305.375000, 8212.500000, 8187.000000, 8180.000000
3111, 124410200.000000, 1252.375000, 8193.500000, 8190.500000, 8166.500000
3112, 124410360.000000, 1169.375000, 8189.500000, 8204.000000, 8190.000000
3113, 124410520.000000, 1109.875000, 8207.000000, 8193.500000, 8186.000000
3114, 124410680.000000, 1123.500000, 8194.500000, 8187.000000, 8180.000000
3115, 124410840.000000, 1228.625000, 8156.500000, 8169.500000, 8149.000000
3116, 124411000.000000, 1432.125000, 8129.500000, 8165.500000, 8146.000000
3117, 124411160.000000, 1709.125000, 8127.500000, 8177.500000, 8140.000000
3118, 124411320.000000, 2020.375000, 8127.000000, 8188.000000, 8156.000000
3119, 124411480.000000, 2306.250000, 8114.500000, 8244.500000, 8219.500000
3120, 124411640.000000, 2522.875000, 8437.500000, 8080.500000, 8156.500000
3121, 124411800.000000, 2637.875000, 8062.000000, 8099.500000, 8076.000000
3122, 124411960.000000, 2666.250000, 8076.500000, 8112.000000, 8076.000000
3123, 124412120.000000, 2622.750000, 8126.000000, 8197.500000, 8163.000000
3124, 124412280.000000, 2533.750000, 8153.500000, 8197.000000, 8172.500000
3125, 124412440.000000, 2429.125000, 8165.500000, 8197.000000, 8181.000000
3126, 124412600.000000, 2313.875000, 8192.000000, 8192.000000, 8181.000000
3127, 124412760.000000, 2194.625000, 8228.000000, 8184.000000, 8187.000000
3128, 124412920.000000, 2084.750000, 8249.500000, 8192.500000, 8205.500000
3129, 124413080.000000, 2037.500000, 8264.000000, 8197.000000, 8214.000000
3130, 124413240.000000, 2045.125000, 8252.500000, 8201.000000, 8217.500000
3131, 124413400.000000, 2051.375000, 8248.000000, 8210.500000, 8227.500000
3132, 124413560.000000, 2008.125000, 8213.000000, 8212.500000, 8219.500000
3133, 124413720.000000, 1945.125000, 8188.500000, 8207.500000, 8205.500000
3134, 124413880.000000, 1912.875000, 8180.000000, 8196.000000, 8184.500000
3135, 124414040.000000, 1896.125000, 8169.500000, 8186.000000, 8170.500000
3136, 124414200.000000, 1833.500000, 8166.500000, 8193.000000, 8181.500000
3137, 124414360.000000, 1698.125000, 8174.500000, 8185.500000, 8180.000000
3138, 124414520.000000, 1547.250000, 8181.500000, 8186.500000, 8186.500000
3139, 124414680.000000, 1419.125000, 8182.000000, 8190.500000, 8191.000000
3140, 124414840.000000, 1307.625000, 8173.000000, 8190.500000, 8185.000000
3141, 124415000.000000, 1188.250000, 8182.500000, 8190.000000, 8184.000000
3142, 124415160.000000, 1060.500000, 8177.500000, 8192.500000, 8179.500000
3143, 124415320.000000, 940.500000, 8177.000000, 8189.000000, 8184.000000
3144, 124415480.000000, 830.500000, 8162.000000, 8205.000000, 8204.000000
3145, 124415640.000000, 716.125000, 8167.500000, 8205.000000, 8200.000000
3146, 124415800.000000, 604.375000, 8172.000000, 8194.500000, 8192.500000
3147, 124415960.000000, 529.375000, 8152.500000, 8183.000000, 8168.000000
3148, 124416120.000000, 547.750000, 8157.000000, 8183.000000, 8170.000000
3149, 124416280.000000, 691.500000, 8145.500000, 8183.000000, 8169.000000
3150, 124416440.000000, 929.250000, 8159.500000, 8178.500000, 8171.000000
3151, 124416600.000000, 1187.750000, 8147.500000, 8221.500000, 8214.000000
3152, 124416760.000000, 1407.250000, 8407.500000, 8112.000000, 8183.500000
3153, 124416920.000000, 1551.500000, 8176.500000, 8119.500000, 8140.500000
3154, 124417080.000000, 1625.875000, 8068.000000, 8102.000000, 8079.500000
3155, 124417240.000000, 1626.500000, 8146.500000, 8187.500000, 8177.500000
3156, 124417400.000000, 1575.250000, 8168.500000, 8198.000000, 8189.000000
3157, 124417560.000000, 1500.250000, 8163.500000, 8202.500000, 8189.500000
3158, 124417720.000000, 1410.625000, 8188.500000, 8206.000000, 8201.000000
3159, 124417880.000000, 1311.625000, 8196.500000, 8206.000000, 8203.500000
3160, 124418040.000000, 1207.250000, 8222.000000, 8199.500000, 8214.500000
3161, 124418200.000000, 1107.125000, 8249.000000, 8200.000000, 8218.000000
3162, 124418360.000000, 1035.500000, 8255.500000, 8203.000000, 8226.500000
3163, 124418520.000000, 1015.250000, 8263.000000, 8207.500000, 8230.500000
3164, 124418680.000000, 1004.750000, 8210.500000, 8222.500000, 8237.000000
3165, 124418840.000000, 971.500000, 8159.500000, 8218.000000, 8207.500000
3166, 124419000.000000, 925.000000, 8141.000000, 8207.000000, 8189.000000
3167, 124419160.000000, 917.250000, 8141.500000, 8197.000000, 8182.500000
3168, 124419320.000000, 937.875000, 8138.000000, 8200.500000, 8181.500000
3169, 124419480.000000, 939.375000, 8163.000000, 8206.000000, 8188.000000
3170, 124419640.000000, 906.250000, 8163.500000, 8205.000000, 8188.500000
3171, 124419800.000000, 854.750000, 8164.000000, 8200.500000, 8186.500000
3172, 124419960.000000, 794.125000, 8146.500000, 8198.500000, 8192.500000
3173, 124420120.000000, 733.625000, 8147.500000, 8198.000000, 8195.500000
3174, 124420280.000000, 669.125000, 8157.000000, 8196.000000, 8189.000000
3175, 124420440.000000, 613.625000, 8155.000000, 8196.000000, 8183.000000
3176, 124420600.000000, 573.000000, 8159.000000, 8206.500000, 8200.500000
3177, 124420760.000000, 529.250000, 8161.500000, 8203.500000, 8205.000000
3178, 124420920.000000, 480.375000, 8179.500000, 8205.000000, 8202.000000
3179, 124421080.000000, 453.500000, 8151.000000, 8194.500000, 8180.500000
3180, 124421240.000000, 506.625000, 8153.000000, 8187.500000, 8172.000000
3181, 124421400.000000, 648.375000, 8141.000000, 8181.000000, 8163.500000
3182, 124421560.000000, 852.875000, 8141.000000, 8184.000000, 8177.500000
3183, 124421720.000000, 1089.500000, 8142.000000, 8215.000000, 8208.000000
3184, 124421880.000000, 1341.500000, 8355.500000, 8152.500000, 8208.500000
3185, 124422040.000000, 1565.625000, 8270.500000, 8102.500000, 8154.000000
3186, 124422200.000000, 1722.125000, 8067.500000, 8092.500000, 8063.000000
3187, 124422360.000000, 1773.250000, 8147.500000, 8185.000000, 8175.500000
3188, 124422520.000000, 1736.750000, 8153.500000, 8204.500000, 8193.000000
3189, 124422680.000000, 1692.875000, 8173.000000, 8204.000000, 8194.500000
3190, 124422840.000000, 1680.000000, 8182.000000, 8205.500000, 8197.000000
3191, 124423000.000000, 1682.500000, 8198.500000, 8202.000000, 8204.500000
3192, 124423160.000000, 1654.250000, 8209.500000, 8201.500000, 8212.500000
3193, 124423320.000000, 1598.750000, 8222.000000, 8205.000000, 8228.000000
3194, 124423480.000000, 1553.750000, 8245.500000, 8207.000000, 8234.500000
3195, 124423640.000000, 1530.875000, 8237.000000, 8212.000000, 8236.000000
3196, 124423800.000000, 1490.500000, 8211.000000, 8219.000000, 8232.500000
3197, 124423960.000000, 1434.750000, 8172.500000, 8216.000000, 8216.000000
3198, 124424120.000000, 1384.250000, 8134.500000, 8209.500000, 8192.500000
3199, 124424280.000000, 1354.000000, 8125.000000, 8203.000000, 8184.500000
3200, 124424440.000000, 1339.500000, 8121.500000, 8203.000000, 8180.500000
3201, 124424600.000000, 1325.000000, 8129.000000, 8198.000000, 8181.500000
3202, 124424760.000000, 1293.125000, 8143.500000, 8201.000000, 8187.000000
3203, 124424920.000000, 1234.875000, 8137.500000, 8203.500000, 8193.500000
3204, 124425080.000000, 1164.625000, 8147.000000, 8202.000000, 8196.000000
3205, 124425240.000000, 1102.250000, 8136.000000, 8198.500000, 8183.500000
3206, 124425400.000000, 1077.375000, 8155.500000, 8191.500000, 8179.500000
3207, 124425560.000000, 1103.750000, 8175.500000, 8185.500000, 8179.000000
3208, 124425720.000000, 1148.000000, 8166.500000, 8208.000000, 8207.000000
3209, 124425880.000000, 1172.250000, 8157.500000, 8216.500000, 8206.000000
3210, 124426040.000000, 1187.125000, 8145.500000, 8205.500000, 8192.000000
3211, 124426200.000000, 1218.750000, 8133.000000, 8189.500000, 8166.500000
3212, 124426360.000000, 1332.500000, 8127.000000, 8183.500000, 8160.500000
3213, 124426520.000000, 1561.625000, 8140.500000, 8182.500000, 8168.500000
3214, 124426680.000000, 1884.250000, 8151.000000, 8182.500000, 8175.500000
3215, 124426840.000000, 2186.625000, 8150.000000, 8236.500000, 8232.500000
3216, 124427000.000000, 2408.500000, 8407.500000, 8114.000000, 8185.500000
3217, 124427160.000000, 2559.125000, 8129.500000, 8124.500000, 8128.000000
3218, 124427320.000000, 2677.500000, 8082.500000, 8098.500000, 8070.000000
3219, 124427480.000000, 2774.000000, 8163.000000, 8191.500000, 8178.500000
3220, 124427640.000000, 2840.125000, 8184.500000, 8202.000000, 8187.500000
3221, 124427800.000000, 2883.500000, 8180.500000, 8207.000000, 8198.500000
3222, 124427960.000000, 2901.625000, 8181.000000, 8208.000000, 8200.000000
3223, 124428120.000000, 2881.375000, 8195.000000, 8212.000000, 8209.000000
3224, 124428280.000000, 2833.750000, 8212.500000, 8215.500000, 8226.000000
3225, 124428440.000000, 2774.250000, 8244.000000, 8207.500000, 8222.000000
3226, 124428600.000000, 2700.125000, 8263.000000, 8218.000000, 8236.500000
3227, 124428760.000000, 2604.875000, 8262.500000, 8224.000000, 8245.000000
3228, 124428920.000000, 2505.500000, 8219.000000, 8239.500000, 8251.500000
3229, 124429080.000000, 2446.875000, 8175.000000, 8227.500000, 8222.500000
3230, 124429240.000000, 2434.125000, 8157.000000, 8210.500000, 8197.500000
3231, 124429400.000000, 2427.375000, 8150.500000, 8206.000000, 8189.000000
3232, 124429560.000000, 2400.875000, 8136.000000, 8209.000000, 8191.000000
3233, 124429720.000000, 2349.000000, 8127.500000, 8210.000000, 8192.000000
3234, 124429880.000000, 2284.375000, 8155.000000, 8206.500000, 8199.500000
3235, 124430040.000000, 2209.250000, 8161.500000, 8202.500000, 8192.500000
3236, 124430200.000000, 2124.250000, 8163.000000, 8204.500000, 8192.500000
3237, 124430360.000000, 2050.250000, 8152.000000, 8202.500000, 8189.500000
3238, 124430520.000000, 1991.625000, 8144.000000, 8209.000000, 8194.500000
3239, 124430680.000000, 1942.500000, 8178.500000, 8213.000000, 8217.000000
3240, 124430840.000000, 1886.125000, 8195.000000, 8199.500000, 8201.500000
3241, 124431000.000000, 1827.375000, 8200.500000, 8191.500000, 8190.500000
3242, 124431160.000000, 1787.125000, 8157.000000, 8195.000000, 8171.000000
3243, 124431320.000000, 1798.000000, 8138.500000, 8196.000000, 8169.500000
3244, 124431480.000000, 1860.125000, 8149.500000, 8194.000000, 8169.000000
3245, 124431640.000000, 1955.125000, 8172.000000, 8188.000000, 8170.000000
3246, 124431800.000000, 2069.000000, 8175.500000, 8245.000000, 8234.000000
3247, 124431960.000000, 2201.375000, 8491.500000, 8031.500000, 8129.000000
3248, 124432120.000000, 2347.625000, 8047.500000, 8090.000000, 8057.000000
3249, 124432280.000000, 2484.500000, 8127.500000, 8131.000000, 8102.500000
3250, 124432440.000000, 2599.000000, 8171.000000, 8197.000000, 8173.000000
3251, 124432600.000000, 2681.500000, 8184.000000, 8200.000000, 8178.000000
3252, 124432760.000000, 2735.875000, 8195.000000, 8202.000000, 8182.500000
3253, 124432920.000000, 2753.500000, 8221.500000, 8196.500000, 8188.500000
3254, 124433080.000000, 2717.625000, 8236.000000, 8201.500000, 8194.000000
3255, 124433240.000000, 2642.250000, 8246.500000, 8201.500000, 8196.500000
3256, 124433400.000000, 2559.875000, 8280.000000, 8205.500000, 8209.500000
3257, 124433560.000000, 2500.250000, 8280.000000, 8213.500000, 8222.500000
3258, 124433720.000000, 2460.875000, 8250.500000, 8228.500000, 8230.500000
3259, 124433880.000000, 2420.875000, 8196.500000, 8225.500000, 8215.000000
3260, 124434040.000000, 2362.375000, 8169.000000, 8206.000000, 8184.000000
3261, 124434200.000000, 2292.875000, 8152.000000, 8197.000000, 8172.500000
3262, 124434360.000000, 2236.250000, 8159.000000, 8192.000000, 8161.500000
3263, 124434520.000000, 2215.500000, 8152.500000, 8196.000000, 8170.000000
3264, 124434680.000000, 2207.500000, 8158.500000, 8189.500000, 8165.500000
3265, 124434840.000000, 2170.500000, 8151.000000, 8193.000000, 8168.000000
3266, 124435000.000000, 2115.750000, 8177.000000, 8190.500000, 8167.000000
3267, 124435160.000000, 2064.250000, 8169.000000, 8193.000000, 8175.000000
3268, 124435320.000000, 2019.250000, 8169.000000, 8191.000000, 8167.000000
3269, 124435480.000000, 1975.000000, 8177.500000, 8203.500000, 8191.000000
3270, 124435640.000000, 1946.000000, 8180.500000, 8197.500000, 8192.000000
3271, 124435800.000000, 1941.375000, 8177.000000, 8196.000000, 8181.500000
3272, 124435960.000000, 1941.125000, 8158.000000, 8179.000000, 8150.500000
3273, 124436120.000000, 1926.250000, 8158.500000, 8175.500000, 8148.500000
3274, 124436280.000000, 1904.750000, 8157.000000, 8176.500000, 8142.500000
3275, 124436440.000000, 1919.500000, 8157.500000, 8177.000000, 8150.500000
3276, 124436600.000000, 2008.125000, 8171.000000, 8224.000000, 8206.500000
3277, 124436760.000000, 2160.875000, 8380.000000, 8100.500000, 8152.000000
3278, 124436920.000000, 2328.875000, 8096.000000, 8096.000000, 8075.000000
3279, 124437080.000000, 2470.375000, 8101.000000, 8083.500000, 8047.000000
3280, 124437240.000000, 2585.625000, 8186.000000, 8182.500000, 8158.000000
3281, 124437400.000000, 2685.250000, 8191.500000, 8192.500000, 8169.500000
3282, 124437560.000000, 2766.625000, 8192.000000, 8201.500000, 8180.500000
3283, 124437720.000000, 2812.000000, 8193.500000, 8199.500000, 8177.500000
3284, 124437880.000000, 2804.375000, 8210.000000, 8198.000000, 8188.500000
3285, 124438040.000000, 2758.375000, 8219.500000, 8201.000000, 8193.000000
3286, 124438200.000000, 2695.250000, 8237.000000, 8210.500000, 8204.000000
3287, 124438360.000000, 2624.125000, 8233.500000, 8222.000000, 8218.000000
3288, 124438520.000000, 2551.500000, 8226.000000, 8234.000000, 8232.000000
3289, 124438680.000000, 2493.125000, 8167.500000, 8240.500000, 8222.500000
3290, 124438840.000000, 2437.875000, 8132.000000, 8224.000000, 8198.000000
3291, 124439000.000000, 2383.500000, 8119.000000, 8212.500000, 8180.500000
3292, 124439160.000000, 2340.000000, 8107.500000, 8209.000000, 8168.000000
3293, 124439320.000000, 2309.500000, 8102.000000, 8213.500000, 8179.000000
3294, 124439480.000000, 2275.875000, 8109.000000, 8215.000000, 8181.000000
3295, 124439640.000000, 2228.500000, 8111.000000, 8210.500000, 8178.000000
3296, 124439800.000000, 2182.125000, 8121.500000, 8206.500000, 8181.000000
3297, 124439960.000000, 2137.625000, 8141.500000, 8203.000000, 8186.500000
3298, 124440120.000000, 2093.250000, 8136.000000, 8206.000000, 8191.000000
3299, 124440280.000000, 2051.375000, 8142.500000, 8221.000000, 8208.500000
3300, 124440440.000000, 2017.500000, 8135.500000, 8223.000000, 8214.000000
3301, 124440600.000000, 1977.000000, 8141.000000, 8218.500000, 8203.500000
3302, 124440760.000000, 1904.125000, 8123.000000, 8205.500000, 8180.000000
3303, 124440920.000000, 1810.875000, 8118.000000, 8197.000000, 8170.000000
3304, 124441080.000000, 1738.875000, 8118.500000, 8200.500000, 8172.000000
3305, 124441240.000000, 1724.625000, 8125.500000, 8198.500000, 8171.500000
3306, 124441400.000000, 1767.875000, 8141.500000, 8212.500000, 8196.000000
3307, 124441560.000000, 1859.375000, 8306.500000, 8190.500000, 8224.500000
3308, 124441720.000000, 1963.875000, 8214.000000, 8106.500000, 8137.000000
3309, 124441880.000000, 2056.750000, 8081.500000, 8073.500000, 8048.000000
3310, 124442040.000000, 2136.250000, 8200.000000, 8164.500000, 8168.500000
3311, 124442200.000000, 2198.125000, 8216.500000, 8185.500000, 8186.000000
3312, 124442360.000000, 2229.125000, 8235.000000, 8192.500000, 8200.000000
3313, 124442520.000000, 2222.750000, 8242.500000, 8188.000000, 8201.500000
3314, 124442680.000000, 2196.875000, 8266.000000, 8188.000000, 8204.000000
3315, 124442840.000000, 2153.750000, 8274.000000, 8181.500000, 8199.500000
3316, 124443000.000000, 2088.625000, 8283.000000, 8195.000000, 8212.500000
3317, 124443160.000000, 2005.500000, 8266.500000, 8211.500000, 8227.000000
3318, 124443320.000000, 1921.000000, 8242.500000, 8223.000000, 8235.500000
3319, 124443480.000000, 1846.750000, 8225.000000, 8234.000000, 8248.000000
3320, 124443640.000000, 1772.750000, 8191.500000, 8223.500000, 8222.500000
3321, 124443800.000000, 1697.875000, 8174.500000, 8205.000000, 8200.500000
3322, 124443960.000000, 1640.500000, 8181.500000, 8198.500000, 8194.000000
3323, 124444120.000000, 1606.250000, 8177.000000, 8199.500000, 8194.000000
3324, 124444280.000000, 1575.750000, 8167.500000, 8198.500000, 8190.500000
3325, 124444440.000000, 1526.875000, 8189.500000, 8196.500000, 8193.000000
3326, 124444600.000000, 1451.875000, 8203.000000, 8195.500000, 8198.000000
3327, 124444760.000000, 1378.250000, 8217.500000, 8184.500000, 8194.500000
3328, 124444920.000000, 1326.125000, 8215.000000, 8191.000000, 8198.500000
3329, 124445080.000000, 1295.625000, 8216.000000, 8193.000000, 8205.000000
3330, 124445240.000000, 1266.750000, 8215.500000, 8202.000000, 8214.500000
3331, 124445400.000000, 1224.875000, 8228.000000, 8197.500000, 8212.500000
3332, 124445560.000000, 1183.750000, 8210.000000, 8182.000000, 8189.000000
3333, 124445720.000000, 1169.625000, 8200.000000, 8176.000000, 8172.500000
3334, 124445880.000000, 1170.875000, 8207.000000, 8173.000000, 8176.000000
3335, 124446040.000000, 1170.000000, 8217.000000, 8173.500000, 8173.500000
3336, 124446200.000000, 1180.000000, 8219.500000, 8174.500000, 8177.000000
3337, 124446360.000000, 1218.500000, 8296.000000, 8215.500000, 8255.000000
3338, 124446520.000000, 1271.250000, 8395.000000, 8050.000000, 8139.000000
3339, 124446680.000000, 1324.375000, 8106.000000, 8070.000000, 8064.000000
3340, 124446840.000000, 1358.625000, 8212.500000, 8137.000000, 8146.000000
3341, 124447000.000000, 1376.500000, 8234.500000, 8180.000000, 8187.500000
3342, 124447160.000000, 1387.375000, 8239.000000, 8182.000000, 8192.500000
3343, 124447320.000000, 1412.875000, 8243.000000, 8191.500000, 8201.500000
3344, 124447480.000000, 1446.375000, 8254.500000, 8185.500000, 8201.500000
3345, 124447640.000000, 1462.500000, 8271.500000, 8181.500000, 8206.500000
3346, 124447800.000000, 1467.000000, 8285.000000, 8186.000000, 8212.000000
3347, 124447960.000000, 1471.250000, 8311.000000, 8196.500000, 8225.500000
3348, 124448120.000000, 1495.500000, 8306.000000, 8206.000000, 8238.000000
3349, 124448280.000000, 1519.875000, 8284.500000, 8212.500000, 8244.000000
3350, 124448440.000000, 1526.000000, 8239.000000, 8209.000000, 8229.500000
3351, 124448600.000000, 1511.000000, 8205.000000, 8199.000000, 8205.500000
3352, 124448760.000000, 1499.250000, 8191.500000, 8196.500000, 8200.500000
3353, 124448920.000000, 1509.250000, 8193.500000, 8191.500000, 8195.500000
3354, 124449080.000000, 1523.375000, 8207.500000, 8186.000000, 8199.500000
3355, 124449240.000000, 1523.500000, 8217.000000, 8181.000000, 8196.500000
3356, 124449400.000000, 1508.875000, 8208.000000, 8188.500000, 8202.500000
3357, 124449560.000000, 1493.125000, 8188.500000, 8192.000000, 8204.000000
3358, 124449720.000000, 1488.875000, 8196.000000, 8194.500000, 8204.500000
3359, 124449880.000000, 1501.625000, 8198.500000, 8190.000000, 8203.500000
3360, 124450040.000000, 1519.125000, 8216.000000, 8182.500000, 8198.500000
3361, 124450200.000000, 1519.375000, 8230.000000, 8199.500000, 8228.500000
3362, 124450360.000000, 1483.625000, 8224.500000, 8196.000000, 8216.500000
3363, 124450520.000000, 1420.500000, 8206.000000, 8193.500000, 8207.000000
3364, 124450680.000000, 1365.125000, 8188.500000, 8176.500000, 8183.000000
3365, 124450840.000000, 1365.000000, 8199.000000, 8173.500000, 8178.500000
3366, 124451000.000000, 1431.750000, 8198.000000, 8169.000000, 8180.000000
3367, 124451160.000000, 1541.250000, 8206.000000, 8174.500000, 8186.000000
3368, 124451320.000000, 1645.375000, 8206.500000, 8241.000000, 8268.000000
3369, 124451480.000000, 1721.125000, 8511.000000, 8029.500000, 8154.000000
3370, 124451640.000000, 1786.500000, 8067.500000, 8093.500000, 8094.500000
3371, 124451800.000000, 1880.125000, 8186.500000, 8119.000000, 8140.000000
3372, 124451960.000000, 1990.625000, 8238.000000, 8176.000000, 8198.500000
3373, 124452120.000000, 2072.250000, 8232.500000, 8189.000000, 8207.000000
3374, 124452280.000000, 2113.375000, 8220.000000, 8193.500000, 8209.500000
3375, 124452440.000000, 2142.250000, 8236.500000, 8195.000000, 8214.500000
3376, 124452600.000000, 2180.000000, 8261.000000, 8189.500000, 8215.500000
3377, 124452760.000000, 2222.000000, 8283.500000, 8188.500000, 8224.500000
3378, 124452920.000000, 2256.625000, 8309.000000, 8191.000000, 8237.000000
3379, 124453080.000000, 2266.625000, 8283.000000, 8204.000000, 8238.500000
3380, 124453240.000000, 2254.875000, 8258.000000, 8217.500000, 8245.500000
3381, 124453400.000000, 2229.250000, 8220.000000, 8213.500000, 8237.500000
3382, 124453560.000000, 2206.125000, 8197.500000, 8202.500000, 8218.000000
3383, 124453720.000000, 2177.750000, 8199.500000, 8195.000000, 8209.000000
3384, 124453880.000000, 2131.000000, 8192.000000, 8188.500000, 8201.500000
3385, 124454040.000000, 2050.875000, 8186.500000, 8195.000000, 8205.500000
3386, 124454200.000000, 1961.500000, 8192.000000, 8184.000000, 8198.000000
3387, 124454360.000000, 1881.500000, 8202.000000, 8190.500000, 8208.000000
3388, 124454520.000000, 1821.625000, 8203.000000, 8196.500000, 8214.500000
3389, 124454680.000000, 1783.250000, 8189.500000, 8190.500000, 8202.000000
3390, 124454840.000000, 1764.750000, 8184.000000, 8191.000000, 8201.500000
3391, 124455000.000000, 1754.875000, 8187.000000, 8188.000000, 8193.500000
3392, 124455160.000000, 1744.750000, 8185.000000, 8191.000000, 8198.500000
3393, 124455320.000000, 1724.375000, 8187.500000, 8206.500000, 8226.500000
3394, 124455480.000000, 1711.375000, 8193.000000, 8201.500000, 8215.000000
3395, 124455640.000000, 1716.625000, 8184.000000, 8190.500000, 8202.000000
3396, 124455800.000000, 1754.375000, 8158.000000, 8178.500000, 8174.000000
3397, 124455960.000000, 1841.750000, 8168.000000, 8179.500000, 8172.500000
3398, 124456120.000000, 1988.000000, 8168.500000, 8176.000000, 8173.500000
3399, 124456280.000000, 2165.000000, 8171.500000, 8177.000000, 8176.500000
3400, 124456440.000000, 2342.250000, 8158.500000, 8237.000000, 8242.000000
3401, 124456600.000000, 2501.750000, 8482.500000, 8062.500000, 8167.000000
3402, 124456760.000000, 2628.500000, 8109.500000, 8107.500000, 8111.500000
3403, 124456920.000000, 2709.875000, 8127.500000, 8112.000000, 8111.000000
3404, 124457080.000000, 2735.750000, 8181.500000, 8184.000000, 8186.000000
3405, 124457240.000000, 2722.125000, 8188.500000, 8189.500000, 8189.000000
3406, 124457400.000000, 2677.625000, 8199.500000, 8193.500000, 8196.500000
3407, 124457560.000000, 2607.750000, 8204.000000, 8195.000000, 8199.000000
3408, 124457720.000000, 2536.375000, 8222.500000, 8191.000000, 8208.500000
3409, 124457880.000000, 2480.125000, 8249.500000, 8195.000000, 8215.500000
3410, 124458040.000000, 2428.625000, 8268.500000, 8190.500000, 8220.500000
3411, 124458200.000000, 2371.375000, 8273.500000, 8199.000000, 8231.000000
3412, 124458360.000000, 2319.375000, 8254.000000, 8212.500000, 8235.000000
3413, 124458520.000000, 2290.000000, 8200.500000, 8220.500000, 8231.000000
3414, 124458680.000000, 2272.750000, 8157.500000, 8207.000000, 8206.000000
3415, 124458840.000000, 2254.625000, 8158.000000, 8195.500000, 8186.000000
3416, 124459000.000000, 2233.125000, 8149.500000, 8189.000000, 8183.000000
3417, 124459160.000000, 2211.750000, 8147.000000, 8199.000000, 8185.500000
3418, 124459320.000000, 2198.625000, 8173.000000, 8204.500000, 8183.000000
3419, 124459480.000000, 2179.500000, 8169.500000, 8203.000000, 8187.500000
3420, 124459640.000000, 2141.250000, 8158.500000, 8199.500000, 8187.500000
3421, 124459800.000000, 2090.125000, 8157.500000, 8205.500000, 8195.000000
3422, 124459960.000000, 2046.875000, 8141.500000, 8200.500000, 8194.000000
3423, 124460120.000000, 2021.375000, 8136.500000, 8196.500000, 8188.000000
3424, 124460280.000000, 2006.750000, 8156.000000, 8211.500000, 8211.500000
3425, 124460440.000000, 1988.625000, 8162.500000, 8203.000000, 8208.500000
3426, 124460600.000000, 1972.500000, 8179.500000, 8201.000000, 8203.000000
3427, 124460760.000000, 1978.750000, 8173.000000, 8190.500000, 8189.000000
3428, 124460920.000000, 2027.625000, 8163.000000, 8186.000000, 8178.000000
3429, 124461080.000000, 2126.500000, 8161.000000, 8179.000000, 8174.000000
3430, 124461240.000000, 2274.875000, 8172.500000, 8179.000000, 8174.500000
3431, 124461400.000000, 2469.500000, 8176.000000, 8196.000000, 8200.000000
3432, 124461560.000000, 2675.000000, 8314.000000, 8184.500000, 8228.000000
3433, 124461720.000000, 2847.875000, 8366.500000, 8070.000000, 8155.000000
3434, 124461880.000000, 2968.250000, 8090.500000, 8089.000000, 8072.500000
3435, 124462040.000000, 3027.500000, 8185.000000, 8162.000000, 8164.500000
3436, 124462200.000000, 3029.000000, 8207.000000, 8185.000000, 8188.000000
3437, 124462360.000000, 2978.375000, 8214.500000, 8198.000000, 8202.000000
3438, 124462520.000000, 2892.625000, 8221.000000, 8192.000000, 8202.000000
3439, 124462680.000000, 2791.625000, 8238.500000, 8189.000000, 8204.000000
3440, 124462840.000000, 2686.375000, 8255.500000, 8190.000000, 8212.500000
3441, 124463000.000000, 2580.000000, 8282.500000, 8192.000000, 8223.500000
3442, 124463160.000000, 2482.875000, 8281.000000, 8204.000000, 8236.500000
3443, 124463320.000000, 2385.125000, 8268.000000, 8210.000000, 8241.500000
3444, 124463480.000000, 2294.500000, 8224.000000, 8222.000000, 8236.500000
3445, 124463640.000000, 2208.000000, 8171.500000, 8221.500000, 8217.500000
3446, 124463800.000000, 2131.625000, 8135.000000, 8213.500000, 8200.000000
3447, 124463960.000000, 2049.875000, 8126.500000, 8211.000000, 8188.500000
3448, 124464120.000000, 1962.375000, 8118.500000, 8212.000000, 8190.500000
3449, 124464280.000000, 1882.500000, 8125.500000, 8209.000000, 8185.000000
3450, 124464440.000000, 1816.250000, 8132.500000, 8208.000000, 8189.000000
3451, 124464600.000000, 1748.375000, 8141.500000, 8211.000000, 8197.500000
3452, 124464760.000000, 1662.625000, 8141.500000, 8210.500000, 8197.500000
3453, 124464920.000000, 1568.125000, 8133.500000, 8207.000000, 8195.500000
3454, 124465080.000000, 1480.250000, 8130.000000, 8201.000000, 8190.000000
3455, 124465240.000000, 1405.125000, 8145.500000, 8206.000000, 8204.000000
3456, 124465400.000000, 1331.750000, 8150.500000, 8210.500000, 8213.000000
3457, 124465560.000000, 1250.875000, 8158.000000, 8209.000000, 8210.500000
3458, 124465720.000000, 1163.375000, 8138.000000, 8195.000000, 8184.500000
3459, 124465880.000000, 1088.125000, 8127.500000, 8189.500000, 8171.000000
3460, 124466040.000000, 1073.250000, 8133.000000, 8187.000000, 8173.000000
3461, 124466200.000000, 1152.375000, 8144.000000, 8191.000000, 8178.000000
3462, 124466360.000000, 1328.000000, 8147.000000, 8209.000000, 8202.000000
3463, 124466520.000000, 1561.000000, 8292.500000, 8185.500000, 8221.500000
3464, 124466680.000000, 1785.625000, 8309.000000, 8095.500000, 8162.500000
3465, 124466840.000000, 1934.125000, 8045.000000, 8105.500000, 8075.000000
3466, 124467000.000000, 2013.125000, 8136.500000, 8182.000000, 8174.000000
3467, 124467160.000000, 2048.625000, 8174.000000, 8206.500000, 8198.000000
3468, 124467320.000000, 2049.625000, 8172.500000, 8203.000000, 8198.500000
3469, 124467480.000000, 2004.125000, 8168.500000, 8202.500000, 8202.000000
3470, 124467640.000000, 1920.500000, 8190.500000, 8204.500000, 8206.500000
3471, 124467800.000000, 1822.375000, 8216.000000, 8202.500000, 8219.500000
3472, 124467960.000000, 1721.250000, 8256.000000, 8200.500000, 8232.000000
3473, 124468120.000000, 1608.750000, 8274.500000, 8200.000000, 8235.000000
3474, 124468280.000000, 1507.375000, 8277.000000, 8207.000000, 8238.500000
3475, 124468440.000000, 1451.500000, 8219.000000, 8218.000000, 8235.000000
3476, 124468600.000000, 1431.625000, 8168.500000, 8223.000000, 8223.500000
3477, 124468760.000000, 1411.125000, 8142.000000, 8212.500000, 8201.500000
3478, 124468920.000000, 1373.000000, 8139.500000, 8205.000000, 8188.500000
3479, 124469080.000000, 1341.625000, 8135.000000, 8203.500000, 8181.000000
3480, 124469240.000000, 1328.250000, 8128.500000, 8198.000000, 8181.000000
3481, 124469400.000000, 1327.375000, 8140.000000, 8196.500000, 8188.000000
3482, 124469560.000000, 1323.500000, 8154.000000, 8204.500000, 8194.500000
3483, 124469720.000000, 1305.875000, 8162.000000, 8201.500000, 8195.000000
3484, 124469880.000000, 1277.375000, 8156.000000, 8201.500000, 8190.500000
3485, 124470040.000000, 1262.625000, 8156.500000, 8197.000000, 8185.500000
3486, 124470200.000000, 1260.125000, 8167.500000, 8206.000000, 8212.500000
3487, 124470360.000000, 1232.500000, 8179.000000, 8205.000000, 8211.000000
3488, 124470520.000000, 1171.500000, 8164.000000, 8203.500000, 8201.000000
3489, 124470680.000000, 1107.875000, 8151.000000, 8191.000000, 8175.000000
3490, 124470840.000000, 1082.250000, 8150.500000, 8181.000000, 8168.500000
3491, 124471000.000000, 1119.250000, 8159.000000, 8183.000000, 8169.500000
3492, 124471160.000000, 1228.250000, 8148.500000, 8190.000000, 8175.500000
3493, 124471320.000000, 1402.625000, 8137.500000, 8248.000000, 8240.000000
3494, 124471480.000000, 1597.500000, 8464.500000, 8068.500000, 8167.000000
3495, 124471640.000000, 1759.250000, 8121.000000, 8105.000000, 8105.000000
3496, 124471800.000000, 1877.750000, 8105.000000, 8124.500000, 8107.000000
3497, 124471960.000000, 1964.625000, 8165.500000, 8199.500000, 8186.000000
3498, 124472120.000000, 2023.875000, 8171.500000, 8207.000000, 8193.500000
3499, 124472280.000000, 2031.625000, 8166.000000, 8204.500000, 8195.500000
3500, 124472440.000000, 1979.625000, 8190.000000, 8204.000000, 8201.000000
3501, 124472600.000000, 1879.750000, 8203.500000, 8205.000000, 8210.500000
3502, 124472760.000000, 1760.125000, 8228.000000, 8210.500000, 8222.500000
3503, 124472920.000000, 1648.125000, 8250.000000, 8210.500000, 8238.000000
3504, 124473080.000000, 1573.250000, 8258.500000, 8214.500000, 8241.000000
3505, 124473240.000000, 1521.250000, 8239.000000, 8224.000000, 8245.000000
3506, 124473400.000000, 1478.125000, 8175.000000, 8231.500000, 8234.000000
3507, 124473560.000000, 1437.125000, 8135.000000, 8226.500000, 8212.000000
3508, 124473720.000000, 1412.875000, 8112.500000, 8218.000000, 8192.500000
3509, 124473880.000000, 1402.500000, 8120.000000, 8207.000000, 8182.000000
3510, 124474040.000000, 1389.750000, 8117.000000, 8209.500000, 8185.000000
3511, 124474200.000000, 1359.500000, 8124.500000, 8202.500000, 8183.000000
3512, 124474360.000000, 1334.125000, 8149.000000, 8204.000000, 8192.500000
3513, 124474520.000000, 1314.375000, 8145.000000, 8206.000000, 8194.000000
3514, 124474680.000000, 1298.750000, 8155.500000, 8204.500000, 8193.500000
3515, 124474840.000000, 1286.750000, 8156.000000, 8200.500000, 8187.500000
3516, 124475000.000000, 1271.750000, 8158.500000, 8200.500000, 8189.500000
3517, 124475160.000000, 1256.000000, 8176.000000, 8212.500000, 8217.500000
3518, 124475320.000000, 1235.000000, 8191.000000, 8199.500000, 8204.000000
3519, 124475480.000000, 1222.250000, 8192.500000, 8188.000000, 8190.000000
3520, 124475640.000000, 1230.000000, 8174.500000, 8179.000000, 8168.500000
3521, 124475800.000000, 1280.250000, 8177.000000, 8182.500000, 8168.000000
3522, 124475960.000000, 1384.500000, 8174.000000, 8188.500000, 8169.000000
3523, 124476120.000000, 1557.500000, 8178.500000, 8188.500000, 8172.000000
3524, 124476280.000000, 1791.500000, 8168.000000, 8255.500000, 8248.000000
3525, 124476440.000000, 2050.625000, 8548.000000, 8023.500000, 8141.000000
3526, 124476600.000000, 2301.000000, 8052.500000, 8092.500000, 8066.000000
3527, 124476760.000000, 2531.250000, 8129.000000, 8146.500000, 8129.500000
3528, 124476920.000000, 2677.625000, 8181.000000, 8197.500000, 8186.500000
3529, 124477080.000000, 2716.000000, 8188.500000, 8206.000000, 8190.000000
3530, 124477240.000000, 2685.625000, 8193.000000, 8208.000000, 8197.000000
3531, 124477400.000000, 2599.625000, 8211.500000, 8208.000000, 8202.000000
3532, 124477560.000000, 2495.875000, 8218.000000, 8213.000000, 8212.500000
3533, 124477720.000000, 2381.375000, 8227.500000, 8215.000000, 8218.500000
3534, 124477880.000000, 2267.375000, 8237.000000, 8218.000000, 8227.000000
3535, 124478040.000000, 2180.625000, 8255.500000, 8224.000000, 8234.500000
3536, 124478200.000000, 2132.625000, 8246.500000, 8232.500000, 8245.000000
3537, 124478360.000000, 2110.125000, 8203.000000, 8235.000000, 8228.000000
3538, 124478520.000000, 2099.500000, 8164.000000, 8220.000000, 8202.000000
3539, 124478680.000000, 2084.375000, 8147.500000, 8213.000000, 8187.500000
3540, 124478840.000000, 2053.500000, 8154.000000, 8205.500000, 8178.500000
3541, 124479000.000000, 2026.000000, 8161.500000, 8203.000000, 8182.000000
3542, 124479160.000000, 2005.125000, 8154.000000, 8202.500000, 8181.500000
3543, 124479320.000000, 1979.875000, 8176.000000, 8202.000000, 8180.500000
3544, 124479480.000000, 1950.625000, 8166.500000, 8199.500000, 8179.000000
3545, 124479640.000000, 1908.250000, 8167.000000, 8198.500000, 8180.000000
3546, 124479800.000000, 1859.625000, 8170.000000, 8198.500000, 8181.000000
3547, 124479960.000000, 1813.000000, 8189.500000, 8214.000000, 8215.000000
3548, 124480120.000000, 1772.125000, 8197.000000, 8207.500000, 8207.000000
3549, 124480280.000000, 1721.375000, 8186.500000, 8195.000000, 8189.500000
3550, 124480440.000000, 1669.375000, 8160.500000, 8186.000000, 8163.000000
3551, 124480600.000000, 1655.375000, 8171.500000, 8190.000000, 8163.000000
3552, 124480760.000000, 1718.000000, 8158.500000, 8183.500000, 8160.500000
3553, 124480920.000000, 1884.125000, 8166.000000, 8191.000000, 8165.000000
3554, 124481080.000000, 2105.625000, 8147.000000, 8252.500000, 8231.500000
3555, 124481240.000000, 2320.500000, 8461.500000, 8077.500000, 8162.000000
3556, 124481400.000000, 2480.125000, 8050.500000, 8103.500000, 8070.500000
3557, 124481560.000000, 2595.250000, 8088.500000, 8122.500000, 8093.500000
3558, 124481720.000000, 2679.125000, 8159.500000, 8198.000000, 8170.500000
3559, 124481880.000000, 2733.375000, 8157.000000, 8204.500000, 8172.500000
3560, 124482040.000000, 2735.750000, 8162.500000, 8208.500000, 8186.000000
3561, 124482200.000000, 2699.500000, 8176.000000, 8214.500000, 8192.000000
3562, 124482360.000000, 2642.125000, 8195.000000, 8213.500000, 8194.000000
3563, 124482520.000000, 2576.500000, 8224.500000, 8213.000000, 8205.000000
3564, 124482680.000000, 2508.250000, 8244.000000, 8218.500000, 8218.000000
3565, 124482840.000000, 2455.250000, 8258.500000, 8222.500000, 8224.000000
3566, 124483000.000000, 2419.375000, 8235.000000, 8229.000000, 8229.500000
3567, 124483160.000000, 2376.750000, 8187.500000, 8239.000000, 8220.500000
3568, 124483320.000000, 2322.625000, 8157.500000, 8223.500000, 8202.000000
3569, 124483480.000000, 2281.125000, 8144.000000, 8208.000000, 8179.000000
3570, 124483640.000000, 2250.625000, 8144.000000, 8204.000000, 8173.000000
3571, 124483800.000000, 2207.000000, 8147.500000, 8202.000000, 8175.500000
3572, 124483960.000000, 2150.625000, 8146.000000, 8204.000000, 8181.000000
3573, 124484120.000000, 2109.250000, 8166.500000, 8201.500000, 8179.000000
3574, 124484280.000000, 2089.750000, 8165.000000, 8201.500000, 8180.000000
3575, 124484440.000000, 2061.625000, 8161.500000, 8196.500000, 8179.500000
3576, 124484600.000000, 2018.250000, 8177.000000, 8202.000000, 8186.000000
3577, 124484760.000000, 1971.125000, 8181.500000, 8214.500000, 8208.000000
3578, 124484920.000000, 1913.125000, 8181.000000, 8208.000000, 8199.000000
3579, 124485080.000000, 1844.875000, 8187.500000, 8198.000000, 8190.500000
3580, 124485240.000000, 1781.750000, 8175.500000, 8181.500000, 8165.000000
3581, 124485400.000000, 1744.000000, 8174.000000, 8185.500000, 8168.000000
3582, 124485560.000000, 1739.625000, 8177.000000, 8179.500000, 8163.500000
3583, 124485720.000000, 1778.500000, 8178.500000, 8182.500000, 8167.500000
3584, 124485880.000000, 1871.375000, 8178.500000, 8250.000000, 8242.500000
3585, 124486040.000000, 1998.125000, 8499.500000, 8027.500000, 8138.500000
3586, 124486200.000000, 2114.625000, 8055.500000, 8092.500000, 8074.000000
3587, 124486360.000000, 2202.875000, 8154.000000, 8127.000000, 8118.000000
3588, 124486520.000000, 2268.000000, 8187.000000, 8196.500000, 8182.500000
3589, 124486680.000000, 2318.250000, 8194.500000, 8199.500000, 8186.500000
3590, 124486840.000000, 2339.375000, 8201.000000, 8196.000000, 8190.500000
3591, 124487000.000000, 2332.000000, 8223.500000, 8201.000000, 8200.000000
3592, 124487160.000000, 2300.125000, 8233.000000, 8197.000000, 8203.000000
3593, 124487320.000000, 2237.125000, 8250.000000, 8199.500000, 8211.000000
3594, 124487480.000000, 2161.000000, 8274.500000, 8206.000000, 8225.000000
3595, 124487640.000000, 2086.500000, 8275.500000, 8207.000000, 8225.500000
3596, 124487800.000000, 2020.000000, 8261.500000, 8219.000000, 8239.500000
3597, 124487960.000000, 1967.875000, 8216.500000, 8219.500000, 8230.000000
3598, 124488120.000000, 1925.875000, 8188.000000, 8203.500000, 8197.000000
3599, 124488280.000000, 1883.875000, 8173.000000, 8197.500000, 8186.500000
3600, 124488440.000000, 1834.375000, 8166.500000, 8193.000000, 8185.500000
3601, 124488600.000000, 1789.375000, 8159.000000, 8196.000000, 8186.000000
3602, 124488760.000000, 1755.625000, 8168.000000, 8200.500000, 8184.000000
3603, 124488920.000000, 1719.375000, 8177.500000, 8199.500000, 8192.000000
3604, 124489080.000000, 1674.375000, 8171.500000, 8198.500000, 8189.500000
3605, 124489240.000000, 1627.000000, 8181.500000, 8194.000000, 8191.500000
3606, 124489400.000000, 1590.625000, 8179.000000, 8196.500000, 8196.000000
3607, 124489560.000000, 1566.875000, 8190.500000, 8210.000000, 8213.000000
3608, 124489720.000000, 1534.750000, 8201.000000, 8199.000000, 8201.000000
3609, 124489880.000000, 1485.750000, 8198.500000, 8184.000000, 8186.500000
3610, 124490040.000000, 1438.875000, 8173.500000, 8179.000000, 8161.000000
3611, 124490200.000000, 1429.000000, 8167.000000, 8183.500000, 8163.000000
3612, 124490360.000000, 1479.250000, 8161.500000, 8188.000000, 8166.000000
3613, 124490520.000000, 1593.000000, 8170.000000, 8181.500000, 8163.500000
3614, 124490680.000000, 1746.000000, 8223.000000, 8232.000000, 8237.500000
3615, 124490840.000000, 1911.625000, 8440.000000, 8032.000000, 8123.500000
3616, 124491000.000000, 2062.750000, 8041.500000, 8068.500000, 8035.500000
3617, 124491160.000000, 2195.375000, 8160.500000, 8155.000000, 8142.000000
3618, 124491320.000000, 2301.500000, 8202.500000, 8191.500000, 8173.000000
3619, 124491480.000000, 2370.750000, 8203.500000, 8194.000000, 8183.000000
3620, 124491640.000000, 2401.000000, 8205.000000, 8195.500000, 8185.500000
3621, 124491800.000000, 2407.875000, 8222.500000, 8200.000000, 8193.500000
3622, 124491960.000000, 2389.250000, 8241.000000, 8204.000000, 8206.000000
3623, 124492120.000000, 2356.000000, 8270.000000, 8197.000000, 8204.000000
3624, 124492280.000000, 2315.000000, 8284.000000, 8203.000000, 8219.500000
3625, 124492440.000000, 2274.625000, 8292.500000, 8214.500000, 8229.500000
3626, 124492600.000000, 2230.250000, 8249.000000, 8228.500000, 8234.500000
3627, 124492760.000000, 2188.375000, 8200.500000, 8232.000000, 8224.000000
3628, 124492920.000000, 2144.500000, 8181.000000, 8213.000000, 8197.000000
3629, 124493080.000000, 2088.750000, 8171.000000, 8211.500000, 8190.500000
3630, 124493240.000000, 2035.500000, 8161.500000, 8213.000000, 8190.000000
3631, 124493400.000000, 1992.375000, 8164.500000, 8214.500000, 8192.500000
3632, 124493560.000000, 1957.750000, 8176.500000, 8221.000000, 8204.000000
3633, 124493720.000000, 1919.000000, 8189.500000, 8220.500000, 8204.000000
3634, 124493880.000000, 1875.375000, 8197.500000, 8217.500000, 8202.500000
3635, 124494040.000000, 1828.500000, 8202.000000, 8219.500000, 8206.500000
3636, 124494200.000000, 1775.750000, 8198.000000, 8214.500000, 8205.000000
3637, 124494360.000000, 1712.125000, 8202.500000, 8236.000000, 8233.500000
3638, 124494520.000000, 1636.875000, 8207.500000, 8229.500000, 8227.000000
3639, 124494680.000000, 1567.000000, 8210.500000, 8225.500000, 8219.500000
3640, 124494840.000000, 1528.000000, 8190.500000, 8212.500000, 8194.000000
3641, 124495000.000000, 1541.000000, 8189.500000, 8210.000000, 8192.000000
3642, 124495160.000000, 1597.500000, 8198.000000, 8204.000000, 8193.000000
3643, 124495320.000000, 1687.500000, 8216.500000, 8207.000000, 8198.000000
3644, 124495480.000000, 1813.125000, 8202.500000, 8274.000000, 8268.500000
3645, 124495640.000000, 1971.500000, 8569.000000, 8075.500000, 8199.000000
3646, 124495800.000000, 2140.625000, 8098.500000, 8119.000000, 8104.000000
3647, 124495960.000000, 2282.625000, 8173.500000, 8152.500000, 8152.500000
3648, 124496120.000000, 2380.000000, 8225.500000, 8215.000000, 8208.500000
3649, 124496280.000000, 2432.250000, 8228.500000, 8225.000000, 8219.500000
3650, 124496440.000000, 2456.250000, 8234.500000, 8227.000000, 8226.500000
3651, 124496600.000000, 2457.500000, 8238.000000, 8225.000000, 8228.500000
3652, 124496760.000000, 2433.625000, 8252.500000, 8222.000000, 8236.500000
3653, 124496920.000000, 2386.375000, 8285.500000, 8219.500000, 8245.000000
3654, 124497080.000000, 2325.125000, 8302.500000, 8228.000000, 8258.500000
3655, 124497240.000000, 2268.250000, 8293.000000, 8232.500000, 8258.000000
3656, 124497400.000000, 2232.375000, 8269.500000, 8243.000000, 8263.000000
3657, 124497560.000000, 2227.500000, 8226.000000, 8245.000000, 8257.500000
3658, 124497720.000000, 2237.500000, 8197.500000, 8232.500000, 8236.500000
3659, 124497880.000000, 2243.625000, 8188.500000, 8223.000000, 8221.000000
3660, 124498040.000000, 2230.125000, 8178.500000, 8223.500000, 8217.000000
3661, 124498200.000000, 2208.750000, 8187.000000, 8224.000000, 8223.500000
3662, 124498360.000000, 2194.625000, 8195.000000, 8223.500000, 8224.500000
3663, 124498520.000000, 2192.625000, 8198.500000, 8226.000000, 8227.500000
3664, 124498680.000000, 2184.750000, 8205.500000, 8220.500000, 8226.500000
3665, 124498840.000000, 2146.125000, 8195.000000, 8223.000000, 8227.000000
3666, 124499000.000000, 2087.250000, 8197.500000, 8220.500000, 8222.500000
3667, 124499160.000000, 2031.875000, 8187.000000, 8224.500000, 8228.000000
3668, 124499320.000000, 1984.375000, 8190.000000, 8234.500000, 8245.000000
3669, 124499480.000000, 1937.250000, 8192.500000, 8225.000000, 8234.000000
3670, 124499640.000000, 1905.000000, 8184.500000, 8213.000000, 8214.000000
3671, 124499800.000000, 1923.625000, 8162.500000, 8211.000000, 8205.500000
3672, 124499960.000000, 2010.250000, 8169.500000, 8208.500000, 8199.000000
3673, 124500120.000000, 2183.125000, 8177.000000, 8203.500000, 8193.000000
3674, 124500280.000000, 2416.500000, 8185.500000, 8205.000000, 8200.000000
3675, 124500440.000000, 2669.625000, 8219.000000, 8261.500000, 8275.500000
3676, 124500600.000000, 2880.500000, 8547.500000, 8052.500000, 8184.500000
3677, 124500760.000000, 3028.750000, 8067.500000, 8128.000000, 8107.000000
3678, 124500920.000000, 3108.125000, 8161.000000, 8181.500000, 8175.000000
3679, 124501080.000000, 3127.250000, 8193.000000, 8216.500000, 8206.500000
3680, 124501240.000000, 3108.500000, 8189.000000, 8220.000000, 8210.500000
3681, 124501400.000000, 3054.250000, 8186.000000, 8216.500000, 8216.500000
3682, 124501560.000000, 2974.750000, 8204.000000, 8219.000000, 8220.000000
3683, 124501720.000000, 2859.250000, 8231.500000, 8212.000000, 8222.000000
3684, 124501880.000000, 2735.125000, 8256.000000, 8207.000000, 8225.500000
3685, 124502040.000000, 2638.500000, 8269.500000, 8215.500000, 8241.000000
3686, 124502200.000000, 2583.250000, 8267.500000, 8220.500000, 8244.500000
3687, 124502360.000000, 2544.000000, 8237.000000, 8239.500000, 8248.500000
3688, 124502520.000000, 2504.000000, 8193.000000, 8236.000000, 8234.500000
3689, 124502680.000000, 2471.000000, 8157.000000, 8225.500000, 8210.500000
3690, 124502840.000000, 2452.000000, 8140.500000, 8220.500000, 8199.500000
3691, 124503000.000000, 2414.750000, 8127.000000, 8219.000000, 8200.000000
3692, 124503160.000000, 2342.250000, 8134.000000, 8213.500000, 8199.500000
3693, 124503320.000000, 2254.500000, 8131.000000, 8216.000000, 8203.500000
3694, 124503480.000000, 2173.625000, 8138.000000, 8221.500000, 8210.500000
3695, 124503640.000000, 2108.625000, 8134.500000, 8209.000000, 8205.000000
3696, 124503800.000000, 2043.500000, 8138.500000, 8206.500000, 8206.000000
3697, 124503960.000000, 1950.250000, 8147.000000, 8204.500000, 8204.500000
3698, 124504120.000000, 1843.375000, 8164.500000, 8196.000000, 8199.500000
3699, 124504280.000000, 1750.750000, 8170.500000, 8207.000000, 8219.000000
3700, 124504440.000000, 1692.250000, 8178.500000, 8202.000000, 8216.000000
3701, 124504600.000000, 1671.375000, 8175.500000, 8195.500000, 8198.500000
3702, 124504760.000000, 1697.625000, 8163.000000, 8184.000000, 8180.000000
3703, 124504920.000000, 1811.125000, 8164.500000, 8178.500000, 8177.500000
3704, 124505080.000000, 2019.875000, 8163.500000, 8184.500000, 8176.000000
3705, 124505240.000000, 2291.750000, 8165.500000, 8188.500000, 8186.000000
3706, 124505400.000000, 2560.500000, 8188.500000, 8240.000000, 8254.500000
3707, 124505560.000000, 2768.625000, 8533.500000, 8031.000000, 8165.500000
3708, 124505720.000000, 2923.125000, 8044.500000, 8105.000000, 8084.000000
3709, 124505880.000000, 3027.500000, 8126.500000, 8157.500000, 8154.000000
3710, 124506040.000000, 3074.625000, 8154.500000, 8199.000000, 8193.000000
3711, 124506200.000000, 3062.000000, 8149.000000, 8212.000000, 8200.000000
3712, 124506360.000000, 3004.625000, 8156.500000, 8211.500000, 8206.000000
3713, 124506520.000000, 2905.375000, 8186.000000, 8204.000000, 8208.000000
3714, 124506680.000000, 2777.625000, 8202.000000, 8200.500000, 8215.000000
3715, 124506840.000000, 2650.500000, 8223.500000, 8201.000000, 8220.000000
3716, 124507000.000000, 2558.000000, 8242.500000, 8210.500000, 8244.000000
3717, 124507160.000000, 2495.125000, 8236.000000, 8209.000000, 8241.500000
3718, 124507320.000000, 2446.125000, 8216.000000, 8213.000000, 8239.000000
3719, 124507480.000000, 2397.125000, 8172.000000, 8213.500000, 8225.500000
3720, 124507640.000000, 2346.375000, 8127.500000, 8204.500000, 8207.500000
3721, 124507800.000000, 2312.250000, 8122.000000, 8196.500000, 8192.000000
3722, 124507960.000000, 2288.250000, 8126.000000, 8197.000000, 8191.000000
3723, 124508120.000000, 2260.375000, 8139.500000, 8195.500000, 8189.000000
3724, 124508280.000000, 2219.250000, 8140.000000, 8199.500000, 8196.000000
3725, 124508440.000000, 2170.875000, 8143.500000, 8196.000000, 8196.000000
3726, 124508600.000000, 2127.125000, 8138.500000, 8196.000000, 8198.500000
3727, 124508760.000000, 2087.000000, 8149.000000, 8193.500000, 8194.000000
3728, 124508920.000000, 2048.000000, 8151.500000, 8191.500000, 8189.000000
3729, 124509080.000000, 1997.000000, 8148.500000, 8191.000000, 8191.000000
3730, 124509240.000000, 1923.375000, 8139.000000, 8202.500000, 8209.000000
3731, 124509400.000000, 1827.625000, 8172.000000, 8197.500000, 8205.000000
3732, 124509560.000000, 1728.750000, 8157.500000, 8180.500000, 8184.500000
3733, 124509720.000000, 1667.125000, 8153.500000, 8174.500000, 8166.000000
3734, 124509880.000000, 1702.125000, 8147.500000, 8170.000000, 8164.500000
3735, 124510040.000000, 1878.750000, 8133.000000, 8174.500000, 8167.500000
3736, 124510200.000000, 2152.250000, 8138.000000, 8177.000000, 8174.000000
3737, 124510360.000000, 2449.375000, 8174.500000, 8231.000000, 8242.000000
3738, 124510520.000000, 2704.375000, 8542.500000, 8004.000000, 8140.500000
3739, 124510680.000000, 2900.000000, 8043.500000, 8077.000000, 8061.500000
3740, 124510840.000000, 3022.125000, 8127.500000, 8149.500000, 8148.500000
3741, 124511000.000000, 3088.125000, 8144.000000, 8188.500000, 8178.000000
3742, 124511160.000000, 3095.500000, 8160.000000, 8192.500000, 8184.500000
3743, 124511320.000000, 3041.875000, 8186.000000, 8186.500000, 8184.500000
3744, 124511480.000000, 2937.000000, 8197.500000, 8183.000000, 8190.000000
3745, 124511640.000000, 2806.250000, 8202.000000, 8191.000000, 8205.500000
3746, 124511800.000000, 2683.125000, 8233.000000, 8186.500000, 8218.000000
3747, 124511960.000000, 2568.500000, 8257.000000, 8190.000000, 8226.000000
3748, 124512120.000000, 2462.000000, 8255.500000, 8198.500000, 8227.500000
3749, 124512280.000000, 2368.875000, 8225.000000, 8205.500000, 8225.500000
3750, 124512440.000000, 2285.125000, 8174.000000, 8205.000000, 8210.000000
3751, 124512600.000000, 2197.125000, 8140.500000, 8194.500000, 8191.500000
3752, 124512760.000000, 2102.750000, 8135.000000, 8189.500000, 8177.000000
3753, 124512920.000000, 1999.875000, 8136.500000, 8182.000000, 8169.500000
3754, 124513080.000000, 1887.875000, 8150.500000, 8177.000000, 8167.500000
3755, 124513240.000000, 1768.000000, 8152.000000, 8181.500000, 8176.500000
3756, 124513400.000000, 1653.500000, 8154.500000, 8186.500000, 8182.000000
3757, 124513560.000000, 1551.250000, 8147.000000, 8188.500000, 8182.500000
3758, 124513720.000000, 1443.500000, 8156.000000, 8185.000000, 8176.500000
3759, 124513880.000000, 1336.000000, 8149.000000, 8182.000000, 8174.500000
3760, 124514040.000000, 1237.000000, 8132.000000, 8182.000000, 8174.500000
3761, 124514200.000000, 1135.625000, 8139.000000, 8190.000000, 8192.500000
3762, 124514360.000000, 1025.625000, 8144.500000, 8192.000000, 8194.000000
3763, 124514520.000000, 919.875000, 8157.500000, 8187.000000, 8187.000000
3764, 124514680.000000, 866.250000, 8139.500000, 8171.500000, 8159.000000
3765, 124514840.000000, 908.750000, 8138.500000, 8171.500000, 8152.000000
3766, 124515000.000000, 1088.875000, 8133.000000, 8172.000000, 8157.000000
3767, 124515160.000000, 1381.125000, 8141.000000, 8171.500000, 8158.500000
3768, 124515320.000000, 1712.500000, 8143.000000, 8218.000000, 8211.500000
3769, 124515480.000000, 2009.125000, 8401.500000, 8109.500000, 8187.000000
3770, 124515640.000000, 2243.750000, 8143.500000, 8088.500000, 8104.500000
3771, 124515800.000000, 2399.500000, 8057.500000, 8094.500000, 8074.000000
3772, 124515960.000000, 2466.250000, 8131.500000, 8182.000000, 8170.000000
3773, 124516120.000000, 2458.375000, 8151.500000, 8185.000000, 8177.500000
3774, 124516280.000000, 2407.125000, 8186.000000, 8181.000000, 8180.000000
3775, 124516440.000000, 2313.625000, 8211.500000, 8188.500000, 8192.500000
3776, 124516600.000000, 2171.000000, 8218.500000, 8185.000000, 8196.000000
3777, 124516760.000000, 1992.750000, 8239.500000, 8193.500000, 8208.000000
3778, 124516920.000000, 1824.125000, 8256.500000, 8193.500000, 8216.500000
3779, 124517080.000000, 1690.625000, 8262.500000, 8194.000000, 8221.000000
3780, 124517240.000000, 1611.000000, 8256.000000, 8207.500000, 8233.000000
3781, 124517400.000000, 1587.625000, 8219.000000, 8219.500000, 8227.500000
3782, 124517560.000000, 1590.750000, 8145.000000, 8215.500000, 8206.500000
3783, 124517720.000000, 1579.250000, 8118.500000, 8203.500000, 8184.000000
3784, 124517880.000000, 1546.875000, 8124.500000, 8194.500000, 8175.000000
3785, 124518040.000000, 1517.000000, 8142.500000, 8189.500000, 8177.500000
3786, 124518200.000000, 1509.000000, 8144.000000, 8192.500000, 8182.000000
3787, 124518360.000000, 1510.625000, 8153.000000, 8197.000000, 8186.500000
3788, 124518520.000000, 1500.625000, 8147.000000, 8198.000000, 8180.500000
3789, 124518680.000000, 1478.625000, 8151.500000, 8198.500000, 8185.500000
3790, 124518840.000000, 1461.625000, 8151.000000, 8194.000000, 8182.000000
3791, 124519000.000000, 1462.125000, 8173.500000, 8185.500000, 8178.500000
3792, 124519160.000000, 1468.625000, 8179.000000, 8191.500000, 8200.000000
3793, 124519320.000000, 1458.250000, 8190.000000, 8189.500000, 8191.000000
3794, 124519480.000000, 1424.125000, 8178.500000, 8187.000000, 8183.500000
3795, 124519640.000000, 1383.375000, 8157.000000, 8179.000000, 8160.000000
3796, 124519800.000000, 1403.500000, 8169.500000, 8178.000000, 8159.500000
3797, 124519960.000000, 1529.750000, 8159.000000, 8175.500000, 8156.500000
3798, 124520120.000000, 1786.375000, 8161.500000, 8173.000000, 8163.000000
3799, 124520280.000000, 2126.625000, 8173.000000, 8240.000000, 8240.500000
3800, 124520440.000000, 2472.500000, 8510.000000, 8021.000000, 8141.000000
3801, 124520600.000000, 2748.625000, 8041.000000, 8085.000000, 8061.500000
3802, 124520760.000000, 2954.000000, 8109.000000, 8122.500000, 8101.500000
3803, 124520920.000000, 3093.000000, 8168.000000, 8183.000000, 8169.500000
3804, 124521080.000000, 3149.750000, 8182.000000, 8189.000000, 8172.500000
3805, 124521240.000000, 3120.000000, 8200.000000, 8189.000000, 8175.500000
3806, 124521400.000000, 3019.750000, 8213.500000, 8189.500000, 8188.000000
3807, 124521560.000000, 2888.750000, 8238.000000, 8186.500000, 8192.000000
3808, 124521720.000000, 2753.750000, 8243.500000, 8189.500000, 8198.000000
3809, 124521880.000000, 2627.750000, 8263.000000, 8191.000000, 8206.500000
3810, 124522040.000000, 2517.375000, 8270.000000, 8206.000000, 8217.000000
3811, 124522200.000000, 2421.250000, 8238.500000, 8215.000000, 8221.000000
3812, 124522360.000000, 2345.500000, 8192.500000, 8217.000000, 8215.500000
3813, 124522520.000000, 2280.125000, 8150.000000, 8206.500000, 8184.500000
3814, 124522680.000000, 2235.125000, 8147.500000, 8194.000000, 8171.000000
3815, 124522840.000000, 2192.875000, 8141.500000, 8190.000000, 8163.500000
3816, 124523000.000000, 2142.000000, 8144.500000, 8191.500000, 8171.000000
3817, 124523160.000000, 2065.625000, 8141.000000, 8197.000000, 8170.500000
3818, 124523320.000000, 1982.250000, 8151.000000, 8194.000000, 8175.000000
3819, 124523480.000000, 1898.625000, 8164.000000, 8185.500000, 8178.000000
3820, 124523640.000000, 1819.750000, 8166.000000, 8181.000000, 8172.000000
3821, 124523800.000000, 1762.625000, 8181.000000, 8187.500000, 8176.500000
3822, 124523960.000000, 1727.500000, 8175.500000, 8190.500000, 8189.500000
3823, 124524120.000000, 1693.125000, 8168.500000, 8202.000000, 8197.500000
3824, 124524280.000000, 1635.000000, 8183.000000, 8201.000000, 8189.000000
3825, 124524440.000000, 1585.125000, 8156.000000, 8186.500000, 8166.000000
3826, 124524600.000000, 1576.375000, 8143.000000, 8184.500000, 8158.000000
3827, 124524760.000000, 1640.875000, 8137.500000, 8182.000000, 8156.000000
3828, 124524920.000000, 1804.875000, 8153.000000, 8184.500000, 8157.000000
3829, 124525080.000000, 2067.125000, 8153.000000, 8191.500000, 8174.000000
3830, 124525240.000000, 2381.250000, 8253.500000, 8213.000000, 8228.000000
3831, 124525400.000000, 2669.250000, 8298.500000, 8064.500000, 8112.500000
3832, 124525560.000000, 2892.250000, 8053.500000, 8075.500000, 8038.500000
3833, 124525720.000000, 3037.750000, 8151.000000, 8165.000000, 8146.000000
3834, 124525880.000000, 3107.875000, 8183.500000, 8188.500000, 8172.000000
3835, 124526040.000000, 3109.500000, 8193.500000, 8195.500000, 8183.000000
3836, 124526200.000000, 3055.500000, 8194.000000, 8197.000000, 8186.500000
3837, 124526360.000000, 2962.000000, 8216.000000, 8197.000000, 8192.500000
3838, 124526520.000000, 2826.375000, 8233.000000, 8198.500000, 8202.000000
3839, 124526680.000000, 2670.375000, 8259.000000, 8197.000000, 8205.000000
3840, 124526840.000000, 2522.125000, 8280.500000, 8205.000000, 8220.000000
3841, 124527000.000000, 2398.500000, 8267.500000, 8210.500000, 8225.000000
3842, 124527160.000000, 2305.000000, 8222.500000, 8223.500000, 8228.000000
3843, 124527320.000000, 2244.625000, 8184.000000, 8215.500000, 8205.500000
3844, 124527480.000000, 2205.875000, 8170.000000, 8201.500000, 8185.000000
3845, 124527640.000000, 2171.750000, 8166.000000, 8193.500000, 8175.500000
3846, 124527800.000000, 2140.375000, 8154.500000, 8194.500000, 8180.000000
3847, 124527960.000000, 2110.375000, 8174.000000, 8192.000000, 8173.000000
3848, 124528120.000000, 2067.625000, 8182.500000, 8188.000000, 8176.000000
3849, 124528280.000000, 2003.250000, 8168.000000, 8191.500000, 8179.000000
3850, 124528440.000000, 1944.625000, 8175.000000, 8192.500000, 8183.500000
3851, 124528600.000000, 1901.000000, 8187.000000, 8194.000000, 8181.000000
3852, 124528760.000000, 1856.375000, 8175.000000, 8192.000000, 8178.000000
3853, 124528920.000000, 1804.125000, 8178.500000, 8203.000000, 8197.500000
3854, 124529080.000000, 1759.000000, 8190.500000, 8200.500000, 8204.500000
3855, 124529240.000000, 1715.500000, 8187.500000, 8196.000000, 8192.500000
3856, 124529400.000000, 1662.750000, 8178.500000, 8180.500000, 8167.000000
3857, 124529560.000000, 1624.000000, 8176.500000, 8176.500000, 8163.500000
3858, 124529720.000000, 1647.750000, 8180.000000, 8176.000000, 8163.000000
3859, 124529880.000000, 1784.125000, 8172.500000, 8176.500000, 8164.000000
3860, 124530040.000000, 2002.125000, 8172.000000, 8224.500000, 8218.500000
3861, 124530200.000000, 2239.750000, 8408.000000, 8110.000000, 8184.000000
3862, 124530360.000000, 2448.250000, 8150.000000, 8094.500000, 8106.500000
3863, 124530520.000000, 2606.500000, 8125.500000, 8074.000000, 8063.000000
3864, 124530680.000000, 2719.125000, 8195.500000, 8171.500000, 8170.000000
3865, 124530840.000000, 2789.875000, 8183.500000, 8189.500000, 8182.000000
3866, 124531000.000000, 2814.125000, 8202.500000, 8196.000000, 8189.500000
3867, 124531160.000000, 2777.625000, 8220.500000, 8187.500000, 8191.500000
3868, 124531320.000000, 2693.875000, 8237.500000, 8185.000000, 8193.500000
3869, 124531480.000000, 2596.500000, 8259.000000, 8180.000000, 8200.500000
3870, 124531640.000000, 2515.750000, 8285.000000, 8189.500000, 8217.500000
3871, 124531800.000000, 2454.500000, 8292.000000, 8205.500000, 8233.000000
3872, 124531960.000000, 2412.750000, 8258.000000, 8214.000000, 8233.000000
3873, 124532120.000000, 2390.000000, 8219.000000, 8221.000000, 8233.000000
3874, 124532280.000000, 2371.125000, 8182.000000, 8214.000000, 8210.500000
3875, 124532440.000000, 2325.875000, 8166.000000, 8200.500000, 8187.500000
3876, 124532600.000000, 2250.000000, 8156.000000, 8195.500000, 8184.000000
3877, 124532760.000000, 2176.750000, 8154.000000, 8194.000000, 8180.000000
3878, 124532920.000000, 2131.875000, 8166.500000, 8197.500000, 8182.500000
3879, 124533080.000000, 2080.875000, 8180.000000, 8193.000000, 8189.000000
3880, 124533240.000000, 2001.500000, 8184.000000, 8194.000000, 8192.000000
3881, 124533400.000000, 1894.875000, 8175.500000, 8189.000000, 8192.000000
3882, 124533560.000000, 1797.375000, 8189.000000, 8192.000000, 8193.000000
3883, 124533720.000000, 1729.750000, 8186.500000, 8183.500000, 8186.000000
3884, 124533880.000000, 1677.625000, 8192.500000, 8200.500000, 8213.000000
3885, 124534040.000000, 1617.375000, 8192.500000, 8197.000000, 8211.000000
3886, 124534200.000000, 1523.250000, 8207.000000, 8192.500000, 8200.500000
3887, 124534360.000000, 1424.250000, 8192.000000, 8172.000000, 8168.500000
3888, 124534520.000000, 1369.125000, 8189.500000, 8168.500000, 8168.000000
3889, 124534680.000000, 1431.375000, 8182.000000, 8172.500000, 8168.000000
3890, 124534840.000000, 1598.875000, 8190.000000, 8180.500000, 8176.500000
3891, 124535000.000000, 1840.375000, 8178.500000, 8245.500000, 8253.500000
3892, 124535160.000000, 2097.375000, 8517.000000, 8025.000000, 8143.500000
3893, 124535320.000000, 2330.125000, 8087.000000, 8069.500000, 8061.000000
3894, 124535480.000000, 2515.500000, 8180.500000, 8117.500000, 8128.000000
3895, 124535640.000000, 2645.250000, 8209.000000, 8184.000000, 8190.000000
3896, 124535800.000000, 2712.000000, 8215.500000, 8188.500000, 8198.500000
3897, 124535960.000000, 2712.375000, 8223.500000, 8186.000000, 8199.000000
3898, 124536120.000000, 2678.375000, 8233.000000, 8190.000000, 8203.500000
3899, 124536280.000000, 2609.500000, 8237.000000, 8193.500000, 8210.500000
3900, 124536440.000000, 2495.625000, 8239.000000, 8201.000000, 8219.000000
3901, 124536600.000000, 2342.500000, 8257.000000, 8210.000000, 8235.000000
3902, 124536760.000000, 2174.250000, 8281.500000, 8216.000000, 8242.000000
3903, 124536920.000000, 2034.125000, 8251.000000, 8219.000000, 8240.000000
3904, 124537080.000000, 1938.000000, 8205.500000, 8219.500000, 8231.500000
3905, 124537240.000000, 1868.500000, 8160.000000, 8206.000000, 8209.500000
3906, 124537400.000000, 1775.750000, 8156.000000, 8206.500000, 8199.500000
3907, 124537560.000000, 1636.125000, 8157.000000, 8197.500000, 8189.500000
3908, 124537720.000000, 1490.000000, 8172.500000, 8194.000000, 8193.000000
3909, 124537880.000000, 1371.625000, 8169.500000, 8197.000000, 8197.000000
3910, 124538040.000000, 1272.875000, 8174.000000, 8196.500000, 8197.500000
3911, 124538200.000000, 1129.250000, 8185.000000, 8196.000000, 8203.000000
3912, 124538360.000000, 918.625000, 8186.000000, 8188.500000, 8198.500000
3913, 124538520.000000, 688.750000, 8202.500000, 8186.000000, 8191.000000
3914, 124538680.000000, 504.000000, 8198.000000, 8183.500000, 8189.500000
3915, 124538840.000000, 368.875000, 8201.500000, 8197.000000, 8215.500000
3916, 124539000.000000, 230.500000, 8195.000000, 8201.000000, 8216.000000
3917, 124539160.000000, 73.125000, 8199.500000, 8196.500000, 8209.500000
3918, 124539320.000000, 13.375000, 8190.000000, 8178.500000, 8180.000000
3919, 124539480.000000, 11.750000, 8172.500000, 8177.000000, 8172.500000
3920, 124539640.000000, 92.250000, 8173.000000, 8174.000000, 8166.500000
3921, 124539800.000000, 319.000000, 8180.000000, 8180.500000, 8171.500000
3922, 124539960.000000, 604.875000, 8178.000000, 8197.500000, 8198.000000
3923, 124540120.000000, 858.625000, 8336.000000, 8178.500000, 8229.500000
3924, 124540280.000000, 1049.375000, 8273.500000, 8067.000000, 8110.500000
3925, 124540440.000000, 1204.625000, 8080.500000, 8074.500000, 8049.500000
3926, 124540600.000000, 1322.875000, 8179.500000, 8178.000000, 8175.000000
3927, 124540760.000000, 1383.125000, 8194.000000, 8193.000000, 8187.000000
3928, 124540920.000000, 1392.125000, 8201.000000, 8195.500000, 8188.000000
3929, 124541080.000000, 1375.625000, 8211.000000, 8193.000000, 8191.000000
3930, 124541240.000000, 1347.625000, 8228.500000, 8194.000000, 8198.000000
3931, 124541400.000000, 1307.500000, 8244.000000, 8192.500000, 8207.000000
3932, 124541560.000000, 1243.750000, 8266.000000, 8193.000000, 8215.500000
3933, 124541720.000000, 1152.250000, 8289.500000, 8198.000000, 8224.000000
3934, 124541880.000000, 1040.750000, 8289.500000, 8202.500000, 8222.500000
3935, 124542040.000000, 929.250000, 8237.000000, 8217.000000, 8227.000000
3936, 124542200.000000, 833.375000, 8190.000000, 8213.000000, 8210.000000
3937, 124542360.000000, 758.250000, 8169.500000, 8200.500000, 8189.500000
3938, 124542520.000000, 693.250000, 8170.500000, 8194.000000, 8181.000000
3939, 124542680.000000, 635.375000, 8167.000000, 8190.000000, 8181.000000
3940, 124542840.000000, 582.375000, 8172.500000, 8192.000000, 8182.500000
3941, 124543000.000000, 540.375000, 8169.000000, 8193.500000, 8195.500000
3942, 124543160.000000, 507.500000, 8167.500000, 8196.500000, 8189.500000
3943, 124543320.000000, 476.125000, 8179.500000, 8194.500000, 8187.500000
3944, 124543480.000000, 440.875000, 8178.500000, 8190.500000, 8189.500000
3945, 124543640.000000, 413.750000, 8178.500000, 8188.000000, 8183.500000
3946, 124543800.000000, 407.125000, 8185.500000, 8193.500000, 8187.500000
3947, 124543960.000000, 400.750000, 8171.500000, 8204.000000, 8212.000000
3948, 124544120.000000, 366.500000, 8188.500000, 8194.500000, 8198.500000
3949, 124544280.000000, 313.750000, 8194.000000, 8194.500000, 8196.500000
3950, 124544440.000000, 308.875000, 8168.000000, 8177.000000, 8169.000000
3951, 124544600.000000, 413.250000, 8170.000000, 8181.000000, 8168.500000
3952, 124544760.000000, 638.625000, 8173.000000, 8177.000000, 8169.000000
3953, 124544920.000000, 965.625000, 8176.500000, 8176.500000, 8167.500000
3954, 124545080.000000, 1327.125000, 8158.500000, 8248.000000, 8245.000000
3955, 124545240.000000, 1657.625000, 8541.500000, 8035.500000, 8159.500000
3956, 124545400.000000, 1920.125000, 8065.500000, 8098.000000, 8082.000000
3957, 124545560.000000, 2117.375000, 8120.000000, 8126.500000, 8117.000000
3958, 124545720.000000, 2256.875000, 8171.000000, 8186.000000, 8179.500000
3959, 124545880.000000, 2336.000000, 8194.000000, 8195.000000, 8188.000000
3960, 124546040.000000, 2353.000000, 8190.500000, 8192.500000, 8188.000000
3961, 124546200.000000, 2334.875000, 8201.500000, 8194.000000, 8191.500000
3962, 124546360.000000, 2300.000000, 8222.500000, 8199.000000, 8202.500000
3963, 124546520.000000, 2259.625000, 8241.000000, 8198.500000, 8210.000000
3964, 124546680.000000, 2215.250000, 8268.000000, 8209.500000, 8221.000000
3965, 124546840.000000, 2183.750000, 8279.000000, 8210.500000, 8227.500000
3966, 124547000.000000, 2180.750000, 8261.000000, 8221.000000, 8234.000000
3967, 124547160.000000, 2184.625000, 8222.500000, 8223.000000, 8223.500000
3968, 124547320.000000, 2173.875000, 8183.500000, 8203.000000, 8195.000000
3969, 124547480.000000, 2150.625000, 8170.000000, 8194.500000, 8183.500000
3970, 124547640.000000, 2136.375000, 8165.500000, 8189.000000, 8181.500000
3971, 124547800.000000, 2134.625000, 8167.500000, 8188.000000, 8180.000000
3972, 124547960.000000, 2128.500000, 8181.000000, 8187.500000, 8192.000000
3973, 124548120.000000, 2107.750000, 8196.000000, 8187.500000, 8187.000000
3974, 124548280.000000, 2059.000000, 8195.000000, 8189.000000, 8186.500000
3975, 124548440.000000, 1982.875000, 8203.500000, 8184.000000, 8189.000000
3976, 124548600.000000, 1892.750000, 8186.500000, 8186.500000, 8189.000000
3977, 124548760.000000, 1800.250000, 8193.500000, 8185.500000, 8189.500000
3978, 124548920.000000, 1718.125000, 8194.500000, 8183.500000, 8176.500000
3979, 124549080.000000, 1631.750000, 8186.000000, 8196.000000, 8207.000000
3980, 124549240.000000, 1529.250000, 8186.000000, 8198.500000, 8206.500000
3981, 124549400.000000, 1435.750000, 8177.000000, 8198.000000, 8202.000000
3982, 124549560.000000, 1381.750000, 8152.500000, 8186.500000, 8170.500000
3983, 124549720.000000, 1409.750000, 8148.000000, 8181.500000, 8166.500000
3984, 124549880.000000, 1542.250000, 8148.000000, 8177.000000, 8163.000000
3985, 124550040.000000, 1781.125000, 8164.500000, 8183.000000, 8173.000000
3986, 124550200.000000, 2055.250000, 8148.500000, 8231.000000, 8230.000000
3987, 124550360.000000, 2302.250000, 8430.000000, 8094.500000, 8176.500000
3988, 124550520.000000, 2481.375000, 8142.500000, 8106.500000, 8120.500000
3989, 124550680.000000, 2574.250000, 8075.500000, 8111.500000, 8085.500000
3990, 124550840.000000, 2573.375000, 8155.000000, 8191.500000, 8180.000000
3991, 124551000.000000, 2491.375000, 8167.500000, 8201.000000, 8187.000000
3992, 124551160.000000, 2351.000000, 8185.500000, 8205.500000, 8196.500000
3993, 124551320.000000, 2171.500000, 8181.500000, 8209.000000, 8200.000000
3994, 124551480.000000, 1986.875000, 8198.500000, 8205.500000, 8207.500000
3995, 124551640.000000, 1819.375000, 8218.000000, 8199.000000, 8213.500000
3996, 124551800.000000, 1672.000000, 8248.000000, 8202.000000, 8226.500000
3997, 124551960.000000, 1532.125000, 8263.500000, 8206.000000, 8235.500000
3998, 124552120.000000, 1407.875000, 8254.000000, 8211.500000, 8237.000000
3999, 124552280.000000, 1304.875000, 8205.500000, 8224.000000, 8230.000000
4000, 124552440.000000, 1226.750000, 8163.000000, 8219.500000, 8211.500000
4001, 124552600.000000, 1141.875000, 8147.000000, 8208.500000, 8197.000000
4002, 124552760.000000, 1052.375000, 8153.000000, 8204.500000, 8190.000000
4003, 124552920.000000, 983.250000, 8151.500000, 8198.500000, 8184.500000
4004, 124553080.000000, 951.250000, 8149.500000, 8200.000000, 8186.000000
4005, 124553240.000000, 917.750000, 8151.000000, 8200.000000, 8194.000000
4006, 124553400.000000, 847.000000, 8159.000000, 8202.500000, 8196.000000
4007, 124553560.000000, 769.250000, 8160.000000, 8204.000000, 8199.000000
4008, 124553720.000000, 724.375000, 8154.500000, 8201.000000, 8191.500000
4009, 124553880.000000, 711.875000, 8151.500000, 8199.000000, 8186.500000
4010, 124554040.000000, 693.375000, 8156.500000, 8197.000000, 8188.500000
4011, 124554200.000000, 660.875000, 8164.500000, 8204.500000, 8207.000000
4012, 124554360.000000, 637.875000, 8176.000000, 8204.000000, 8208.500000
4013, 124554520.000000, 633.750000, 8175.500000, 8199.000000, 8202.000000
4014, 124554680.000000, 648.750000, 8156.500000, 8184.000000, 8173.500000
4015, 124554840.000000, 730.250000, 8151.000000, 8183.000000, 8169.000000
4016, 124555000.000000, 911.750000, 8163.000000, 8185.500000, 8171.500000
4017, 124555160.000000, 1198.625000, 8162.000000, 8188.000000, 8169.500000
4018, 124555320.000000, 1522.625000, 8165.000000, 8209.000000, 8200.500000
4019, 124555480.000000, 1842.000000, 8352.500000, 8149.500000, 8204.500000
4020, 124555640.000000, 2109.875000, 8253.000000, 8088.500000, 8133.000000
4021, 124555800.000000, 2296.875000, 8061.000000, 8094.000000, 8066.000000
4022, 124555960.000000, 2390.750000, 8158.000000, 8179.500000, 8172.000000
4023, 124556120.000000, 2399.750000, 8181.000000, 8192.500000, 8180.500000
4024, 124556280.000000, 2340.000000, 8185.500000, 8193.500000, 8183.500000
4025, 124556440.000000, 2248.125000, 8191.000000, 8196.000000, 8192.500000
4026, 124556600.000000, 2156.750000, 8205.500000, 8193.000000, 8197.000000
4027, 124556760.000000, 2057.500000, 8227.500000, 8203.500000, 8208.500000
4028, 124556920.000000, 1942.750000, 8253.000000, 8199.000000, 8214.500000
4029, 124557080.000000, 1834.750000, 8256.000000, 8205.500000, 8225.000000
4030, 124557240.000000, 1751.750000, 8242.500000, 8217.000000, 8232.500000
4031, 124557400.000000, 1681.125000, 8199.500000, 8227.000000, 8234.000000
4032, 124557560.000000, 1609.625000, 8158.000000, 8223.500000, 8209.000000
4033, 124557720.000000, 1544.125000, 8136.500000, 8208.000000, 8185.000000
4034, 124557880.000000, 1500.000000, 8136.500000, 8203.500000, 8178.000000
4035, 124558040.000000, 1461.625000, 8138.000000, 8205.000000, 8184.500000
4036, 124558200.000000, 1411.750000, 8135.000000, 8203.500000, 8190.500000
4037, 124558360.000000, 1353.750000, 8138.000000, 8203.500000, 8195.000000
4038, 124558520.000000, 1302.375000, 8143.500000, 8205.000000, 8196.000000
4039, 124558680.000000, 1264.125000, 8158.000000, 8200.500000, 8193.500000
4040, 124558840.000000, 1232.500000, 8163.500000, 8197.500000, 8194.500000
4041, 124559000.000000, 1199.125000, 8168.500000, 8196.500000, 8191.000000
4042, 124559160.000000, 1174.000000, 8177.500000, 8198.000000, 8189.000000
4043, 124559320.000000, 1153.250000, 8180.000000, 8196.000000, 8193.500000
4044, 124559480.000000, 1136.625000, 8178.000000, 8211.500000, 8216.000000
4045, 124559640.000000, 1128.750000, 8175.500000, 8205.000000, 8208.000000
4046, 124559800.000000, 1161.375000, 8162.500000, 8199.500000, 8195.500000
4047, 124559960.000000, 1294.500000, 8152.500000, 8187.500000, 8176.500000
4048, 124560120.000000, 1565.375000, 8150.500000, 8186.500000, 8170.000000
4049, 124560280.000000, 1892.750000, 8152.500000, 8192.000000, 8171.000000
4050, 124560440.000000, 2228.750000, 8143.000000, 8195.000000, 8177.000000
4051, 124560600.000000, 2523.125000, 8169.500000, 8259.000000, 8258.000000
4052, 124560760.000000, 2800.125000, 8506.000000, 8023.500000, 8144.000000
4053, 124560920.000000, 2963.250000, 8043.000000, 8090.500000, 8065.500000
4054, 124561080.000000, 3005.500000, 8130.500000, 8153.500000, 8139.500000
4055, 124561240.000000, 2941.375000, 8168.000000, 8211.000000, 8194.500000
4056, 124561400.000000, 2850.125000, 8180.500000, 8216.000000, 8201.500000
4057, 124561560.000000, 2733.625000, 8168.000000, 8218.000000, 8203.000000
4058, 124561720.000000, 2609.250000, 8179.500000, 8216.500000, 8209.500000
4059, 124561880.000000, 2488.500000, 8193.500000, 8211.500000, 8214.500000
4060, 124562040.000000, 2386.750000, 8221.500000, 8209.500000, 8223.000000
4061, 124562200.000000, 2298.250000, 8246.000000, 8216.000000, 8237.000000
4062, 124562360.000000, 2210.500000, 8261.000000, 8221.000000, 8244.000000
4063, 124562520.000000, 2124.250000, 8241.000000, 8229.500000, 8251.500000
4064, 124562680.000000, 2044.750000, 8210.500000, 8228.000000, 8232.000000
4065, 124562840.000000, 1983.875000, 8197.500000, 8215.500000, 8208.500000
4066, 124563000.000000, 1940.875000, 8171.000000, 8204.000000, 8193.500000
4067, 124563160.000000, 1916.375000, 8163.000000, 8202.500000, 8190.500000
4068, 124563320.000000, 1902.500000, 8159.500000, 8206.500000, 8193.000000
4069, 124563480.000000, 1893.500000, 8157.500000, 8203.000000, 8193.000000
4070, 124563640.000000, 1878.875000, 8164.000000, 8207.000000, 8198.500000
4071, 124563800.000000, 1845.250000, 8168.000000, 8203.500000, 8196.000000
4072, 124563960.000000, 1794.750000, 8171.000000, 8203.000000, 8197.500000
4073, 124564120.000000, 1743.500000, 8169.500000, 8199.500000, 8190.500000
4074, 124564280.000000, 1697.250000, 8171.000000, 8196.000000, 8183.000000
4075, 124564440.000000, 1647.125000, 8172.000000, 8202.500000, 8202.000000
4076, 124564600.000000, 1592.625000, 8166.500000, 8214.500000, 8212.000000
4077, 124564760.000000, 1555.500000, 8180.000000, 8211.000000, 8209.000000
4078, 124564920.000000, 1577.500000, 8163.000000, 8198.000000, 8184.000000
4079, 124565080.000000, 1712.750000, 8154.000000, 8187.500000, 8168.500000
4080, 124565240.000000, 1955.250000, 8153.000000, 8187.000000, 8170.500000
4081, 124565400.000000, 2257.375000, 8160.000000, 8189.500000, 8174.500000
4082, 124565560.000000, 2544.500000, 8161.500000, 8195.500000, 8182.500000
4083, 124565720.000000, 2780.125000, 8243.500000, 8222.500000, 8242.000000
4084, 124565880.000000, 2960.000000, 8357.500000, 8034.500000, 8104.000000
4085, 124566040.000000, 3081.000000, 8066.500000, 8056.500000, 8029.500000
4086, 124566200.000000, 3130.625000, 8170.000000, 8166.500000, 8158.500000
4087, 124566360.000000, 3115.625000, 8197.000000, 8197.500000, 8191.000000
4088, 124566520.000000, 3055.750000, 8198.500000, 8204.500000, 8197.000000
4089, 124566680.000000, 2964.625000, 8215.500000, 8201.500000, 8195.500000
4090, 124566840.000000, 2854.750000, 8218.500000, 8199.500000, 8200.500000
4091, 124567000.000000, 2739.875000, 8234.000000, 8207.000000, 8217.000000
4092, 124567160.000000, 2645.250000, 8253.000000, 8210.500000, 8224.000000
4093, 124567320.000000, 2577.750000, 8270.000000, 8207.000000, 8231.000000
4094, 124567480.000000, 2532.750000, 8271.000000, 8212.500000, 8234.500000
4095, 124567640.000000, 2505.625000, 8237.500000, 8227.500000, 8244.000000
4096, 124567800.000000, 2489.500000, 8194.000000, 8222.000000, 8224.500000
4097, 124567960.000000, 2480.125000, 8178.000000, 8213.000000, 8197.000000
4098, 124568120.000000, 2464.125000, 8169.000000, 8193.500000, 8177.500000
4099, 124568280.000000, 2430.250000, 8170.500000, 8194.000000, 8177.000000
4100, 124568440.000000, 2375.125000, 8173.500000, 8195.500000, 8182.500000
4101, 124568600.000000, 2312.375000, 8168.500000, 8201.500000, 8186.000000
4102, 124568760.000000, 2258.500000, 8167.500000, 8204.500000, 8190.500000
4103, 124568920.000000, 2217.125000, 8157.000000, 8199.500000, 8183.500000
4104, 124569080.000000, 2186.500000, 8163.000000, 8199.000000, 8179.000000
4105, 124569240.000000, 2154.750000, 8154.500000, 8197.500000, 8184.500000
4106, 124569400.000000, 2112.500000, 8153.000000, 8194.000000, 8176.000000
4107, 124569560.000000, 2053.875000, 8141.500000, 8217.500000, 8210.000000
4108, 124569720.000000, 1988.250000, 8133.000000, 8214.500000, 8196.500000
4109, 124569880.000000, 1939.125000, 8130.500000, 8208.000000, 8188.500000
4110, 124570040.000000, 1966.000000, 8124.500000, 8195.000000, 8163.500000
4111, 124570200.000000, 2109.125000, 8137.000000, 8187.000000, 8161.500000
4112, 124570360.000000, 2346.000000, 8135.000000, 8190.000000, 8164.500000
4113, 124570520.000000, 2621.000000, 8144.500000, 8188.000000, 8164.500000
4114, 124570680.000000, 2898.250000, 8146.500000, 8248.500000, 8236.500000
4115, 124570840.000000, 3159.625000, 8447.500000, 8065.500000, 8144.000000
4116, 124571000.000000, 3363.125000, 8057.000000, 8107.500000, 8087.000000
4117, 124571160.000000, 3489.000000, 8114.000000, 8111.000000, 8088.500000
4118, 124571320.000000, 3550.625000, 8172.500000, 8189.500000, 8174.500000
4119, 124571480.000000, 3563.000000, 8176.000000, 8195.000000, 8177.500000
4120, 124571640.000000, 3522.875000, 8187.000000, 8199.000000, 8187.000000
4121, 124571800.000000, 3433.625000, 8194.000000, 8201.000000, 8188.500000
4122, 124571960.000000, 3322.875000, 8211.500000, 8205.500000, 8200.000000
4123, 124572120.000000, 3206.750000, 8226.500000, 8202.000000, 8201.000000
4124, 124572280.000000, 3091.625000, 8241.500000, 8210.000000, 8209.000000
4125, 124572440.000000, 2995.000000, 8233.000000, 8224.500000, 8226.000000
4126, 124572600.000000, 2919.625000, 8219.500000, 8236.000000, 8236.000000
4127, 124572760.000000, 2849.125000, 8187.500000, 8241.500000, 8235.500000
4128, 124572920.000000, 2775.750000, 8176.500000, 8216.000000, 8205.000000
4129, 124573080.000000, 2704.500000, 8178.500000, 8201.000000, 8193.500000
4130, 124573240.000000, 2636.375000, 8174.500000, 8196.000000, 8189.000000
4131, 124573400.000000, 2571.875000, 8178.500000, 8200.500000, 8188.000000
4132, 124573560.000000, 2502.500000, 8170.000000, 8201.000000, 8190.500000
4133, 124573720.000000, 2426.625000, 8195.500000, 8196.500000, 8195.000000
4134, 124573880.000000, 2338.500000, 8198.000000, 8192.500000, 8194.500000
4135, 124574040.000000, 2246.500000, 8187.500000, 8196.500000, 8191.000000
4136, 124574200.000000, 2159.250000, 8191.000000, 8191.500000, 8191.000000
4137, 124574360.000000, 2074.250000, 8206.000000, 8187.000000, 8194.500000
4138, 124574520.000000, 1985.625000, 8204.000000, 8203.500000, 8219.500000
4139, 124574680.000000, 1899.000000, 8200.000000, 8202.000000, 8205.500000
4140, 124574840.000000, 1832.750000, 8194.000000, 8196.500000, 8202.500000
4141, 124575000.000000, 1796.750000, 8192.500000, 8183.000000, 8176.000000
4142, 124575160.000000, 1799.125000, 8199.000000, 8172.500000, 8172.000000
4143, 124575320.000000, 1867.500000, 8198.000000, 8175.500000, 8174.500000
4144, 124575480.000000, 1999.625000, 8182.000000, 8180.000000, 8171.000000
4145, 124575640.000000, 2144.500000, 8181.500000, 8243.000000, 8252.000000
4146, 124575800.000000, 2249.750000, 8469.000000, 8058.000000, 8158.000000
4147, 124575960.000000, 2316.750000, 8084.000000, 8120.000000, 8109.500000
4148, 124576120.000000, 2381.750000, 8152.000000, 8102.500000, 8093.500000
4149, 124576280.000000, 2441.000000, 8206.000000, 8181.000000, 8180.500000
4150, 124576440.000000, 2462.750000, 8207.000000, 8191.500000, 8189.000000
4151, 124576600.000000, 2432.875000, 8202.500000, 8196.500000, 8191.000000
4152, 124576760.000000, 2383.500000, 8215.000000, 8198.000000, 8194.500000
4153, 124576920.000000, 2339.250000, 8235.500000, 8193.500000, 8202.500000
4154, 124577080.000000, 2289.750000, 8258.500000, 8190.500000, 8205.000000
4155, 124577240.000000, 2227.625000, 8263.000000, 8197.500000, 8212.500000
4156, 124577400.000000, 2165.000000, 8255.500000, 8212.500000, 8228.000000
4157, 124577560.000000, 2126.250000, 8247.500000, 8222.000000, 8236.000000
4158, 124577720.000000, 2112.250000, 8214.000000, 8225.500000, 8230.000000
4159, 124577880.000000, 2115.375000, 8166.000000, 8210.500000, 8203.500000
4160, 124578040.000000, 2111.500000, 8169.500000, 8194.000000, 8187.500000
4161, 124578200.000000, 2073.750000, 8188.500000, 8187.000000, 8189.500000
4162, 124578360.000000, 2014.000000, 8176.500000, 8193.500000, 8186.500000
4163, 124578520.000000, 1965.125000, 8159.000000, 8196.500000, 8191.000000
4164, 124578680.000000, 1951.125000, 8179.000000, 8195.000000, 8188.500000
4165, 124578840.000000, 1955.000000, 8186.000000, 8187.000000, 8188.000000
4166, 124579000.000000, 1949.500000, 8195.000000, 8184.000000, 8190.000000
4167, 124579160.000000, 1930.000000, 8182.000000, 8186.500000, 8186.000000
4168, 124579320.000000, 1910.000000, 8184.000000, 8188.500000, 8178.500000
4169, 124579480.000000, 1892.750000, 8191.000000, 8197.000000, 8202.000000
4170, 124579640.000000, 1878.625000, 8208.500000, 8196.000000, 8207.000000
4171, 124579800.000000, 1874.875000, 8233.500000, 8188.000000, 8204.500000
4172, 124579960.000000, 1901.125000, 8225.000000, 8170.000000, 8180.000000
4173, 124580120.000000, 1962.375000, 8215.000000, 8159.500000, 8162.500000
4174, 124580280.000000, 2051.375000, 8207.500000, 8161.500000, 8159.000000
4175, 124580440.000000, 2153.875000, 8212.500000, 8158.500000, 8164.500000
4176, 124580600.000000, 2270.000000, 8225.000000, 8169.000000, 8184.000000
4177, 124580760.000000, 2406.125000, 8332.000000, 8184.500000, 8239.000000
4178, 124580920.000000, 2554.625000, 8326.500000, 8044.000000, 8109.500000
4179, 124581080.000000, 2692.625000, 8089.500000, 8056.000000, 8036.000000
4180, 124581240.000000, 2778.875000, 8191.500000, 8163.500000, 8162.500000
4181, 124581400.000000, 2799.375000, 8203.000000, 8185.000000, 8182.500000
4182, 124581560.000000, 2760.750000, 8207.000000, 8193.500000, 8195.500000
4183, 124581720.000000, 2672.375000, 8209.000000, 8190.500000, 8191.500000
4184, 124581880.000000, 2528.500000, 8224.500000, 8196.000000, 8197.500000
4185, 124582040.000000, 2327.000000, 8231.500000, 8196.500000, 8203.000000
4186, 124582200.000000, 2105.000000, 8249.500000, 8201.000000, 8217.500000
4187, 124582360.000000, 1897.500000, 8267.000000, 8206.500000, 8228.500000
4188, 124582520.000000, 1723.125000, 8263.000000, 8208.000000, 8228.500000
4189, 124582680.000000, 1575.125000, 8231.500000, 8221.500000, 8235.500000
4190, 124582840.000000, 1450.750000, 8186.500000, 8215.000000, 8219.500000
4191, 124583000.000000, 1361.875000, 8170.500000, 8206.000000, 8198.000000
4192, 124583160.000000, 1320.875000, 8153.000000, 8198.000000, 8183.500000
4193, 124583320.000000, 1337.625000, 8140.000000, 8203.000000, 8192.500000
4194, 124583480.000000, 1368.125000, 8148.500000, 8199.500000, 8188.500000
4195, 124583640.000000, 1356.625000, 8167.500000, 8201.000000, 8192.000000
4196, 124583800.000000, 1291.875000, 8175.000000, 8202.000000, 8201.500000
4197, 124583960.000000, 1211.125000, 8175.500000, 8197.000000, 8199.000000
4198, 124584120.000000, 1149.750000, 8182.000000, 8189.500000, 8195.500000
4199, 124584280.000000, 1110.875000, 8179.500000, 8187.000000, 8191.500000
4200, 124584440.000000, 1085.250000, 8178.000000, 8188.500000, 8189.000000
4201, 124584600.000000, 1062.000000, 8189.500000, 8203.500000, 8211.000000
4202, 124584760.000000, 1047.375000, 8186.000000, 8202.000000, 8215.000000
4203, 124584920.000000, 1074.125000, 8202.000000, 8194.500000, 8206.500000
4204, 124585080.000000, 1189.500000, 8191.000000, 8181.000000, 8177.500000
4205, 124585240.000000, 1391.750000, 8186.500000, 8179.500000, 8171.500000
4206, 124585400.000000, 1656.125000, 8182.500000, 8180.500000, 8173.500000
4207, 124585560.000000, 1951.125000, 8184.000000, 8178.500000, 8177.500000
4208, 124585720.000000, 2254.000000, 8178.500000, 8209.000000, 8211.000000
4209, 124585880.000000, 2533.250000, 8372.000000, 8159.000000, 8219.000000
4210, 124586040.000000, 2760.875000, 8225.000000, 8078.500000, 8118.500000
4211, 124586200.000000, 2918.750000, 8104.500000, 8081.000000, 8064.000000
4212, 124586360.000000, 3012.500000, 8196.000000, 8176.500000, 8178.000000
4213, 124586520.000000, 3041.625000, 8210.500000, 8187.000000, 8189.500000
4214, 124586680.000000, 3022.625000, 8220.000000, 8189.500000, 8196.000000
4215, 124586840.000000, 2957.250000, 8218.500000, 8198.000000, 8200.500000
4216, 124587000.000000, 2864.000000, 8233.000000, 8195.500000, 8206.000000
4217, 124587160.000000, 2768.250000, 8254.000000, 8199.000000, 8220.000000
4218, 124587320.000000, 2699.750000, 8270.500000, 8197.500000, 8224.000000
4219, 124587480.000000, 2657.375000, 8284.500000, 8203.000000, 8229.500000
4220, 124587640.000000, 2616.125000, 8270.500000, 8210.500000, 8240.000000
4221, 124587800.000000, 2569.875000, 8230.000000, 8225.000000, 8242.000000
4222, 124587960.000000, 2526.875000, 8191.500000, 8218.000000, 8218.500000
4223, 124588120.000000, 2499.625000, 8177.500000, 8204.500000, 8200.000000
4224, 124588280.000000, 2475.250000, 8167.500000, 8194.000000, 8188.000000
4225, 124588440.000000, 2450.250000, 8176.500000, 8195.000000, 8189.000000
4226, 124588600.000000, 2418.875000, 8180.000000, 8194.500000, 8191.000000
4227, 124588760.000000, 2379.250000, 8176.500000, 8200.500000, 8196.500000
4228, 124588920.000000, 2337.875000, 8185.000000, 8197.500000, 8199.500000
4229, 124589080.000000, 2308.625000, 8196.000000, 8194.000000, 8197.500000
4230, 124589240.000000, 2284.375000, 8200.500000, 8191.000000, 8192.500000
4231, 124589400.000000, 2239.750000, 8201.500000, 8189.000000, 8193.000000
4232, 124589560.000000, 2181.125000, 8186.500000, 8199.000000, 8192.500000
4233, 124589720.000000, 2111.125000, 8171.500000, 8202.000000, 8203.500000
4234, 124589880.000000, 2040.375000, 8172.500000, 8208.500000, 8207.500000
4235, 124590040.000000, 1996.000000, 8172.000000, 8208.500000, 8208.000000
4236, 124590200.000000, 2009.000000, 8163.500000, 8198.000000, 8186.000000
4237, 124590360.000000, 2105.125000, 8149.500000, 8186.000000, 8169.000000
4238, 124590520.000000, 2286.625000, 8165.000000, 8178.000000, 8164.500000
4239, 124590680.000000, 2532.750000, 8182.000000, 8177.000000, 8171.500000
4240, 124590840.000000, 2789.750000, 8181.000000, 8186.500000, 8178.500000
4241, 124591000.000000, 2986.000000, 8241.500000, 8222.000000, 8238.000000
4242, 124591160.000000, 3108.375000, 8396.000000, 8051.500000, 8132.500000
4243, 124591320.000000, 3168.750000, 8054.500000, 8082.000000, 8048.500000
4244, 124591480.000000, 3158.875000, 8155.000000, 8169.000000, 8161.500000
4245, 124591640.000000, 3070.875000, 8171.500000, 8199.500000, 8187.000000
4246, 124591800.000000, 2922.125000, 8178.500000, 8210.000000, 8198.500000
4247, 124591960.000000, 2738.750000, 8177.500000, 8214.500000, 8203.000000
4248, 124592120.000000, 2535.500000, 8202.500000, 8210.500000, 8207.500000
4249, 124592280.000000, 2316.375000, 8234.500000, 8203.000000, 8212.500000
4250, 124592440.000000, 2112.375000, 8267.500000, 8204.000000, 8222.500000
4251, 124592600.000000, 1960.250000, 8281.000000, 8210.500000, 8236.000000
4252, 124592760.000000, 1846.375000, 8285.000000, 8222.000000, 8244.000000
4253, 124592920.000000, 1746.000000, 8261.000000, 8230.000000, 8242.000000
4254, 124593080.000000, 1651.500000, 8212.500000, 8224.500000, 8218.500000
4255, 124593240.000000, 1582.125000, 8177.000000, 8209.000000, 8202.000000
4256, 124593400.000000, 1537.125000, 8168.500000, 8204.500000, 8191.500000
4257, 124593560.000000, 1492.250000, 8165.500000, 8201.500000, 8192.500000
4258, 124593720.000000, 1449.875000, 8164.500000, 8196.500000, 8190.500000
4259, 124593880.000000, 1418.500000, 8172.500000, 8198.000000, 8191.500000
4260, 124594040.000000, 1387.500000, 8167.000000, 8197.000000, 8195.500000
4261, 124594200.000000, 1359.625000, 8165.500000, 8202.000000, 8197.000000
4262, 124594360.000000, 1349.000000, 8160.500000, 8206.000000, 8195.500000
4263, 124594520.000000, 1361.250000, 8159.000000, 8202.000000, 8192.500000
4264, 124594680.000000, 1369.000000, 8170.000000, 8199.000000, 8184.000000
4265, 124594840.000000, 1354.750000, 8165.000000, 8198.000000, 8184.500000
4266, 124595000.000000, 1345.000000, 8178.500000, 8215.500000, 8216.500000
4267, 124595160.000000, 1373.250000, 8173.500000, 8204.500000, 8208.000000
4268, 124595320.000000, 1452.125000, 8175.000000, 8199.000000, 8199.500000
4269, 124595480.000000, 1593.375000, 8157.000000, 8185.500000, 8171.500000
4270, 124595640.000000, 1807.125000, 8159.000000, 8182.000000, 8169.500000
4271, 124595800.000000, 2095.500000, 8157.500000, 8186.000000, 8173.500000
4272, 124595960.000000, 2406.625000, 8162.500000, 8184.500000, 8177.000000
4273, 124596120.000000, 2681.125000, 8144.500000, 8242.500000, 8238.000000
4274, 124596280.000000, 2892.000000, 8491.500000, 8060.000000, 8163.500000
4275, 124596440.000000, 3028.375000, 8093.000000, 8114.000000, 8104.500000
4276, 124596600.000000, 3096.875000, 8105.000000, 8130.000000, 8112.500000
4277, 124596760.000000, 3104.875000, 8161.500000, 8202.000000, 8186.000000
4278, 124596920.000000, 3059.000000, 8180.500000, 8207.500000, 8191.000000
4279, 124597080.000000, 2960.125000, 8184.500000, 8203.500000, 8190.000000
4280, 124597240.000000, 2811.250000, 8196.000000, 8203.000000, 8199.000000
4281, 124597400.000000, 2628.875000, 8224.000000, 8201.000000, 8205.500000
4282, 124597560.000000, 2449.500000, 8235.000000, 8205.000000, 8218.500000
4283, 124597720.000000, 2290.500000, 8270.000000, 8201.500000, 8226.500000
4284, 124597880.000000, 2142.375000, 8277.000000, 8207.000000, 8231.500000
4285, 124598040.000000, 2005.125000, 8259.000000, 8217.000000, 8240.500000
4286, 124598200.000000, 1875.375000, 8188.500000, 8225.500000, 8231.000000
4287, 124598360.000000, 1757.750000, 8152.000000, 8217.000000, 8208.500000
4288, 124598520.000000, 1653.750000, 8135.500000, 8205.000000, 8187.500000
4289, 124598680.000000, 1572.500000, 8135.500000, 8198.000000, 8180.500000
4290, 124598840.000000, 1509.875000, 8135.500000, 8195.000000, 8180.000000
4291, 124599000.000000, 1454.000000, 8143.000000, 8199.000000, 8185.500000
4292, 124599160.000000, 1383.875000, 8149.000000, 8198.500000, 8192.000000
4293, 124599320.000000, 1303.375000, 8153.500000, 8202.000000, 8191.500000
4294, 124599480.000000, 1231.250000, 8163.500000, 8197.000000, 8188.500000
4295, 124599640.000000, 1187.625000, 8164.500000, 8198.000000, 8192.000000
4296, 124599800.000000, 1171.375000, 8159.000000, 8197.500000, 8187.500000
4297, 124599960.000000, 1177.875000, 8160.500000, 8197.500000, 8187.000000
4298, 124600120.000000, 1196.000000, 8152.000000, 8208.500000, 8212.500000
4299, 124600280.000000, 1217.625000, 8151.000000, 8210.500000, 8210.000000
4300, 124600440.000000, 1239.500000, 8162.000000, 8198.500000, 8197.500000
4301, 124600600.000000, 1301.375000, 8152.000000, 8185.000000, 8173.500000
4302, 124600760.000000, 1442.500000, 8160.000000, 8181.500000, 8168.500000
4303, 124600920.000000, 1671.500000, 8162.500000, 8179.000000, 8171.000000
4304, 124601080.000000, 1951.625000, 8172.500000, 8179.500000, 8174.000000
4305, 124601240.000000, 2226.625000, 8153.000000, 8225.500000, 8218.000000
4306, 124601400.000000, 2450.500000, 8402.500000, 8109.500000, 8185.500000
4307, 124601560.000000, 2591.625000, 8164.000000, 8099.500000, 8119.500000
4308, 124601720.000000, 2642.125000, 8087.500000, 8107.500000, 8088.000000
4309, 124601880.000000, 2613.625000, 8165.500000, 8188.000000, 8179.000000
4310, 124602040.000000, 2527.250000, 8177.500000, 8200.000000, 8193.500000
4311, 124602200.000000, 2389.000000, 8173.000000, 8204.000000, 8199.000000
4312, 124602360.000000, 2220.875000, 8181.500000, 8206.500000, 8204.000000
4313, 124602520.000000, 2036.625000, 8210.500000, 8205.000000, 8212.000000
4314, 124602680.000000, 1867.875000, 8227.000000, 8198.500000, 8215.000000
4315, 124602840.000000, 1729.625000, 8264.500000, 8201.000000, 8232.500000
4316, 124603000.000000, 1620.875000, 8276.000000, 8210.500000, 8247.500000
4317, 124603160.000000, 1539.500000, 8265.500000, 8215.500000, 8244.500000
4318, 124603320.000000, 1483.375000, 8216.000000, 8226.500000, 8239.500000
4319, 124603480.000000, 1432.375000, 8161.000000, 8221.500000, 8214.000000
4320, 124603640.000000, 1368.375000, 8147.500000, 8214.000000, 8194.500000
4321, 124603800.000000, 1294.875000, 8128.000000, 8207.500000, 8189.000000
4322, 124603960.000000, 1242.000000, 8122.500000, 8205.500000, 8186.500000
4323, 124604120.000000, 1221.875000, 8133.000000, 8201.000000, 8186.000000
4324, 124604280.000000, 1210.750000, 8140.500000, 8200.000000, 8187.000000
4325, 124604440.000000, 1178.250000, 8141.000000, 8203.500000, 8190.500000
4326, 124604600.000000, 1124.875000, 8136.000000, 8204.000000, 8192.000000
4327, 124604760.000000, 1071.500000, 8141.500000, 8202.500000, 8195.000000
4328, 124604920.000000, 1027.875000, 8149.000000, 8201.500000, 8193.000000
4329, 124605080.000000, 999.625000, 8157.500000, 8195.500000, 8184.000000
4330, 124605240.000000, 978.875000, 8167.500000, 8199.500000, 8198.000000
4331, 124605400.000000, 967.375000, 8163.000000, 8212.500000, 8210.500000
4332, 124605560.000000, 988.250000, 8172.000000, 8211.500000, 8206.500000
4333, 124605720.000000, 1059.875000, 8160.000000, 8197.500000, 8184.500000
4334, 124605880.000000, 1206.250000, 8146.000000, 8189.500000, 8168.000000
4335, 124606040.000000, 1454.375000, 8147.500000, 8188.000000, 8172.500000
4336, 124606200.000000, 1781.750000, 8151.000000, 8189.000000, 8173.000000
4337, 124606360.000000, 2121.750000, 8157.000000, 8189.000000, 8178.000000
4338, 124606520.000000, 2419.250000, 8167.500000, 8249.500000, 8241.500000
4339, 124606680.000000, 2650.500000, 8530.000000, 8017.500000, 8138.000000
4340, 124606840.000000, 2811.125000, 8056.500000, 8089.500000, 8069.500000
4341, 124607000.000000, 2893.250000, 8142.500000, 8147.500000, 8138.000000
4342, 124607160.000000, 2901.625000, 8187.500000, 8199.500000, 8191.000000
4343, 124607320.000000, 2844.500000, 8197.000000, 8203.000000, 8192.000000
4344, 124607480.000000, 2741.625000, 8205.000000, 8204.500000, 8195.500000
4345, 124607640.000000, 2624.625000, 8216.500000, 8204.000000, 8203.500000
4346, 124607800.000000, 2540.500000, 8228.000000, 8203.500000, 8211.500000
4347, 124607960.000000, 2495.250000, 8251.000000, 8206.000000, 8221.500000
4348, 124608120.000000, 2475.875000, 8271.000000, 8210.000000, 8232.500000
4349, 124608280.000000, 2455.250000, 8277.500000, 8214.500000, 8238.500000
4350, 124608440.000000, 2427.500000, 8254.000000, 8224.500000, 8242.000000
4351, 124608600.000000, 2401.625000, 8194.000000, 8226.000000, 8227.500000
4352, 124608760.000000, 2385.500000, 8163.000000, 8215.000000, 8202.000000
4353, 124608920.000000, 2373.750000, 8159.500000, 8200.000000, 8184.500000
4354, 124609080.000000, 2353.250000, 8163.000000, 8196.500000, 8179.500000
4355, 124609240.000000, 2325.125000, 8159.500000, 8198.000000, 8181.500000
4356, 124609400.000000, 2292.625000, 8159.500000, 8201.000000, 8182.500000
4357, 124609560.000000, 2256.875000, 8155.500000, 8207.500000, 8188.500000
4358, 124609720.000000, 2206.750000, 8164.500000, 8197.000000, 8186.000000
4359, 124609880.000000, 2151.000000, 8167.000000, 8196.500000, 8185.500000
4360, 124610040.000000, 2090.125000, 8163.500000, 8195.000000, 8182.500000
4361, 124610200.000000, 2024.875000, 8163.500000, 8196.000000, 8181.000000
4362, 124610360.000000, 1952.750000, 8161.000000, 8199.500000, 8189.000000
4363, 124610520.000000, 1877.375000, 8161.500000, 8211.500000, 8205.500000
4364, 124610680.000000, 1803.500000, 8171.000000, 8200.000000, 8195.000000
4365, 124610840.000000, 1758.375000, 8171.000000, 8191.000000, 8178.500000
4366, 124611000.000000, 1772.875000, 8147.500000, 8183.000000, 8160.000000
4367, 124611160.000000, 1895.500000, 8160.000000, 8183.000000, 8161.000000
4368, 124611320.000000, 2120.375000, 8169.000000, 8179.000000, 8159.000000
4369, 124611480.000000, 2393.875000, 8173.000000, 8175.500000, 8160.000000
4370, 124611640.000000, 2645.375000, 8192.000000, 8243.000000, 8240.000000
4371, 124611800.000000, 2833.500000, 8505.500000, 8019.500000, 8124.500000
4372, 124611960.000000, 2947.625000, 8042.000000, 8092.500000, 8059.500000
4373, 124612120.000000, 2992.750000, 8130.500000, 8138.000000, 8120.000000
4374, 124612280.000000, 2980.250000, 8163.500000, 8190.000000, 8171.500000
4375, 124612440.000000, 2932.875000, 8178.500000, 8197.000000, 8176.500000
4376, 124612600.000000, 2848.000000, 8177.000000, 8201.000000, 8184.000000
4377, 124612760.000000, 2720.625000, 8181.500000, 8212.000000, 8195.500000
4378, 124612920.000000, 2567.125000, 8206.000000, 8206.500000, 8198.000000
4379, 124613080.000000, 2403.250000, 8228.500000, 8207.000000, 8208.500000
4380, 124613240.000000, 2248.250000, 8246.000000, 8211.000000, 8223.000000
4381, 124613400.000000, 2125.750000, 8243.000000, 8225.000000, 8227.000000
4382, 124613560.000000, 2051.000000, 8201.500000, 8242.000000, 8239.000000
4383, 124613720.000000, 2015.000000, 8157.000000, 8242.000000, 8222.000000
4384, 124613880.000000, 1996.000000, 8129.500000, 8225.500000, 8197.000000
4385, 124614040.000000, 1963.625000, 8129.500000, 8216.500000, 8185.000000
4386, 124614200.000000, 1922.875000, 8136.500000, 8207.500000, 8179.000000
4387, 124614360.000000, 1892.750000, 8148.500000, 8206.500000, 8180.000000
4388, 124614520.000000, 1887.000000, 8156.500000, 8202.000000, 8181.500000
4389, 124614680.000000, 1883.500000, 8171.000000, 8197.500000, 8179.000000
4390, 124614840.000000, 1870.750000, 8170.000000, 8201.000000, 8183.500000
4391, 124615000.000000, 1851.375000, 8180.000000, 8199.500000, 8187.000000
4392, 124615160.000000, 1833.000000, 8163.500000, 8201.000000, 8182.500000
4393, 124615320.000000, 1818.500000, 8175.000000, 8195.500000, 8185.500000
4394, 124615480.000000, 1803.125000, 8187.500000, 8207.500000, 8205.500000
4395, 124615640.000000, 1769.000000, 8194.000000, 8196.500000, 8196.500000
4396, 124615800.000000, 1727.125000, 8182.500000, 8191.000000, 8185.000000
4397, 124615960.000000, 1711.625000, 8170.000000, 8179.000000, 8163.500000
4398, 124616120.000000, 1758.375000, 8183.000000, 8176.500000, 8161.500000
4399, 124616280.000000, 1888.875000, 8183.000000, 8171.500000, 8159.000000
4400, 124616440.000000, 2087.000000, 8179.000000, 8176.500000, 8165.000000
4401, 124616600.000000, 2324.000000, 8180.000000, 8245.000000, 8244.000000
4402, 124616760.000000, 2555.000000, 8470.500000, 8045.000000, 8142.500000
4403, 124616920.000000, 2743.250000, 8050.500000, 8109.000000, 8087.000000
4404, 124617080.000000, 2872.500000, 8121.500000, 8119.500000, 8103.500000
4405, 124617240.000000, 2951.125000, 8175.000000, 8191.000000, 8177.000000
4406, 124617400.000000, 2979.375000, 8182.000000, 8201.000000, 8186.500000
4407, 124617560.000000, 2957.750000, 8186.500000, 8205.500000, 8197.500000
4408, 124617720.000000, 2883.625000, 8203.000000, 8200.000000, 8191.500000
4409, 124617880.000000, 2760.375000, 8221.500000, 8195.500000, 8196.500000
4410, 124618040.000000, 2620.000000, 8242.000000, 8193.500000, 8208.500000
4411, 124618200.000000, 2481.750000, 8272.000000, 8200.500000, 8223.500000
4412, 124618360.000000, 2356.750000, 8273.500000, 8214.500000, 8237.500000
4413, 124618520.000000, 2260.000000, 8240.500000, 8230.000000, 8245.500000
4414, 124618680.000000, 2198.375000, 8206.000000, 8225.000000, 8227.500000
4415, 124618840.000000, 2157.125000, 8174.000000, 8209.000000, 8204.500000
4416, 124619000.000000, 2122.000000, 8167.000000, 8201.500000, 8191.000000
4417, 124619160.000000, 2081.625000, 8170.500000, 8193.000000, 8183.000000
4418, 124619320.000000, 2042.750000, 8179.000000, 8195.000000, 8188.500000
4419, 124619480.000000, 2013.500000, 8165.500000, 8197.500000, 8187.000000
4420, 124619640.000000, 1981.625000, 8169.500000, 8196.000000, 8188.000000
4421, 124619800.000000, 1940.500000, 8182.000000, 8195.500000, 8192.000000
4422, 124619960.000000, 1886.750000, 8185.500000, 8193.000000, 8193.500000
4423, 124620120.000000, 1836.125000, 8187.500000, 8189.500000, 8185.000000
4424, 124620280.000000, 1788.250000, 8188.500000, 8189.000000, 8188.500000
4425, 124620440.000000, 1750.875000, 8201.000000, 8199.000000, 8213.000000
4426, 124620600.000000, 1723.375000, 8211.000000, 8198.500000, 8209.000000
4427, 124620760.000000, 1702.250000, 8201.500000, 8200.500000, 8200.000000
4428, 124620920.000000, 1672.625000, 8169.500000, 8186.000000, 8174.000000
4429, 124621080.000000, 1644.125000, 8169.500000, 8182.000000, 8168.000000
4430, 124621240.000000, 1651.750000, 8169.000000, 8180.000000, 8168.000000
4431, 124621400.000000, 1723.875000, 8188.500000, 8185.500000, 8179.500000
4432, 124621560.000000, 1853.875000, 8186.500000, 8242.000000, 8250.500000
4433, 124621720.000000, 1995.250000, 8461.000000, 8059.000000, 8157.000000
4434, 124621880.000000, 2116.625000, 8102.500000, 8090.500000, 8089.000000
4435, 124622040.000000, 2211.750000, 8148.500000, 8103.000000, 8097.500000
4436, 124622200.000000, 2287.500000, 8215.500000, 8182.000000, 8189.500000
4437, 124622360.000000, 2340.250000, 8219.000000, 8189.000000, 8197.000000
4438, 124622520.000000, 2356.125000, 8240.500000, 8187.500000, 8202.000000
4439, 124622680.000000, 2309.375000, 8248.000000, 8188.000000, 8204.000000
4440, 124622840.000000, 2212.625000, 8262.500000, 8193.000000, 8214.000000
4441, 124623000.000000, 2093.375000, 8274.000000, 8186.500000, 8219.000000
4442, 124623160.000000, 1993.125000, 8302.500000, 8191.000000, 8230.500000
4443, 124623320.000000, 1932.250000, 8321.000000, 8204.000000, 8247.000000
4444, 124623480.000000, 1900.125000, 8286.500000, 8214.500000, 8251.500000
4445, 124623640.000000, 1886.125000, 8240.500000, 8221.500000, 8242.500000
4446, 124623800.000000, 1877.375000, 8200.500000, 8207.500000, 8218.500000
4447, 124623960.000000, 1865.000000, 8194.000000, 8202.000000, 8206.500000
4448, 124624120.000000, 1838.625000, 8189.500000, 8193.000000, 8200.500000
4449, 124624280.000000, 1804.125000, 8189.500000, 8191.000000, 8196.500000
4450, 124624440.000000, 1774.250000, 8192.500000, 8192.000000, 8196.500000
4451, 124624600.000000, 1763.250000, 8202.500000, 8199.000000, 8207.000000
4452, 124624760.000000, 1763.750000, 8196.000000, 8199.000000, 8208.500000
4453, 124624920.000000, 1764.875000, 8203.000000, 8192.500000, 8208.500000
4454, 124625080.000000, 1754.625000, 8191.500000, 8190.000000, 8198.000000
4455, 124625240.000000, 1737.750000, 8192.500000, 8189.500000, 8197.000000
4456, 124625400.000000, 1728.250000, 8197.500000, 8195.500000, 8212.500000
4457, 124625560.000000, 1724.875000, 8198.000000, 8208.000000, 8223.000000
4458, 124625720.000000, 1710.125000, 8206.000000, 8203.500000, 8219.000000
4459, 124625880.000000, 1689.125000, 8200.000000, 8188.500000, 8192.000000
4460, 124626040.000000, 1697.625000, 8187.000000, 8179.000000, 8178.000000
4461, 124626200.000000, 1772.375000, 8187.500000, 8182.000000, 8176.500000
4462, 124626360.000000, 1929.000000, 8188.000000, 8182.000000, 8178.000000
4463, 124626520.000000, 2134.250000, 8186.000000, 8183.500000, 8182.500000
4464, 124626680.000000, 2344.750000, 8225.000000, 8235.000000, 8258.000000
4465, 124626840.000000, 2536.000000, 8475.500000, 8017.500000, 8124.500000
4466, 124627000.000000, 2706.875000, 8063.500000, 8063.000000, 8048.500000
4467, 124627160.000000, 2854.500000, 8172.000000, 8156.000000, 8164.500000
4468, 124627320.000000, 2957.000000, 8196.500000, 8196.000000, 8194.000000
4469, 124627480.000000, 3004.250000, 8197.000000, 8204.000000, 8200.500000
4470, 124627640.000000, 2996.250000, 8215.000000, 8200.000000, 8198.500000
4471, 124627800.000000, 2937.000000, 8230.500000, 8201.000000, 8209.500000
4472, 124627960.000000, 2843.250000, 8248.500000, 8205.000000, 8220.500000
4473, 124628120.000000, 2731.125000, 8261.500000, 8209.000000, 8221.500000
4474, 124628280.000000, 2622.250000, 8269.000000, 8214.000000, 8237.500000
4475, 124628440.000000, 2534.375000, 8271.000000, 8216.500000, 8244.500000
4476, 124628600.000000, 2470.750000, 8247.000000, 8225.000000, 8248.500000
4477, 124628760.000000, 2425.625000, 8197.500000, 8225.500000, 8236.000000
4478, 124628920.000000, 2390.500000, 8164.500000, 8218.500000, 8209.500000
4479, 124629080.000000, 2363.125000, 8146.000000, 8208.500000, 8193.500000
4480, 124629240.000000, 2327.125000, 8166.500000, 8194.500000, 8191.000000
4481, 124629400.000000, 2277.500000, 8173.500000, 8194.500000, 8190.500000
4482, 124629560.000000, 2234.625000, 8177.000000, 8203.000000, 8201.000000
4483, 124629720.000000, 2220.250000, 8173.000000, 8199.000000, 8199.000000
4484, 124629880.000000, 2211.625000, 8171.000000, 8199.500000, 8196.000000
4485, 124630040.000000, 2197.750000, 8177.000000, 8202.500000, 8196.000000
4486, 124630200.000000, 2181.750000, 8181.500000, 8198.500000, 8194.000000
4487, 124630360.000000, 2164.625000, 8182.500000, 8199.500000, 8193.500000
4488, 124630520.000000, 2134.875000, 8177.000000, 8200.000000, 8192.500000
4489, 124630680.000000, 2093.250000, 8155.000000, 8223.000000, 8220.500000
4490, 124630840.000000, 2045.500000, 8155.500000, 8217.500000, 8209.500000
4491, 124631000.000000, 2004.125000, 8163.000000, 8211.000000, 8207.000000
4492, 124631160.000000, 2002.750000, 8144.500000, 8192.000000, 8178.500000
4493, 124631320.000000, 2099.500000, 8153.500000, 8190.000000, 8170.000000
4494, 124631480.000000, 2310.000000, 8152.500000, 8191.500000, 8174.500000
4495, 124631640.000000, 2580.875000, 8160.500000, 8196.500000, 8175.000000
4496, 124631800.000000, 2838.000000, 8161.000000, 8256.500000, 8247.000000
4497, 124631960.000000, 3038.500000, 8476.500000, 8083.000000, 8169.500000
4498, 124632120.000000, 3175.500000, 8092.500000, 8109.000000, 8090.000000
4499, 124632280.000000, 3250.125000, 8115.000000, 8125.500000, 8106.500000
4500, 124632440.000000, 3272.750000, 8173.000000, 8199.500000, 8182.000000
4501, 124632600.000000, 3249.000000, 8177.500000, 8214.000000, 8195.500000
4502, 124632760.000000, 3166.875000, 8175.500000, 8217.500000, 8202.000000
4503, 124632920.000000, 3048.250000, 8202.500000, 8210.000000, 8199.000000
4504, 124633080.000000, 2926.875000, 8227.500000, 8206.500000, 8210.000000
4505, 124633240.000000, 2811.750000, 8246.000000, 8208.000000, 8220.000000
4506, 124633400.000000, 2689.375000, 8265.000000, 8209.500000, 8229.500000
4507, 124633560.000000, 2575.500000, 8275.000000, 8214.000000, 8239.500000
4508, 124633720.000000, 2506.625000, 8269.000000, 8221.000000, 8240.500000
4509, 124633880.000000, 2477.750000, 8217.000000, 8226.000000, 8230.000000
4510, 124634040.000000, 2472.875000, 8169.500000, 8221.000000, 8207.000000
4511, 124634200.000000, 2489.750000, 8158.000000, 8208.000000, 8194.500000
4512, 124634360.000000, 2521.125000, 8156.500000, 8211.000000, 8190.500000
4513, 124634520.000000, 2549.875000, 8142.500000, 8205.500000, 8187.000000
4514, 124634680.000000, 2544.125000, 8143.500000, 8205.000000, 8184.000000
4515, 124634840.000000, 2503.125000, 8145.000000, 8209.500000, 8193.500000
4516, 124635000.000000, 2445.000000, 8156.500000, 8205.000000, 8194.500000
4517, 124635160.000000, 2383.125000, 8153.000000, 8207.500000, 8199.500000
4518, 124635320.000000, 2303.375000, 8148.000000, 8200.500000, 8193.500000
4519, 124635480.000000, 2207.750000, 8153.000000, 8199.500000, 8183.000000
4520, 124635640.000000, 2117.250000, 8146.000000, 8200.000000, 8187.000000
4521, 124635800.000000, 2037.625000, 8155.000000, 8202.000000, 8203.500000
4522, 124635960.000000, 1940.500000, 8164.000000, 8206.500000, 8206.500000
4523, 124636120.000000, 1815.250000, 8175.000000, 8201.500000, 8207.500000
4524, 124636280.000000, 1721.375000, 8157.500000, 8190.000000, 8178.000000
4525, 124636440.000000, 1721.875000, 8149.000000, 8185.500000, 8166.500000
4526, 124636600.000000, 1837.625000, 8153.000000, 8185.500000, 8170.000000
4527, 124636760.000000, 2024.750000, 8159.000000, 8184.500000, 8174.500000
4528, 124636920.000000, 2230.750000, 8144.000000, 8195.000000, 8191.500000
4529, 124637080.000000, 2409.250000, 8252.000000, 8214.000000, 8238.000000
4530, 124637240.000000, 2537.875000, 8415.000000, 8051.000000, 8146.500000
4531, 124637400.000000, 2602.125000, 8066.500000, 8085.500000, 8065.000000
4532, 124637560.000000, 2599.375000, 8159.500000, 8171.000000, 8175.500000
4533, 124637720.000000, 2528.500000, 8178.000000, 8201.000000, 8192.000000
4534, 124637880.000000, 2396.375000, 8182.000000, 8202.000000, 8197.500000
4535, 124638040.000000, 2231.125000, 8198.000000, 8200.000000, 8201.000000
4536, 124638200.000000, 2056.750000, 8211.500000, 8200.000000, 8204.000000
4537, 124638360.000000, 1893.500000, 8223.500000, 8204.500000, 8217.500000
4538, 124638520.000000, 1759.875000, 8258.000000, 8204.500000, 8230.500000
4539, 124638680.000000, 1672.625000, 8274.500000, 8205.000000, 8234.000000
4540, 124638840.000000, 1622.125000, 8254.000000, 8218.000000, 8242.500000
4541, 124639000.000000, 1567.875000, 8212.500000, 8226.000000, 8240.500000
4542, 124639160.000000, 1495.750000, 8170.000000, 8225.000000, 8220.000000
4543, 124639320.000000, 1419.500000, 8151.500000, 8207.500000, 8196.000000
4544, 124639480.000000, 1363.250000, 8156.500000, 8198.500000, 8186.000000
4545, 124639640.000000, 1326.125000, 8147.500000, 8192.500000, 8179.000000
4546, 124639800.000000, 1303.750000, 8135.500000, 8199.000000, 8186.500000
4547, 124639960.000000, 1281.500000, 8130.500000, 8208.000000, 8191.000000
4548, 124640120.000000, 1242.250000, 8143.000000, 8211.000000, 8194.500000
4549, 124640280.000000, 1190.125000, 8155.000000, 8202.000000, 8187.000000
4550, 124640440.000000, 1148.625000, 8155.500000, 8199.000000, 8192.000000
4551, 124640600.000000, 1126.750000, 8164.000000, 8193.000000, 8186.000000
4552, 124640760.000000, 1112.750000, 8169.000000, 8193.000000, 8188.000000
4553, 124640920.000000, 1098.375000, 8166.500000, 8187.500000, 8181.000000
4554, 124641080.000000, 1082.750000, 8157.000000, 8201.500000, 8199.500000
4555, 124641240.000000, 1061.625000, 8160.000000, 8202.000000, 8200.500000
4556, 124641400.000000, 1044.500000, 8174.000000, 8201.000000, 8202.000000
4557, 124641560.000000, 1074.375000, 8154.500000, 8184.000000, 8172.500000
4558, 124641720.000000, 1212.875000, 8151.000000, 8181.000000, 8167.000000
4559, 124641880.000000, 1557.000000, 8158.500000, 8182.000000, 8166.000000
4560, 124642040.000000, 2045.750000, 8167.000000, 8181.500000, 8167.000000
4561, 124642200.000000, 2510.625000, 8167.000000, 8199.000000, 8187.500000
4562, 124642360.000000, 2936.125000, 8280.000000, 8200.500000, 8234.000000
4563, 124642520.000000, 3274.500000, 8373.000000, 8054.500000, 8134.000000
4564, 124642680.000000, 3374.250000, 8071.500000, 8079.500000, 8052.500000
4565, 124642840.000000, 3247.125000, 8162.500000, 8173.500000, 8171.000000
4566, 124643000.000000, 2972.125000, 8186.000000, 8199.000000, 8192.000000
4567, 124643160.000000, 2623.750000, 8179.500000, 8207.000000, 8200.000000
4568, 124643320.000000, 2346.125000, 8197.500000, 8201.000000, 8200.500000
4569, 124643480.000000, 2112.125000, 8205.500000, 8200.000000, 8206.000000
4570, 124643640.000000, 1905.250000, 8242.000000, 8198.500000, 8213.000000
4571, 124643800.000000, 1711.250000, 8276.500000, 8200.000000, 8229.000000
4572, 124643960.000000, 1545.375000, 8278.000000, 8213.500000, 8241.500000
4573, 124644120.000000, 1428.000000, 8258.000000, 8224.000000, 8247.000000
4574, 124644280.000000, 1338.125000, 8212.000000, 8231.000000, 8240.500000
4575, 124644440.000000, 1247.750000, 8176.500000, 8223.500000, 8220.500000
4576, 124644600.000000, 1151.000000, 8163.000000, 8206.500000, 8198.500000
4577, 124644760.000000, 1059.625000, 8155.500000, 8202.000000, 8187.000000
4578, 124644920.000000, 985.500000, 8148.000000, 8199.500000, 8183.500000
4579, 124645080.000000, 922.000000, 8144.000000, 8200.000000, 8185.500000
4580, 124645240.000000, 848.250000, 8150.000000, 8199.500000, 8187.000000
4581, 124645400.000000, 757.875000, 8166.500000, 8203.000000, 8194.500000
4582, 124645560.000000, 678.500000, 8172.500000, 8205.000000, 8195.500000
4583, 124645720.000000, 629.500000, 8158.000000, 8203.000000, 8195.500000
4584, 124645880.000000, 608.750000, 8147.500000, 8198.500000, 8188.000000
4585, 124646040.000000, 592.000000, 8155.500000, 8189.500000, 8182.500000
4586, 124646200.000000, 570.125000, 8157.000000, 8189.500000, 8181.500000
4587, 124646360.000000, 557.000000, 8171.500000, 8198.000000, 8201.500000
4588, 124646520.000000, 581.750000, 8170.500000, 8204.000000, 8206.000000
4589, 124646680.000000, 678.125000, 8173.000000, 8205.000000, 8206.500000
4590, 124646840.000000, 866.125000, 8162.500000, 8184.000000, 8174.000000
4591, 124647000.000000, 1142.125000, 8167.500000, 8183.500000, 8170.500000
4592, 124647160.000000, 1461.625000, 8166.000000, 8184.500000, 8175.500000
4593, 124647320.000000, 1767.750000, 8159.000000, 8187.500000, 8173.000000
4594, 124647480.000000, 2018.000000, 8161.000000, 8191.500000, 8179.000000
4595, 124647640.000000, 2185.750000, 8232.500000, 8226.000000, 8248.000000
4596, 124647800.000000, 2264.750000, 8438.000000, 8044.500000, 8146.500000
4597, 124647960.000000, 2261.500000, 8051.000000, 8083.000000, 8059.000000
4598, 124648120.000000, 2185.750000, 8153.500000, 8173.000000, 8168.500000
4599, 124648280.000000, 2066.125000, 8189.000000, 8196.000000, 8190.500000
4600, 124648440.000000, 1928.125000, 8201.500000, 8194.500000, 8195.500000
4601, 124648600.000000, 1791.875000, 8205.500000, 8199.000000, 8196.500000
4602, 124648760.000000, 1675.250000, 8216.000000, 8203.000000, 8210.000000
4603, 124648920.000000, 1593.625000, 8241.500000, 8199.500000, 8216.500000
4604, 124649080.000000, 1539.375000, 8269.000000, 8198.000000, 8222.500000
4605, 124649240.000000, 1506.875000, 8281.500000, 8198.500000, 8234.000000
4606, 124649400.000000, 1481.250000, 8286.500000, 8213.500000, 8245.500000
4607, 124649560.000000, 1448.375000, 8240.000000, 8220.000000, 8242.000000
4608, 124649720.000000, 1407.250000, 8200.000000, 8219.000000, 8224.000000
