1219, 8698104.000000, 2724.375000, 8169.500000, 8175.000000, 8165.500000
1220, 8698264.000000, 2565.375000, 8174.500000, 8164.000000, 8154.500000
1221, 8698424.000000, 2387.750000, 8177.500000, 8164.000000, 8154.500000
1222, 8698584.000000, 2226.375000, 8164.500000, 8165.000000, 8151.000000
1223, 8698744.000000, 2068.000000, 8166.000000, 8167.000000, 8155.000000
1224, 8698904.000000, 1906.375000, 8167.500000, 8167.500000, 8155.500000
1225, 8699064.000000, 1761.625000, 8162.500000, 8232.500000, 8231.000000
1226, 8699224.000000, 1685.125000, 8567.000000, 8120.500000, 8309.500000
1227, 8699384.000000, 1679.250000, 8088.500000, 8006.000000, 7992.000000
1228, 8699544.000000, 1718.750000, 8061.000000, 8087.000000, 7988.000000
1229, 8699704.000000, 1755.625000, 8153.500000, 8211.000000, 8187.500000
1230, 8699864.000000, 1763.125000, 8178.500000, 8226.500000, 8223.000000
1231, 8700024.000000, 1733.125000, 8189.500000, 8233.500000, 8237.000000
1232, 8700184.000000, 1673.750000, 8194.000000, 8241.500000, 8247.500000
1233, 8700344.000000, 1593.250000, 8202.000000, 8251.000000, 8261.000000
1234, 8700504.000000, 1506.625000, 8211.000000, 8264.500000, 8280.000000
1235, 8700664.000000, 1429.500000, 8224.000000, 8285.500000, 8308.000000
1236, 8700824.000000, 1372.500000, 8236.500000, 8312.500000, 8341.000000
1237, 8700984.000000, 1330.750000, 8248.000000, 8336.500000, 8370.500000
1238, 8701144.000000, 1298.875000, 8253.000000, 8341.000000, 8377.000000
1239, 8701304.000000, 1274.125000, 8247.500000, 8322.000000, 8355.000000
1240, 8701464.000000, 1256.750000, 8225.000000, 8268.500000, 8292.500000
1241, 8701624.000000, 1243.625000, 8187.500000, 8207.500000, 8211.500000
1242, 8701784.000000, 1233.500000, 8160.500000, 8169.000000, 8159.000000
1243, 8701944.000000, 1223.500000, 8155.000000, 8158.000000, 8143.000000
1244, 8702104.000000, 1213.500000, 8155.000000, 8158.000000, 8143.000000
1245, 8702264.000000, 1204.375000, 8160.000000, 8160.000000, 8148.000000
1246, 8702424.000000, 1198.250000, 8163.500000, 8160.500000, 8150.000000
1247, 8702584.000000, 1190.500000, 8167.000000, 8159.000000, 8150.000000
1248, 8702744.000000, 1176.625000, 8165.500000, 8156.000000, 8145.500000
1249, 8702904.000000, 1153.125000, 8164.000000, 8153.500000, 8140.500000
1250, 8703064.000000, 1171.000000, 8164.000000, 8152.000000, 8139.000000
1251, 8703224.000000, 1330.125000, 8162.500000, 8152.000000, 8137.500000
1252, 8703384.000000, 1732.000000, 8162.500000, 8152.000000, 8137.500000
1253, 8703544.000000, 2264.875000, 8162.500000, 8152.500000, 8137.000000
1254, 8703704.000000, 2742.375000, 8162.000000, 8154.000000, 8139.000000
1255, 8703864.000000, 3002.625000, 8163.000000, 8155.000000, 8139.000000
1256, 8704024.000000, 3034.125000, 8165.000000, 8158.000000, 8143.500000
1257, 8704184.000000, 2910.875000, 8161.000000, 8156.000000, 8140.500000
1258, 8704344.000000, 2734.375000, 8171.500000, 8174.000000, 8165.500000
1259, 8704504.000000, 2542.375000, 8175.000000, 8162.500000, 8150.500000
1260, 8704664.000000, 2388.500000, 8176.000000, 8162.500000, 8149.500000
1261, 8704824.000000, 2216.250000, 8164.500000, 8161.500000, 8144.500000
1262, 8704984.000000, 2019.875000, 8165.500000, 8164.000000, 8149.500000
1263, 8705144.000000, 1869.750000, 8168.000000, 8165.000000, 8152.000000
1264, 8705304.000000, 1846.250000, 8162.500000, 8228.000000, 8227.500000
1265, 8705464.000000, 1879.375000, 8560.000000, 8119.500000, 8303.500000
1266, 8705624.000000, 1898.500000, 8106.500000, 7973.500000, 7961.500000
1267, 8705784.000000, 1875.750000, 8061.000000, 8079.500000, 7975.500000
1268, 8705944.000000, 1816.750000, 8155.500000, 8214.500000, 8192.500000
1269, 8706104.000000, 1733.375000, 8179.000000, 8229.000000, 8226.000000
1270, 8706264.000000, 1643.875000, 8190.000000, 8233.500000, 8237.000000
1271, 8706424.000000, 1560.875000, 8195.500000, 8242.500000, 8248.000000
1272, 8706584.000000, 1495.750000, 8202.500000, 8252.500000, 8261.500000
1273, 8706744.000000, 1448.125000, 8211.500000, 8266.500000, 8281.500000
1274, 8706904.000000, 1410.125000, 8223.500000, 8286.000000, 8308.000000
1275, 8707064.000000, 1379.500000, 8237.500000, 8311.500000, 8341.000000
1276, 8707224.000000, 1351.625000, 8249.500000, 8336.000000, 8371.500000
1277, 8707384.000000, 1330.000000, 8252.500000, 8342.500000, 8378.000000
1278, 8707544.000000, 1311.750000, 8245.500000, 8326.000000, 8358.500000
1279, 8707704.000000, 1296.750000, 8225.500000, 8271.000000, 8294.000000
1280, 8707864.000000, 1285.500000, 8191.000000, 8206.000000, 8211.500000
1281, 8708024.000000, 1277.375000, 8164.500000, 8167.500000, 8156.500000
1282, 8708184.000000, 1268.500000, 8155.500000, 8156.500000, 8140.500000
1283, 8708344.000000, 1261.250000, 8156.500000, 8156.000000, 8141.500000
1284, 8708504.000000, 1252.500000, 8161.000000, 8158.000000, 8145.000000
1285, 8708664.000000, 1235.250000, 8164.000000, 8158.000000, 8147.000000
1286, 8708824.000000, 1199.625000, 8167.000000, 8157.000000, 8146.000000
1287, 8708984.000000, 1171.750000, 8168.000000, 8155.000000, 8146.000000
1288, 8709144.000000, 1240.875000, 8165.500000, 8152.000000, 8139.500000
1289, 8709304.000000, 1538.125000, 8164.500000, 8150.000000, 8136.000000
1290, 8709464.000000, 2050.250000, 8163.500000, 8149.000000, 8133.500000
1291, 8709624.000000, 2603.000000, 8163.000000, 8150.000000, 8134.000000
1292, 8709784.000000, 2971.125000, 8164.000000, 8151.000000, 8136.000000
1293, 8709944.000000, 3102.250000, 8165.000000, 8152.000000, 8137.000000
1294, 8710104.000000, 3030.750000, 8164.500000, 8153.000000, 8137.000000
1295, 8710264.000000, 2871.625000, 8166.500000, 8154.000000, 8138.500000
1296, 8710424.000000, 2712.000000, 8169.000000, 8157.000000, 8143.000000
1297, 8710584.000000, 2584.000000, 8169.000000, 8158.000000, 8145.000000
1298, 8710744.000000, 2462.125000, 8170.500000, 8164.000000, 8156.000000
1299, 8710904.000000, 2317.875000, 8173.500000, 8169.000000, 8151.000000
1300, 8711064.000000, 2149.625000, 8183.000000, 8162.000000, 8151.000000
1301, 8711224.000000, 2009.875000, 8176.500000, 8163.500000, 8152.500000
1302, 8711384.000000, 1934.000000, 8171.500000, 8162.000000, 8149.500000
1303, 8711544.000000, 1917.000000, 8174.000000, 8164.000000, 8153.000000
1304, 8711704.000000, 1921.625000, 8171.500000, 8168.500000, 8157.500000
1305, 8711864.000000, 1912.750000, 8278.500000, 8249.000000, 8291.500000
1306, 8712024.000000, 1874.375000, 8534.000000, 7987.500000, 8171.500000
1307, 8712184.000000, 1807.750000, 8043.000000, 8025.000000, 7941.000000
1308, 8712344.000000, 1720.125000, 8109.500000, 8158.500000, 8086.000000
1309, 8712504.000000, 1627.625000, 8177.000000, 8222.000000, 8214.500000
1310, 8712664.000000, 1544.125000, 8189.500000, 8228.500000, 8230.000000
1311, 8712824.000000, 1477.125000, 8197.000000, 8234.500000, 8240.500000
1312, 8712984.000000, 1423.875000, 8204.000000, 8243.500000, 8251.500000
1313, 8713144.000000, 1380.000000, 8213.500000, 8254.500000, 8267.500000
1314, 8713304.000000, 1347.875000, 8222.500000, 8269.500000, 8288.500000
1315, 8713464.000000, 1323.125000, 8236.500000, 8290.500000, 8315.500000
1316, 8713624.000000, 1302.375000, 8249.000000, 8316.000000, 8349.000000
1317, 8713784.000000, 1285.750000, 8260.000000, 8330.500000, 8366.500000
1318, 8713944.000000, 1273.125000, 8259.000000, 8326.500000, 8360.500000
1319, 8714104.000000, 1259.625000, 8250.000000, 8297.500000, 8327.000000
1320, 8714264.000000, 1247.750000, 8219.000000, 8238.500000, 8255.500000
1321, 8714424.000000, 1235.500000, 8184.000000, 8184.000000, 8182.000000
1322, 8714584.000000, 1225.500000, 8166.000000, 8159.500000, 8147.500000
1323, 8714744.000000, 1216.375000, 8162.500000, 8154.000000, 8139.500000
1324, 8714904.000000, 1211.250000, 8165.000000, 8155.500000, 8142.500000
1325, 8715064.000000, 1204.500000, 8169.000000, 8156.000000, 8146.000000
1326, 8715224.000000, 1189.250000, 8172.500000, 8155.500000, 8146.000000
1327, 8715384.000000, 1156.875000, 8172.000000, 8153.500000, 8143.500000
1328, 8715544.000000, 1150.250000, 8171.000000, 8150.500000, 8139.500000
1329, 8715704.000000, 1280.250000, 8171.000000, 8148.500000, 8135.500000
1330, 8715864.000000, 1657.000000, 8171.000000, 8147.000000, 8134.000000
1331, 8716024.000000, 2198.625000, 8169.500000, 8148.500000, 8135.000000
1332, 8716184.000000, 2698.625000, 8169.500000, 8149.000000, 8135.500000
1333, 8716344.000000, 2998.125000, 8172.500000, 8149.000000, 8136.500000
1334, 8716504.000000, 3046.625000, 8171.000000, 8150.000000, 8137.000000
1335, 8716664.000000, 2926.000000, 8172.500000, 8151.500000, 8138.000000
1336, 8716824.000000, 2748.750000, 8173.500000, 8155.000000, 8143.000000
1337, 8716984.000000, 2587.500000, 8172.000000, 8157.000000, 8144.000000
1338, 8717144.000000, 2458.250000, 8170.000000, 8154.000000, 8139.000000
1339, 8717304.000000, 2327.000000, 8178.500000, 8165.500000, 8147.000000
1340, 8717464.000000, 2166.875000, 8187.000000, 8161.500000, 8152.500000
1341, 8717624.000000, 2012.875000, 8186.500000, 8165.500000, 8160.000000
1342, 8717784.000000, 1917.125000, 8175.000000, 8163.000000, 8152.000000
1343, 8717944.000000, 1893.125000, 8176.500000, 8164.000000, 8154.000000
1344, 8718104.000000, 1909.000000, 8180.000000, 8166.000000, 8159.000000
1345, 8718264.000000, 1921.750000, 8194.500000, 8243.000000, 8250.500000
1346, 8718424.000000, 1900.625000, 8604.500000, 8121.000000, 8318.000000
1347, 8718584.000000, 1838.875000, 8057.500000, 8095.500000, 8071.000000
1348, 8718744.000000, 1745.625000, 8085.000000, 8110.000000, 8026.000000
1349, 8718904.000000, 1639.375000, 8164.500000, 8196.500000, 8173.500000
1350, 8719064.000000, 1529.875000, 8190.000000, 8214.500000, 8212.500000
1351, 8719224.000000, 1429.750000, 8200.500000, 8220.500000, 8225.000000
1352, 8719384.000000, 1347.500000, 8208.000000, 8227.500000, 8237.000000
1353, 8719544.000000, 1288.500000, 8214.500000, 8235.500000, 8247.500000
1354, 8719704.000000, 1253.625000, 8224.500000, 8247.500000, 8264.000000
1355, 8719864.000000, 1234.750000, 8235.500000, 8264.500000, 8285.500000
1356, 8720024.000000, 1228.625000, 8250.500000, 8285.500000, 8313.500000
1357, 8720184.000000, 1228.875000, 8262.500000, 8300.500000, 8333.500000
1358, 8720344.000000, 1238.250000, 8263.500000, 8300.500000, 8333.000000
1359, 8720504.000000, 1252.375000, 8258.000000, 8283.500000, 8311.500000
1360, 8720664.000000, 1263.125000, 8228.000000, 8249.000000, 8267.000000
1361, 8720824.000000, 1267.875000, 8189.500000, 8207.000000, 8210.500000
1362, 8720984.000000, 1266.250000, 8162.500000, 8176.000000, 8166.000000
1363, 8721144.000000, 1258.500000, 8156.000000, 8164.500000, 8151.500000
1364, 8721304.000000, 1248.500000, 8159.000000, 8164.000000, 8151.000000
1365, 8721464.000000, 1235.750000, 8162.000000, 8166.500000, 8155.500000
1366, 8721624.000000, 1216.250000, 8166.500000, 8166.000000, 8156.500000
1367, 8721784.000000, 1184.750000, 8168.000000, 8164.000000, 8155.000000
1368, 8721944.000000, 1150.375000, 8166.000000, 8161.500000, 8150.500000
1369, 8722104.000000, 1164.625000, 8163.500000, 8159.000000, 8145.500000
1370, 8722264.000000, 1357.375000, 8162.000000, 8158.500000, 8145.500000
1371, 8722424.000000, 1765.000000, 8160.500000, 8158.000000, 8142.500000
1372, 8722584.000000, 2287.875000, 8161.000000, 8158.000000, 8143.000000
1373, 8722744.000000, 2714.750000, 8162.000000, 8158.000000, 8143.000000
1374, 8722904.000000, 2910.750000, 8162.000000, 8159.000000, 8144.000000
1375, 8723064.000000, 2880.875000, 8163.000000, 8161.000000, 8147.000000
1376, 8723224.000000, 2718.375000, 8163.000000, 8164.000000, 8150.000000
1377, 8723384.000000, 2518.000000, 8159.000000, 8161.500000, 8145.000000
1378, 8723544.000000, 2336.500000, 8169.500000, 8175.000000, 8158.500000
1379, 8723704.000000, 2171.250000, 8174.000000, 8166.000000, 8153.000000
1380, 8723864.000000, 1996.750000, 8176.000000, 8167.500000, 8156.500000
1381, 8724024.000000, 1834.375000, 8164.000000, 8167.000000, 8151.500000
1382, 8724184.000000, 1731.750000, 8166.000000, 8168.000000, 8155.000000
1383, 8724344.000000, 1715.375000, 8170.000000, 8169.000000, 8158.000000
1384, 8724504.000000, 1750.750000, 8178.500000, 8248.000000, 8252.000000
1385, 8724664.000000, 1793.125000, 8603.000000, 8109.000000, 8313.000000
1386, 8724824.000000, 1807.875000, 8051.500000, 8046.000000, 8009.500000
1387, 8724984.000000, 1782.875000, 8076.000000, 8111.000000, 8019.000000
1388, 8725144.000000, 1725.125000, 8161.500000, 8212.000000, 8194.000000
1389, 8725304.000000, 1645.250000, 8182.500000, 8224.500000, 8222.500000
1390, 8725464.000000, 1560.625000, 8191.000000, 8230.500000, 8234.500000
1391, 8725624.000000, 1483.625000, 8198.000000, 8239.500000, 8246.500000
1392, 8725784.000000, 1421.750000, 8205.000000, 8249.000000, 8260.500000
1393, 8725944.000000, 1372.250000, 8215.500000, 8263.500000, 8280.000000
1394, 8726104.000000, 1335.125000, 8228.500000, 8283.000000, 8306.000000
1395, 8726264.000000, 1304.500000, 8242.500000, 8309.000000, 8339.500000
1396, 8726424.000000, 1278.250000, 8255.000000, 8328.500000, 8364.500000
1397, 8726584.000000, 1255.000000, 8256.500000, 8329.500000, 8364.500000
1398, 8726744.000000, 1239.500000, 8249.500000, 8307.000000, 8337.500000
1399, 8726904.000000, 1231.375000, 8220.500000, 8257.000000, 8276.000000
1400, 8727064.000000, 1226.250000, 8184.000000, 8204.000000, 8206.500000
1401, 8727224.000000, 1222.125000, 8159.500000, 8169.500000, 8157.500000
1402, 8727384.000000, 1219.250000, 8154.000000, 8160.000000, 8144.000000
1403, 8727544.000000, 1213.375000, 8157.500000, 8161.000000, 8147.500000
1404, 8727704.000000, 1201.750000, 8162.000000, 8163.000000, 8152.000000
1405, 8727864.000000, 1180.375000, 8165.000000, 8163.000000, 8152.500000
1406, 8728024.000000, 1142.875000, 8165.500000, 8161.000000, 8150.500000
1407, 8728184.000000, 1099.000000, 8166.000000, 8158.000000, 8148.000000
1408, 8728344.000000, 1105.125000, 8164.500000, 8155.000000, 8143.000000
1409, 8728504.000000, 1280.625000, 8163.500000, 8154.000000, 8140.500000
1410, 8728664.000000, 1696.375000, 8164.000000, 8153.500000, 8138.500000
1411, 8728824.000000, 2240.500000, 8163.000000, 8155.000000, 8141.000000
1412, 8728984.000000, 2697.750000, 8161.500000, 8156.000000, 8140.000000
1413, 8729144.000000, 2941.000000, 8163.000000, 8156.000000, 8140.000000
1414, 8729304.000000, 2950.250000, 8163.500000, 8157.000000, 8141.500000
1415, 8729464.000000, 2818.125000, 8164.000000, 8158.500000, 8143.000000
1416, 8729624.000000, 2646.875000, 8164.500000, 8160.000000, 8146.000000
1417, 8729784.000000, 2492.250000, 8163.000000, 8159.500000, 8145.500000
1418, 8729944.000000, 2357.750000, 8173.000000, 8176.000000, 8167.000000
1419, 8730104.000000, 2217.375000, 8176.000000, 8165.000000, 8153.500000
1420, 8730264.000000, 2057.750000, 8179.500000, 8166.000000, 8155.000000
1421, 8730424.000000, 1923.625000, 8167.000000, 8165.000000, 8150.000000
1422, 8730584.000000, 1854.875000, 8168.000000, 8166.500000, 8153.500000
1423, 8730744.000000, 1853.125000, 8171.000000, 8167.000000, 8156.000000
1424, 8730904.000000, 1880.375000, 8163.500000, 8232.500000, 8233.500000
1425, 8731064.000000, 1891.875000, 8568.000000, 8120.000000, 8308.000000
1426, 8731224.000000, 1865.875000, 8104.000000, 7989.000000, 7978.500000
1427, 8731384.000000, 1803.625000, 8063.000000, 8082.500000, 7981.000000
1428, 8731544.000000, 1716.125000, 8156.000000, 8213.500000, 8191.500000
1429, 8731704.000000, 1621.750000, 8181.500000, 8230.500000, 8229.500000
1430, 8731864.000000, 1533.000000, 8189.000000, 8236.000000, 8239.000000
1431, 8732024.000000, 1461.250000, 8196.000000, 8244.500000, 8250.500000
1432, 8732184.000000, 1406.625000, 8203.500000, 8253.500000, 8264.000000
1433, 8732344.000000, 1366.875000, 8213.500000, 8267.500000, 8283.000000
1434, 8732504.000000, 1334.875000, 8224.500000, 8289.000000, 8311.500000
1435, 8732664.000000, 1308.250000, 8237.500000, 8314.000000, 8343.500000
1436, 8732824.000000, 1286.000000, 8251.000000, 8338.000000, 8374.500000
1437, 8732984.000000, 1266.000000, 8255.500000, 8343.000000, 8380.500000
1438, 8733144.000000, 1250.125000, 8251.000000, 8328.000000, 8362.500000
1439, 8733304.000000, 1236.750000, 8227.500000, 8274.500000, 8297.500000
1440, 8733464.000000, 1225.875000, 8193.000000, 8210.500000, 8217.000000
1441, 8733624.000000, 1220.250000, 8166.000000, 8169.500000, 8160.500000
1442, 8733784.000000, 1215.250000, 8156.000000, 8155.500000, 8140.500000
1443, 8733944.000000, 1213.000000, 8158.500000, 8156.000000, 8141.000000
1444, 8734104.000000, 1207.875000, 8162.500000, 8158.000000, 8145.500000
1445, 8734264.000000, 1196.750000, 8165.000000, 8159.500000, 8148.500000
1446, 8734424.000000, 1170.375000, 8167.000000, 8159.000000, 8148.000000
1447, 8734584.000000, 1128.250000, 8167.500000, 8155.500000, 8144.500000
1448, 8734744.000000, 1124.500000, 8167.000000, 8152.000000, 8139.000000
1449, 8734904.000000, 1277.750000, 8167.000000, 8151.000000, 8138.000000
1450, 8735064.000000, 1679.375000, 8163.000000, 8151.500000, 8135.500000
1451, 8735224.000000, 2237.125000, 8163.000000, 8152.500000, 8136.500000
1452, 8735384.000000, 2730.750000, 8165.000000, 8152.500000, 8137.500000
1453, 8735544.000000, 3015.000000, 8165.500000, 8153.000000, 8138.500000
1454, 8735704.000000, 3050.875000, 8168.000000, 8155.000000, 8142.000000
1455, 8735864.000000, 2929.750000, 8168.000000, 8156.500000, 8143.500000
1456, 8736024.000000, 2758.875000, 8170.000000, 8159.000000, 8146.000000
1457, 8736184.000000, 2606.000000, 8170.500000, 8159.000000, 8147.000000
1458, 8736344.000000, 2484.750000, 8173.000000, 8159.500000, 8148.500000
1459, 8736504.000000, 2363.500000, 8174.000000, 8161.000000, 8152.500000
1460, 8736664.000000, 2211.000000, 8177.500000, 8173.500000, 8171.000000
1461, 8736824.000000, 2056.250000, 8177.500000, 8172.000000, 8159.500000
1462, 8736984.000000, 1943.750000, 8187.000000, 8166.000000, 8159.000000
1463, 8737144.000000, 1901.000000, 8176.500000, 8164.500000, 8154.500000
1464, 8737304.000000, 1902.875000, 8176.000000, 8166.500000, 8157.500000
1465, 8737464.000000, 1912.625000, 8175.500000, 8169.500000, 8160.000000
1466, 8737624.000000, 1900.750000, 8167.000000, 8189.000000, 8184.500000
1467, 8737784.000000, 1853.000000, 8396.000000, 8212.500000, 8312.500000
1468, 8737944.000000, 1773.500000, 8393.000000, 7953.000000, 8080.000000
1469, 8738104.000000, 1677.000000, 8046.500000, 8037.500000, 7938.500000
1470, 8738264.000000, 1579.500000, 8131.500000, 8188.000000, 8138.000000
1471, 8738424.000000, 1496.875000, 8178.000000, 8230.000000, 8225.000000
1472, 8738584.000000, 1431.750000, 8189.500000, 8236.000000, 8238.500000
1473, 8738744.000000, 1382.250000, 8196.000000, 8241.500000, 8247.500000
1474, 8738904.000000, 1347.500000, 8203.500000, 8250.500000, 8259.000000
1475, 8739064.000000, 1319.375000, 8211.000000, 8265.000000, 8279.000000
1476, 8739224.000000, 1294.625000, 8222.000000, 8282.500000, 8302.500000
1477, 8739384.000000, 1271.250000, 8235.000000, 8306.000000, 8333.500000
1478, 8739544.000000, 1250.000000, 8248.500000, 8330.000000, 8364.500000
1479, 8739704.000000, 1230.875000, 8257.000000, 8342.500000, 8381.000000
1480, 8739864.000000, 1216.125000, 8254.500000, 8337.500000, 8374.000000
1481, 8740024.000000, 1204.625000, 8240.000000, 8298.000000, 8326.000000
1482, 8740184.000000, 1193.500000, 8209.500000, 8234.500000, 8247.500000
1483, 8740344.000000, 1183.500000, 8177.500000, 8179.000000, 8174.500000
1484, 8740504.000000, 1170.125000, 8163.000000, 8157.000000, 8144.000000
1485, 8740664.000000, 1159.500000, 8160.000000, 8155.500000, 8139.500000
1486, 8740824.000000, 1149.875000, 8164.500000, 8157.000000, 8143.000000
1487, 8740984.000000, 1139.625000, 8166.000000, 8157.000000, 8145.000000
1488, 8741144.000000, 1125.250000, 8169.000000, 8155.000000, 8141.000000
1489, 8741304.000000, 1092.875000, 8170.500000, 8154.000000, 8142.000000
1490, 8741464.000000, 1069.375000, 8171.000000, 8151.000000, 8140.000000
1491, 8741624.000000, 1135.375000, 8168.000000, 8149.500000, 8135.000000
1492, 8741784.000000, 1438.375000, 8169.500000, 8147.500000, 8133.000000
1493, 8741944.000000, 1944.875000, 8170.000000, 8147.000000, 8132.000000
1494, 8742104.000000, 2503.625000, 8171.000000, 8147.500000, 8132.500000
1495, 8742264.000000, 2890.875000, 8169.500000, 8150.000000, 8135.500000
1496, 8742424.000000, 3033.750000, 8169.500000, 8151.000000, 8135.500000
1497, 8742584.000000, 2966.875000, 8172.000000, 8152.000000, 8138.000000
1498, 8742744.000000, 2802.000000, 8171.500000, 8153.000000, 8137.500000
1499, 8742904.000000, 2631.000000, 8174.500000, 8154.500000, 8142.000000
1500, 8743064.000000, 2496.000000, 8174.500000, 8157.500000, 8145.000000
1501, 8743224.000000, 2375.250000, 8174.500000, 8157.500000, 8145.000000
1502, 8743384.000000, 2233.375000, 8178.000000, 8165.000000, 8156.000000
1503, 8743544.000000, 2073.000000, 8184.000000, 8167.500000, 8155.500000
1504, 8743704.000000, 1938.000000, 8189.000000, 8161.500000, 8152.500000
1505, 8743864.000000, 1869.250000, 8179.000000, 8162.500000, 8151.000000
1506, 8744024.000000, 1861.500000, 8177.500000, 8164.500000, 8154.000000
1507, 8744184.000000, 1872.500000, 8179.000000, 8165.500000, 8156.000000
1508, 8744344.000000, 1862.250000, 8171.500000, 8198.000000, 8193.500000
1509, 8744504.000000, 1818.875000, 8485.000000, 8188.500000, 8319.000000
1510, 8744664.000000, 1742.500000, 8220.000000, 8094.000000, 8146.500000
1511, 8744824.000000, 1648.750000, 8065.000000, 8094.500000, 8021.000000
1512, 8744984.000000, 1553.125000, 8129.000000, 8166.500000, 8107.000000
1513, 8745144.000000, 1467.000000, 8186.000000, 8208.000000, 8201.500000
1514, 8745304.000000, 1399.375000, 8195.500000, 8215.000000, 8216.500000
1515, 8745464.000000, 1351.125000, 8205.000000, 8221.000000, 8227.000000
1516, 8745624.000000, 1316.875000, 8212.500000, 8228.500000, 8238.000000
1517, 8745784.000000, 1287.500000, 8223.000000, 8237.500000, 8251.500000
1518, 8745944.000000, 1257.500000, 8233.000000, 8251.500000, 8269.500000
1519, 8746104.000000, 1226.500000, 8247.500000, 8270.500000, 8295.500000
1520, 8746264.000000, 1196.875000, 8262.000000, 8289.000000, 8319.000000
1521, 8746424.000000, 1171.125000, 8271.500000, 8296.500000, 8329.500000
1522, 8746584.000000, 1150.375000, 8270.000000, 8289.000000, 8320.000000
1523, 8746744.000000, 1135.625000, 8252.000000, 8264.000000, 8289.000000
1524, 8746904.000000, 1125.500000, 8213.000000, 8223.500000, 8236.500000
1525, 8747064.000000, 1116.375000, 8174.000000, 8185.000000, 8179.500000
1526, 8747224.000000, 1111.250000, 8158.000000, 8165.500000, 8152.500000
1527, 8747384.000000, 1109.000000, 8158.000000, 8161.000000, 8146.000000
1528, 8747544.000000, 1104.875000, 8163.000000, 8161.000000, 8149.000000
1529, 8747704.000000, 1094.625000, 8166.500000, 8163.000000, 8151.500000
1530, 8747864.000000, 1075.250000, 8169.000000, 8164.000000, 8154.000000
1531, 8748024.000000, 1043.000000, 8167.000000, 8163.000000, 8150.000000
1532, 8748184.000000, 999.750000, 8165.500000, 8159.500000, 8147.000000
1533, 8748344.000000, 1011.000000, 8164.000000, 8157.000000, 8142.000000
1534, 8748504.000000, 1190.125000, 8161.500000, 8156.500000, 8140.500000
1535, 8748664.000000, 1606.375000, 8162.000000, 8158.000000, 8141.500000
1536, 8748824.000000, 2140.250000, 8160.500000, 8158.000000, 8140.500000
1537, 8748984.000000, 2592.250000, 8160.500000, 8159.000000, 8141.500000
1538, 8749144.000000, 2814.750000, 8162.000000, 8158.000000, 8141.500000
1539, 8749304.000000, 2817.250000, 8163.000000, 8160.000000, 8144.000000
1540, 8749464.000000, 2669.875000, 8162.000000, 8163.000000, 8146.000000
1541, 8749624.000000, 2474.875000, 8161.500000, 8162.500000, 8146.500000
1542, 8749784.000000, 2291.500000, 8169.500000, 8172.500000, 8159.000000
1543, 8749944.000000, 2124.250000, 8173.500000, 8169.500000, 8157.500000
1544, 8750104.000000, 1956.875000, 8177.000000, 8167.500000, 8156.500000
1545, 8750264.000000, 1796.625000, 8166.000000, 8168.000000, 8152.000000
1546, 8750424.000000, 1690.625000, 8168.500000, 8169.000000, 8156.500000
1547, 8750584.000000, 1659.250000, 8168.000000, 8170.000000, 8157.500000
1548, 8750744.000000, 1689.750000, 8162.000000, 8227.000000, 8223.500000
1549, 8750904.000000, 1732.125000, 8552.000000, 8147.500000, 8320.500000
1550, 8751064.000000, 1754.375000, 8103.500000, 8076.500000, 8079.500000
1551, 8751224.000000, 1738.500000, 8062.000000, 8093.000000, 8005.000000
1552, 8751384.000000, 1685.125000, 8137.000000, 8188.500000, 8146.000000
1553, 8751544.000000, 1604.375000, 8178.500000, 8218.500000, 8213.000000
1554, 8751704.000000, 1511.750000, 8189.500000, 8223.500000, 8225.000000
1555, 8751864.000000, 1423.125000, 8196.500000, 8232.500000, 8237.500000
1556, 8752024.000000, 1351.250000, 8205.500000, 8240.500000, 8250.500000
1557, 8752184.000000, 1292.625000, 8214.500000, 8251.500000, 8266.500000
1558, 8752344.000000, 1246.000000, 8225.500000, 8269.000000, 8288.500000
1559, 8752504.000000, 1211.500000, 8242.500000, 8293.500000, 8322.000000
1560, 8752664.000000, 1187.000000, 8255.500000, 8314.000000, 8347.500000
1561, 8752824.000000, 1169.750000, 8259.500000, 8318.500000, 8351.500000
1562, 8752984.000000, 1160.875000, 8256.000000, 8304.500000, 8334.500000
1563, 8753144.000000, 1157.125000, 8233.000000, 8265.500000, 8287.000000
1564, 8753304.000000, 1153.250000, 8193.500000, 8214.500000, 8221.500000
1565, 8753464.000000, 1145.500000, 8161.500000, 8176.500000, 8166.500000
1566, 8753624.000000, 1133.875000, 8152.500000, 8161.500000, 8145.500000
1567, 8753784.000000, 1127.250000, 8152.500000, 8159.000000, 8143.000000
1568, 8753944.000000, 1122.875000, 8157.500000, 8162.000000, 8146.500000
1569, 8754104.000000, 1114.500000, 8161.500000, 8162.500000, 8149.500000
1570, 8754264.000000, 1098.250000, 8164.000000, 8163.000000, 8152.000000
1571, 8754424.000000, 1066.875000, 8164.000000, 8160.000000, 8149.000000
1572, 8754584.000000, 1028.500000, 8163.000000, 8156.500000, 8143.500000
1573, 8754744.000000, 1045.500000, 8163.500000, 8155.000000, 8141.500000
1574, 8754904.000000, 1237.250000, 8162.000000, 8156.000000, 8143.000000
1575, 8755064.000000, 1651.750000, 8162.500000, 8157.000000, 8142.500000
1576, 8755224.000000, 2168.500000, 8160.500000, 8156.500000, 8141.000000
1577, 8755384.000000, 2594.625000, 8164.000000, 8157.000000, 8142.000000
1578, 8755544.000000, 2797.250000, 8161.500000, 8158.000000, 8142.000000
1579, 8755704.000000, 2795.250000, 8164.500000, 8159.500000, 8145.500000
1580, 8755864.000000, 2659.500000, 8163.000000, 8162.500000, 8148.500000
1581, 8756024.000000, 2482.875000, 8162.500000, 8160.500000, 8146.000000
1582, 8756184.000000, 2319.500000, 8171.500000, 8174.000000, 8163.500000
1583, 8756344.000000, 2174.125000, 8176.000000, 8167.500000, 8156.500000
1584, 8756504.000000, 2025.750000, 8177.000000, 8166.500000, 8154.500000
1585, 8756664.000000, 1869.750000, 8166.500000, 8166.000000, 8151.500000
1586, 8756824.000000, 1751.625000, 8169.000000, 8168.000000, 8156.000000
1587, 8756984.000000, 1700.250000, 8171.500000, 8168.500000, 8158.000000
1588, 8757144.000000, 1712.875000, 8164.500000, 8231.000000, 8232.000000
1589, 8757304.000000, 1749.250000, 8560.000000, 8132.000000, 8312.500000
1590, 8757464.000000, 1773.125000, 8113.500000, 8028.500000, 8025.500000
1591, 8757624.000000, 1763.250000, 8063.000000, 8083.000000, 7988.500000
1592, 8757784.000000, 1717.250000, 8150.500000, 8202.000000, 8172.000000
1593, 8757944.000000, 1640.250000, 8182.000000, 8224.500000, 8223.000000
1594, 8758104.000000, 1549.500000, 8189.000000, 8230.500000, 8233.500000
1595, 8758264.000000, 1462.250000, 8196.000000, 8238.000000, 8244.000000
1596, 8758424.000000, 1387.625000, 8204.000000, 8247.500000, 8257.500000
1597, 8758584.000000, 1331.500000, 8213.500000, 8262.000000, 8277.500000
1598, 8758744.000000, 1289.375000, 8225.000000, 8281.500000, 8303.500000
1599, 8758904.000000, 1253.625000, 8239.000000, 8306.500000, 8335.000000
1600, 8759064.000000, 1224.250000, 8252.500000, 8330.000000, 8364.500000
1601, 8759224.000000, 1202.875000, 8260.500000, 8336.500000, 8374.000000
1602, 8759384.000000, 1187.125000, 8255.000000, 8320.500000, 8354.500000
1603, 8759544.000000, 1177.375000, 8233.000000, 8273.000000, 8298.500000
1604, 8759704.000000, 1170.250000, 8194.500000, 8212.500000, 8219.000000
1605, 8759864.000000, 1162.500000, 8165.500000, 8170.500000, 8160.500000
1606, 8760024.000000, 1154.250000, 8156.000000, 8155.500000, 8140.500000
1607, 8760184.000000, 1147.375000, 8157.000000, 8156.000000, 8140.000000
1608, 8760344.000000, 1140.500000, 8158.000000, 8158.500000, 8143.500000
1609, 8760504.000000, 1130.500000, 8163.000000, 8159.500000, 8146.500000
1610, 8760664.000000, 1114.250000, 8165.000000, 8160.000000, 8149.500000
1611, 8760824.000000, 1081.000000, 8164.500000, 8157.500000, 8145.500000
1612, 8760984.000000, 1043.000000, 8165.000000, 8155.000000, 8144.000000
1613, 8761144.000000, 1082.875000, 8163.000000, 8152.500000, 8138.500000
1614, 8761304.000000, 1320.875000, 8163.000000, 8153.500000, 8139.500000
1615, 8761464.000000, 1789.250000, 8162.500000, 8154.500000, 8140.000000
1616, 8761624.000000, 2337.750000, 8161.500000, 8154.000000, 8138.000000
1617, 8761784.000000, 2771.500000, 8162.000000, 8155.000000, 8140.000000
1618, 8761944.000000, 2971.500000, 8163.000000, 8156.000000, 8140.000000
1619, 8762104.000000, 2966.375000, 8163.500000, 8158.500000, 8143.000000
1620, 8762264.000000, 2827.500000, 8165.000000, 8161.000000, 8146.500000
1621, 8762424.000000, 2656.500000, 8167.500000, 8162.000000, 8150.000000
1622, 8762584.000000, 2506.500000, 8164.000000, 8163.000000, 8150.000000
1623, 8762744.000000, 2383.000000, 8173.000000, 8177.000000, 8161.000000
1624, 8762904.000000, 2253.250000, 8178.500000, 8166.500000, 8155.000000
1625, 8763064.000000, 2100.750000, 8178.500000, 8169.500000, 8161.000000
1626, 8763224.000000, 1963.125000, 8167.000000, 8166.000000, 8151.000000
1627, 8763384.000000, 1877.125000, 8170.000000, 8168.000000, 8155.000000
1628, 8763544.000000, 1856.750000, 8172.000000, 8169.000000, 8159.000000
1629, 8763704.000000, 1870.125000, 8193.000000, 8256.000000, 8268.500000
1630, 8763864.000000, 1881.625000, 8620.500000, 8066.000000, 8283.500000
1631, 8764024.000000, 1865.375000, 8048.500000, 8015.000000, 7959.000000
1632, 8764184.000000, 1815.125000, 8082.500000, 8130.500000, 8040.500000
1633, 8764344.000000, 1735.250000, 8168.000000, 8223.000000, 8211.500000
1634, 8764504.000000, 1640.750000, 8182.500000, 8233.500000, 8233.000000
1635, 8764664.000000, 1546.625000, 8189.000000, 8240.000000, 8243.000000
1636, 8764824.000000, 1464.125000, 8195.500000, 8246.500000, 8252.000000
1637, 8764984.000000, 1398.875000, 8203.000000, 8257.500000, 8268.000000
1638, 8765144.000000, 1348.250000, 8214.500000, 8274.000000, 8291.000000
1639, 8765304.000000, 1307.875000, 8224.500000, 8297.500000, 8320.000000
1640, 8765464.000000, 1276.250000, 8240.000000, 8325.500000, 8357.500000
1641, 8765624.000000, 1254.000000, 8251.000000, 8345.000000, 8381.500000
1642, 8765784.000000, 1236.750000, 8254.000000, 8346.000000, 8382.000000
1643, 8765944.000000, 1226.375000, 8247.000000, 8322.000000, 8355.500000
1644, 8766104.000000, 1221.625000, 8220.000000, 8261.500000, 8282.000000
1645, 8766264.000000, 1220.125000, 8184.000000, 8198.500000, 8200.000000
1646, 8766424.000000, 1213.875000, 8161.000000, 8163.000000, 8150.000000
1647, 8766584.000000, 1203.500000, 8156.500000, 8154.500000, 8138.000000
1648, 8766744.000000, 1194.875000, 8157.000000, 8156.500000, 8139.500000
1649, 8766904.000000, 1187.375000, 8162.000000, 8160.500000, 8147.500000
1650, 8767064.000000, 1179.125000, 8164.500000, 8161.000000, 8149.000000
1651, 8767224.000000, 1161.125000, 8166.000000, 8159.000000, 8147.000000
1652, 8767384.000000, 1126.000000, 8167.000000, 8155.000000, 8142.000000
1653, 8767544.000000, 1100.250000, 8167.000000, 8153.000000, 8140.000000
1654, 8767704.000000, 1176.375000, 8163.500000, 8153.000000, 8137.500000
1655, 8767864.000000, 1479.250000, 8163.000000, 8153.000000, 8137.000000
1656, 8768024.000000, 1987.375000, 8162.500000, 8151.500000, 8135.000000
1657, 8768184.000000, 2532.000000, 8165.500000, 8153.000000, 8138.500000
1658, 8768344.000000, 2910.375000, 8165.500000, 8154.000000, 8139.500000
1659, 8768504.000000, 3054.125000, 8167.000000, 8157.000000, 8143.500000
1660, 8768664.000000, 2990.875000, 8168.000000, 8157.000000, 8144.000000
1661, 8768824.000000, 2838.375000, 8169.000000, 8159.000000, 8147.000000
1662, 8768984.000000, 2678.250000, 8169.500000, 8163.000000, 8153.500000
1663, 8769144.000000, 2550.750000, 8173.500000, 8173.500000, 8155.500000
1664, 8769304.000000, 2438.625000, 8180.000000, 8165.000000, 8154.000000
1665, 8769464.000000, 2304.125000, 8179.500000, 8165.500000, 8156.500000
1666, 8769624.000000, 2146.000000, 8171.500000, 8162.000000, 8148.500000
1667, 8769784.000000, 2003.250000, 8172.000000, 8164.000000, 8152.000000
1668, 8769944.000000, 1924.875000, 8173.500000, 8166.000000, 8155.000000
1669, 8770104.000000, 1902.250000, 8226.500000, 8253.500000, 8275.500000
1670, 8770264.000000, 1912.875000, 8597.000000, 8019.500000, 8227.500000
1671, 8770424.000000, 1913.375000, 8045.000000, 8010.500000, 7936.000000
1672, 8770584.000000, 1886.125000, 8100.000000, 8147.500000, 8066.500000
1673, 8770744.000000, 1823.500000, 8174.000000, 8223.500000, 8215.000000
1674, 8770904.000000, 1737.750000, 8188.000000, 8232.000000, 8234.000000
1675, 8771064.000000, 1639.000000, 8195.000000, 8237.000000, 8241.000000
1676, 8771224.000000, 1546.250000, 8203.000000, 8243.000000, 8251.500000
1677, 8771384.000000, 1467.750000, 8210.500000, 8254.500000, 8266.000000
1678, 8771544.000000, 1406.125000, 8221.500000, 8271.000000, 8289.500000
1679, 8771704.000000, 1361.000000, 8233.500000, 8293.500000, 8318.000000
1680, 8771864.000000, 1327.125000, 8248.500000, 8319.500000, 8352.500000
1681, 8772024.000000, 1298.375000, 8261.500000, 8335.500000, 8373.000000
1682, 8772184.000000, 1274.250000, 8264.500000, 8334.500000, 8372.000000
1683, 8772344.000000, 1252.875000, 8254.000000, 8307.000000, 8339.500000
1684, 8772504.000000, 1235.125000, 8220.500000, 8245.500000, 8264.500000
1685, 8772664.000000, 1223.500000, 8186.000000, 8186.500000, 8186.500000
1686, 8772824.000000, 1213.500000, 8165.000000, 8157.000000, 8144.000000
1687, 8772984.000000, 1200.750000, 8159.000000, 8151.000000, 8136.000000
1688, 8773144.000000, 1185.750000, 8161.000000, 8154.000000, 8138.500000
1689, 8773304.000000, 1171.625000, 8164.000000, 8157.500000, 8142.500000
1690, 8773464.000000, 1156.375000, 8167.500000, 8157.500000, 8145.500000
1691, 8773624.000000, 1136.125000, 8172.500000, 8154.500000, 8145.000000
1692, 8773784.000000, 1102.000000, 8173.000000, 8151.500000, 8140.500000
1693, 8773944.000000, 1074.500000, 8171.000000, 8150.000000, 8139.000000
1694, 8774104.000000, 1133.250000, 8170.000000, 8149.500000, 8138.000000
1695, 8774264.000000, 1403.125000, 8169.500000, 8149.000000, 8134.500000
1696, 8774424.000000, 1876.625000, 8171.000000, 8149.000000, 8136.000000
1697, 8774584.000000, 2405.500000, 8171.500000, 8150.000000, 8136.000000
1698, 8774744.000000, 2784.875000, 8171.500000, 8151.500000, 8137.000000
1699, 8774904.000000, 2940.375000, 8172.000000, 8154.000000, 8141.000000
1700, 8775064.000000, 2890.750000, 8172.000000, 8156.000000, 8144.000000
1701, 8775224.000000, 2748.875000, 8171.500000, 8154.500000, 8140.000000
1702, 8775384.000000, 2595.000000, 8177.500000, 8164.500000, 8155.000000
1703, 8775544.000000, 2466.000000, 8184.000000, 8166.000000, 8156.000000
1704, 8775704.000000, 2347.875000, 8187.000000, 8161.000000, 8152.000000
1705, 8775864.000000, 2206.500000, 8174.500000, 8161.500000, 8149.000000
1706, 8776024.000000, 2048.125000, 8175.000000, 8162.000000, 8150.000000
1707, 8776184.000000, 1916.500000, 8176.500000, 8165.000000, 8155.000000
1708, 8776344.000000, 1855.875000, 8169.500000, 8198.500000, 8194.500000
1709, 8776504.000000, 1847.750000, 8474.000000, 8188.500000, 8317.500000
1710, 8776664.000000, 1861.500000, 8225.000000, 8084.000000, 8138.000000
1711, 8776824.000000, 1863.250000, 8061.500000, 8088.000000, 8010.500000
1712, 8776984.000000, 1837.875000, 8129.500000, 8166.500000, 8109.000000
1713, 8777144.000000, 1781.125000, 8181.500000, 8211.000000, 8205.000000
1714, 8777304.000000, 1702.250000, 8193.500000, 8217.000000, 8218.000000
1715, 8777464.000000, 1614.500000, 8200.000000, 8223.000000, 8227.500000
1716, 8777624.000000, 1531.375000, 8208.500000, 8230.000000, 8238.000000
1717, 8777784.000000, 1459.250000, 8220.000000, 8240.500000, 8254.500000
1718, 8777944.000000, 1406.250000, 8231.000000, 8256.000000, 8277.000000
1719, 8778104.000000, 1365.875000, 8245.000000, 8275.000000, 8299.500000
1720, 8778264.000000, 1332.875000, 8261.000000, 8295.000000, 8327.000000
1721, 8778424.000000, 1306.250000, 8271.500000, 8302.500000, 8337.500000
1722, 8778584.000000, 1282.625000, 8270.000000, 8293.500000, 8327.500000
1723, 8778744.000000, 1262.875000, 8247.000000, 8263.000000, 8289.500000
1724, 8778904.000000, 1247.500000, 8206.500000, 8219.000000, 8229.500000
1725, 8779064.000000, 1239.375000, 8168.000000, 8179.000000, 8170.500000
1726, 8779224.000000, 1236.625000, 8155.000000, 8162.000000, 8145.500000
1727, 8779384.000000, 1232.250000, 8155.000000, 8158.000000, 8141.000000
1728, 8779544.000000, 1226.875000, 8159.500000, 8162.500000, 8149.000000
1729, 8779704.000000, 1217.625000, 8162.500000, 8164.500000, 8152.000000
1730, 8779864.000000, 1199.250000, 8167.000000, 8163.500000, 8152.500000
1731, 8780024.000000, 1170.625000, 8167.000000, 8161.000000, 8148.000000
1732, 8780184.000000, 1131.000000, 8165.500000, 8158.500000, 8146.000000
1733, 8780344.000000, 1105.250000, 8165.000000, 8157.000000, 8142.500000
1734, 8780504.000000, 1171.625000, 8162.500000, 8157.000000, 8142.500000
1735, 8780664.000000, 1435.750000, 8161.500000, 8157.500000, 8141.500000
1736, 8780824.000000, 1883.000000, 8162.500000, 8156.000000, 8140.500000
1737, 8780984.000000, 2370.625000, 8162.500000, 8157.000000, 8140.500000
1738, 8781144.000000, 2703.125000, 8162.000000, 8158.000000, 8141.000000
1739, 8781304.000000, 2821.125000, 8162.500000, 8160.500000, 8145.000000
1740, 8781464.000000, 2746.125000, 8162.500000, 8163.500000, 8151.000000
1741, 8781624.000000, 2590.500000, 8168.000000, 8171.500000, 8150.000000
1742, 8781784.000000, 2424.750000, 8178.500000, 8164.000000, 8153.500000
1743, 8781944.000000, 2277.125000, 8175.000000, 8168.000000, 8159.000000
1744, 8782104.000000, 2126.625000, 8166.000000, 8167.500000, 8155.500000
1745, 8782264.000000, 1956.625000, 8169.500000, 8170.000000, 8160.500000
1746, 8782424.000000, 1806.375000, 8172.500000, 8170.500000, 8164.000000
1747, 8782584.000000, 1721.750000, 8233.500000, 8257.000000, 8286.500000
1748, 8782744.000000, 1719.125000, 8556.500000, 8041.500000, 8239.500000
1749, 8782904.000000, 1754.125000, 8041.500000, 8037.000000, 7974.000000
1750, 8783064.000000, 1782.250000, 8098.500000, 8151.000000, 8076.000000
1751, 8783224.000000, 1780.750000, 8175.000000, 8227.000000, 8226.000000
1752, 8783384.000000, 1742.625000, 8191.500000, 8235.500000, 8246.000000
1753, 8783544.000000, 1670.000000, 8201.000000, 8241.000000, 8256.000000
1754, 8783704.000000, 1583.875000, 8207.000000, 8251.500000, 8270.500000
1755, 8783864.000000, 1499.000000, 8213.000000, 8263.500000, 8286.500000
1756, 8784024.000000, 1430.000000, 8224.000000, 8280.500000, 8310.500000
1757, 8784184.000000, 1380.125000, 8237.500000, 8304.500000, 8340.000000
1758, 8784344.000000, 1345.250000, 8253.000000, 8331.500000, 8377.500000
1759, 8784504.000000, 1324.875000, 8266.000000, 8348.500000, 8399.000000
1760, 8784664.000000, 1305.375000, 8265.000000, 8343.000000, 8391.000000
1761, 8784824.000000, 1288.875000, 8253.000000, 8308.000000, 8349.500000
1762, 8784984.000000, 1273.750000, 8217.500000, 8246.000000, 8270.000000
1763, 8785144.000000, 1259.625000, 8184.500000, 8189.500000, 8195.500000
1764, 8785304.000000, 1246.500000, 8166.000000, 8164.500000, 8157.500000
1765, 8785464.000000, 1238.375000, 8161.000000, 8159.000000, 8148.000000
1766, 8785624.000000, 1228.500000, 8161.500000, 8160.000000, 8148.000000
1767, 8785784.000000, 1217.625000, 8164.000000, 8161.000000, 8149.500000
1768, 8785944.000000, 1203.000000, 8166.000000, 8162.500000, 8151.500000
1769, 8786104.000000, 1182.000000, 8168.000000, 8160.500000, 8151.500000
1770, 8786264.000000, 1154.125000, 8168.000000, 8158.500000, 8147.500000
1771, 8786424.000000, 1122.375000, 8166.500000, 8154.500000, 8142.000000
1772, 8786584.000000, 1148.750000, 8163.000000, 8152.000000, 8137.000000
1773, 8786744.000000, 1335.125000, 8161.500000, 8154.000000, 8138.000000
1774, 8786904.000000, 1780.500000, 8146.000000, 8159.000000, 8136.500000
1775, 8787064.000000, 2346.375000, 8171.000000, 8151.000000, 8138.000000
1776, 8787224.000000, 2786.375000, 8164.000000, 8151.500000, 8134.500000
1777, 8787384.000000, 2911.250000, 8170.500000, 8165.000000, 8148.000000
1778, 8787544.000000, 2813.375000, 8175.000000, 8158.000000, 8146.000000
1779, 8787704.000000, 2634.375000, 8176.500000, 8160.500000, 8147.500000
1780, 8787864.000000, 2454.125000, 8165.500000, 8156.500000, 8138.000000
1781, 8788024.000000, 2275.500000, 8165.000000, 8159.000000, 8142.000000
1782, 8788184.000000, 2094.000000, 8168.500000, 8160.000000, 8144.500000
1783, 8788344.000000, 1910.500000, 8169.000000, 8231.000000, 8229.500000
1784, 8788504.000000, 1808.750000, 8579.500000, 8117.000000, 8307.000000
1785, 8788664.000000, 1784.125000, 8061.500000, 8051.000000, 8023.500000
1786, 8788824.000000, 1805.875000, 8068.500000, 8091.000000, 7996.000000
1787, 8788984.000000, 1831.125000, 8152.500000, 8195.000000, 8166.000000
1788, 8789144.000000, 1824.625000, 8180.000000, 8214.500000, 8208.000000
1789, 8789304.000000, 1784.750000, 8189.000000, 8219.500000, 8219.500000
1790, 8789464.000000, 1716.375000, 8195.000000, 8226.500000, 8229.500000
1791, 8789624.000000, 1632.375000, 8204.000000, 8235.500000, 8241.500000
1792, 8789784.000000, 1544.875000, 8215.000000, 8249.000000, 8261.000000
1793, 8789944.000000, 1465.625000, 8228.000000, 8269.500000, 8289.500000
1794, 8790104.000000, 1403.125000, 8244.500000, 8293.000000, 8319.000000
1795, 8790264.000000, 1357.000000, 8260.000000, 8311.000000, 8343.500000
1796, 8790424.000000, 1323.125000, 8265.500000, 8312.500000, 8346.500000
1797, 8790584.000000, 1294.375000, 8255.000000, 8293.500000, 8321.500000
1798, 8790744.000000, 1265.500000, 8223.000000, 8248.500000, 8265.500000
1799, 8790904.000000, 1236.375000, 8181.000000, 8198.500000, 8196.500000
1800, 8791064.000000, 1212.250000, 8154.000000, 8167.000000, 8150.000000
1801, 8791224.000000, 1190.000000, 8149.000000, 8157.500000, 8138.000000
1802, 8791384.000000, 1171.750000, 8151.000000, 8159.000000, 8139.000000
1803, 8791544.000000, 1155.875000, 8156.000000, 8163.000000, 8146.000000
1804, 8791704.000000, 1135.250000, 8160.000000, 8164.000000, 8148.000000
1805, 8791864.000000, 1103.875000, 8163.000000, 8162.500000, 8148.500000
1806, 8792024.000000, 1060.750000, 8164.000000, 8159.000000, 8144.000000
1807, 8792184.000000, 1064.125000, 8160.000000, 8158.000000, 8140.000000
1808, 8792344.000000, 1208.750000, 8157.000000, 8157.500000, 8138.500000
1809, 8792504.000000, 1552.000000, 8158.000000, 8158.000000, 8139.000000
1810, 8792664.000000, 2002.875000, 8158.500000, 8158.000000, 8139.000000
1811, 8792824.000000, 2403.625000, 8161.000000, 8160.000000, 8141.000000
1812, 8792984.000000, 2613.125000, 8160.000000, 8162.500000, 8144.500000
1813, 8793144.000000, 2635.125000, 8159.500000, 8166.500000, 8150.500000
1814, 8793304.000000, 2528.250000, 8165.500000, 8179.000000, 8156.500000
1815, 8793464.000000, 2378.500000, 8173.000000, 8171.000000, 8155.500000
1816, 8793624.000000, 2236.375000, 8173.000000, 8173.000000, 8159.500000
1817, 8793784.000000, 2098.000000, 8163.500000, 8170.500000, 8152.000000
1818, 8793944.000000, 1942.875000, 8164.000000, 8174.500000, 8157.500000
1819, 8794104.000000, 1781.750000, 8166.500000, 8176.500000, 8161.000000
1820, 8794264.000000, 1667.000000, 8194.000000, 8261.000000, 8269.500000
1821, 8794424.000000, 1625.500000, 8602.000000, 8093.500000, 8298.000000
1822, 8794584.000000, 1643.875000, 8039.500000, 8049.500000, 7995.000000
1823, 8794744.000000, 1676.375000, 8081.500000, 8137.500000, 8045.500000
1824, 8794904.000000, 1686.750000, 8163.500000, 8230.500000, 8214.500000
1825, 8795064.000000, 1656.125000, 8179.500000, 8240.000000, 8235.000000
1826, 8795224.000000, 1587.625000, 8189.000000, 8246.000000, 8246.000000
1827, 8795384.000000, 1501.500000, 8197.000000, 8254.500000, 8258.500000
1828, 8795544.000000, 1407.500000, 8203.000000, 8268.000000, 8276.000000
1829, 8795704.000000, 1324.875000, 8213.500000, 8285.000000, 8298.500000
1830, 8795864.000000, 1262.125000, 8226.000000, 8307.000000, 8327.000000
1831, 8796024.000000, 1218.875000, 8243.500000, 8332.000000, 8361.000000
1832, 8796184.000000, 1191.625000, 8254.500000, 8350.000000, 8383.500000
1833, 8796344.000000, 1171.875000, 8260.000000, 8350.500000, 8386.500000
1834, 8796504.000000, 1156.750000, 8246.000000, 8324.500000, 8352.500000
1835, 8796664.000000, 1142.750000, 8214.500000, 8269.500000, 8285.500000
1836, 8796824.000000, 1129.875000, 8179.000000, 8214.500000, 8213.000000
1837, 8796984.000000, 1125.125000, 8159.500000, 8186.500000, 8172.500000
1838, 8797144.000000, 1126.375000, 8152.500000, 8182.500000, 8164.500000
1839, 8797304.000000, 1130.750000, 8156.000000, 8185.000000, 8170.000000
1840, 8797464.000000, 1133.250000, 8161.000000, 8187.000000, 8174.000000
1841, 8797624.000000, 1125.500000, 8164.500000, 8186.500000, 8175.500000
1842, 8797784.000000, 1101.125000, 8167.000000, 8184.000000, 8173.000000
1843, 8797944.000000, 1075.750000, 8167.500000, 8183.000000, 8173.000000
1844, 8798104.000000, 1134.875000, 8163.000000, 8180.000000, 8166.000000
1845, 8798264.000000, 1371.625000, 8163.000000, 8177.500000, 8163.500000
1846, 8798424.000000, 1809.375000, 8163.000000, 8176.500000, 8160.500000
1847, 8798584.000000, 2300.375000, 8163.000000, 8176.500000, 8160.500000
1848, 8798744.000000, 2660.500000, 8162.000000, 8177.500000, 8162.500000
1849, 8798904.000000, 2797.625000, 8163.500000, 8178.500000, 8163.000000
1850, 8799064.000000, 2744.250000, 8164.500000, 8177.000000, 8161.000000
1851, 8799224.000000, 2596.125000, 8164.500000, 8177.000000, 8161.000000
1852, 8799384.000000, 2440.625000, 8167.000000, 8178.500000, 8165.500000
1853, 8799544.000000, 2313.875000, 8169.500000, 8186.500000, 8179.000000
1854, 8799704.000000, 2193.125000, 8172.500000, 8189.500000, 8174.000000
1855, 8799864.000000, 2046.750000, 8181.500000, 8182.500000, 8171.000000
1856, 8800024.000000, 1890.625000, 8174.000000, 8182.000000, 8169.500000
1857, 8800184.000000, 1773.750000, 8168.500000, 8180.500000, 8166.000000
1858, 8800344.000000, 1731.250000, 8170.500000, 8183.500000, 8171.500000
1859, 8800504.000000, 1743.750000, 8171.000000, 8189.000000, 8179.500000
1860, 8800664.000000, 1769.000000, 8276.500000, 8271.500000, 8315.000000
1861, 8800824.000000, 1773.500000, 8539.500000, 7998.500000, 8186.000000
1862, 8800984.000000, 1737.125000, 8042.000000, 8040.000000, 7954.500000
1863, 8801144.000000, 1670.750000, 8110.000000, 8182.000000, 8111.500000
1864, 8801304.000000, 1584.500000, 8173.500000, 8242.000000, 8234.000000
1865, 8801464.000000, 1496.250000, 8187.000000, 8247.000000, 8247.000000
1866, 8801624.000000, 1419.875000, 8194.000000, 8253.500000, 8257.500000
1867, 8801784.000000, 1359.750000, 8201.000000, 8261.500000, 8268.500000
1868, 8801944.000000, 1314.750000, 8207.000000, 8275.500000, 8286.500000
1869, 8802104.000000, 1283.500000, 8217.000000, 8291.000000, 8307.000000
1870, 8802264.000000, 1258.625000, 8232.000000, 8313.500000, 8339.000000
1871, 8802424.000000, 1236.125000, 8247.500000, 8338.500000, 8371.500000
1872, 8802584.000000, 1216.375000, 8259.000000, 8354.500000, 8392.500000
1873, 8802744.000000, 1197.875000, 8257.500000, 8353.000000, 8389.500000
1874, 8802904.000000, 1185.500000, 8247.000000, 8319.500000, 8351.000000
1875, 8803064.000000, 1176.375000, 8214.000000, 8257.000000, 8272.500000
1876, 8803224.000000, 1168.500000, 8181.000000, 8202.000000, 8201.500000
1877, 8803384.000000, 1158.500000, 8161.500000, 8178.500000, 8164.500000
1878, 8803544.000000, 1152.250000, 8158.500000, 8176.000000, 8160.000000
1879, 8803704.000000, 1143.625000, 8162.000000, 8179.000000, 8166.000000
1880, 8803864.000000, 1130.625000, 8165.000000, 8179.000000, 8166.500000
1881, 8804024.000000, 1102.625000, 8169.000000, 8178.500000, 8167.500000
1882, 8804184.000000, 1064.375000, 8169.000000, 8176.000000, 8164.000000
1883, 8804344.000000, 1047.625000, 8170.500000, 8174.000000, 8162.000000
1884, 8804504.000000, 1170.750000, 8168.500000, 8169.500000, 8157.000000
1885, 8804664.000000, 1511.250000, 8168.000000, 8167.500000, 8154.500000
1886, 8804824.000000, 2034.125000, 8169.500000, 8167.000000, 8153.500000
1887, 8804984.000000, 2531.500000, 8168.500000, 8167.500000, 8154.000000
1888, 8805144.000000, 2839.000000, 8168.500000, 8168.500000, 8156.000000
1889, 8805304.000000, 2902.375000, 8169.000000, 8170.000000, 8156.000000
1890, 8805464.000000, 2794.000000, 8173.000000, 8169.000000, 8157.500000
1891, 8805624.000000, 2626.500000, 8172.000000, 8170.000000, 8158.000000
1892, 8805784.000000, 2475.125000, 8171.500000, 8170.500000, 8158.000000
1893, 8805944.000000, 2356.500000, 8173.500000, 8173.000000, 8163.000000
1894, 8806104.000000, 2241.875000, 8176.000000, 8180.000000, 8175.500000
1895, 8806264.000000, 2097.750000, 8178.500000, 8183.000000, 8167.500000
1896, 8806424.000000, 1942.375000, 8188.500000, 8175.000000, 8167.000000
1897, 8806584.000000, 1828.625000, 8182.500000, 8176.000000, 8167.000000
1898, 8806744.000000, 1779.750000, 8174.000000, 8174.000000, 8163.000000
1899, 8806904.000000, 1779.500000, 8175.000000, 8175.000000, 8164.000000
1900, 8807064.000000, 1790.375000, 8174.500000, 8177.000000, 8167.500000
1901, 8807224.000000, 1779.250000, 8262.000000, 8261.500000, 8297.000000
1902, 8807384.000000, 1732.625000, 8566.000000, 8006.000000, 8204.000000
1903, 8807544.000000, 1659.125000, 8047.000000, 8033.000000, 7954.500000
1904, 8807704.000000, 1569.500000, 8109.000000, 8163.000000, 8089.000000
1905, 8807864.000000, 1480.375000, 8177.500000, 8230.500000, 8224.000000
1906, 8808024.000000, 1402.500000, 8190.000000, 8236.000000, 8237.500000
1907, 8808184.000000, 1339.875000, 8197.000000, 8240.500000, 8245.000000
1908, 8808344.000000, 1294.750000, 8205.000000, 8249.500000, 8257.500000
1909, 8808504.000000, 1266.250000, 8212.500000, 8260.000000, 8272.500000
1910, 8808664.000000, 1244.375000, 8223.000000, 8274.500000, 8292.500000
1911, 8808824.000000, 1225.000000, 8233.500000, 8294.000000, 8317.500000
1912, 8808984.000000, 1208.375000, 8250.000000, 8320.000000, 8352.000000
1913, 8809144.000000, 1189.000000, 8260.000000, 8336.500000, 8372.500000
1914, 8809304.000000, 1174.125000, 8262.000000, 8334.000000, 8370.000000
1915, 8809464.000000, 1166.250000, 8253.500000, 8304.500000, 8336.500000
1916, 8809624.000000, 1161.625000, 8221.500000, 8243.000000, 8259.500000
1917, 8809784.000000, 1156.500000, 8187.500000, 8188.000000, 8188.000000
1918, 8809944.000000, 1143.750000, 8166.000000, 8159.500000, 8146.500000
1919, 8810104.000000, 1127.875000, 8164.000000, 8153.000000, 8138.000000
1920, 8810264.000000, 1112.375000, 8167.000000, 8154.000000, 8140.500000
1921, 8810424.000000, 1095.750000, 8171.000000, 8156.000000, 8145.000000
1922, 8810584.000000, 1075.250000, 8173.000000, 8154.000000, 8144.500000
1923, 8810744.000000, 1044.750000, 8176.000000, 8152.500000, 8143.500000
1924, 8810904.000000, 1018.250000, 8174.000000, 8148.500000, 8137.500000
1925, 8811064.000000, 1078.625000, 8173.000000, 8146.000000, 8133.000000
1926, 8811224.000000, 1346.625000, 8173.500000, 8143.500000, 8131.500000
1927, 8811384.000000, 1828.000000, 8171.000000, 8143.500000, 8130.500000
1928, 8811544.000000, 2362.875000, 8171.500000, 8146.000000, 8131.500000
1929, 8811704.000000, 2753.000000, 8172.000000, 8145.000000, 8131.000000
1930, 8811864.000000, 2896.625000, 8173.000000, 8147.000000, 8132.000000
1931, 8812024.000000, 2844.500000, 8173.000000, 8147.000000, 8132.000000
1932, 8812184.000000, 2679.250000, 8174.000000, 8149.000000, 8134.000000
1933, 8812344.000000, 2500.500000, 8174.500000, 8150.000000, 8137.500000
1934, 8812504.000000, 2353.875000, 8173.000000, 8150.000000, 8135.000000
1935, 8812664.000000, 2227.375000, 8178.000000, 8159.000000, 8141.000000
1936, 8812824.000000, 2087.500000, 8187.500000, 8154.000000, 8143.500000
1937, 8812984.000000, 1939.250000, 8189.000000, 8155.000000, 8146.500000
1938, 8813144.000000, 1827.375000, 8176.500000, 8154.500000, 8142.500000
1939, 8813304.000000, 1775.375000, 8177.000000, 8155.000000, 8142.000000
1940, 8813464.000000, 1778.625000, 8182.500000, 8155.000000, 8146.000000
1941, 8813624.000000, 1797.250000, 8185.500000, 8229.000000, 8232.500000
1942, 8813784.000000, 1800.125000, 8602.500000, 8120.500000, 8316.000000
1943, 8813944.000000, 1770.125000, 8069.000000, 8088.500000, 8071.000000
1944, 8814104.000000, 1707.375000, 8079.500000, 8092.000000, 8007.500000
1945, 8814264.000000, 1621.500000, 8158.500000, 8177.500000, 8145.500000
1946, 8814424.000000, 1527.750000, 8189.500000, 8200.000000, 8195.500000
1947, 8814584.000000, 1438.250000, 8198.000000, 8205.000000, 8206.000000
1948, 8814744.000000, 1366.250000, 8205.500000, 8212.000000, 8217.000000
1949, 8814904.000000, 1310.375000, 8213.500000, 8219.500000, 8228.500000
1950, 8815064.000000, 1272.125000, 8223.500000, 8230.500000, 8243.500000
1951, 8815224.000000, 1242.375000, 8235.000000, 8247.000000, 8266.500000
1952, 8815384.000000, 1218.625000, 8251.000000, 8267.500000, 8294.000000
1953, 8815544.000000, 1198.000000, 8265.500000, 8283.500000, 8314.500000
1954, 8815704.000000, 1178.375000, 8271.000000, 8286.500000, 8318.500000
1955, 8815864.000000, 1161.750000, 8265.000000, 8272.500000, 8302.000000
1956, 8816024.000000, 1147.500000, 8239.000000, 8239.000000, 8260.500000
1957, 8816184.000000, 1138.500000, 8195.000000, 8197.000000, 8202.000000
1958, 8816344.000000, 1130.625000, 8165.500000, 8164.000000, 8155.500000
1959, 8816504.000000, 1127.125000, 8156.500000, 8152.500000, 8138.000000
1960, 8816664.000000, 1125.625000, 8158.500000, 8150.000000, 8135.000000
1961, 8816824.000000, 1122.250000, 8163.500000, 8151.500000, 8139.000000
1962, 8816984.000000, 1115.875000, 8166.000000, 8152.000000, 8140.000000
1963, 8817144.000000, 1102.875000, 8168.500000, 8152.000000, 8141.500000
1964, 8817304.000000, 1074.125000, 8167.500000, 8149.500000, 8137.500000
1965, 8817464.000000, 1056.750000, 8166.000000, 8147.500000, 8133.500000
1966, 8817624.000000, 1133.125000, 8163.000000, 8146.000000, 8130.000000
1967, 8817784.000000, 1408.250000, 8164.000000, 8146.500000, 8131.500000
1968, 8817944.000000, 1859.250000, 8162.500000, 8149.000000, 8134.500000
1969, 8818104.000000, 2334.500000, 8163.000000, 8147.500000, 8131.500000
1970, 8818264.000000, 2649.500000, 8163.500000, 8148.500000, 8132.000000
1971, 8818424.000000, 2749.875000, 8165.000000, 8150.500000, 8135.500000
1972, 8818584.000000, 2665.625000, 8167.000000, 8152.000000, 8139.000000
1973, 8818744.000000, 2494.375000, 8164.000000, 8151.500000, 8136.500000
1974, 8818904.000000, 2313.500000, 8170.500000, 8165.000000, 8148.000000
1975, 8819064.000000, 2150.875000, 8177.000000, 8156.500000, 8144.000000
1976, 8819224.000000, 1995.000000, 8179.500000, 8157.500000, 8147.500000
1977, 8819384.000000, 1834.000000, 8169.000000, 8157.000000, 8143.000000
1978, 8819544.000000, 1704.750000, 8170.000000, 8159.000000, 8147.500000
1979, 8819704.000000, 1641.750000, 8173.000000, 8160.000000, 8150.500000
1980, 8819864.000000, 1649.500000, 8179.000000, 8236.000000, 8238.500000
1981, 8820024.000000, 1685.125000, 8600.000000, 8109.500000, 8313.500000
1982, 8820184.000000, 1713.875000, 8058.000000, 8052.500000, 8023.500000
1983, 8820344.000000, 1709.875000, 8077.000000, 8098.000000, 8007.500000
1984, 8820504.000000, 1671.000000, 8161.000000, 8198.500000, 8176.500000
1985, 8820664.000000, 1600.875000, 8185.000000, 8213.000000, 8210.000000
1986, 8820824.000000, 1516.875000, 8194.000000, 8219.000000, 8223.000000
1987, 8820984.000000, 1431.125000, 8201.500000, 8227.000000, 8234.500000
1988, 8821144.000000, 1360.250000, 8208.000000, 8239.500000, 8249.500000
1989, 8821304.000000, 1303.500000, 8217.500000, 8252.500000, 8268.500000
1990, 8821464.000000, 1261.750000, 8230.500000, 8272.000000, 8293.500000
1991, 8821624.000000, 1229.500000, 8245.500000, 8297.500000, 8328.000000
1992, 8821784.000000, 1203.625000, 8258.000000, 8318.000000, 8352.000000
1993, 8821944.000000, 1182.875000, 8261.000000, 8320.500000, 8355.500000
1994, 8822104.000000, 1167.125000, 8254.000000, 8300.500000, 8332.500000
1995, 8822264.000000, 1153.625000, 8226.500000, 8250.000000, 8271.000000
1996, 8822424.000000, 1144.500000, 8189.500000, 8196.000000, 8200.000000
1997, 8822584.000000, 1134.500000, 8164.000000, 8164.500000, 8155.000000
1998, 8822744.000000, 1124.125000, 8158.000000, 8154.500000, 8139.500000
1999, 8822904.000000, 1110.750000, 8159.500000, 8155.500000, 8142.000000
2000, 8823064.000000, 1097.125000, 8164.500000, 8157.000000, 8145.000000
2001, 8823224.000000, 1081.750000, 8167.000000, 8156.500000, 8145.500000
2002, 8823384.000000, 1058.500000, 8169.500000, 8157.000000, 8147.500000
2003, 8823544.000000, 1022.125000, 8167.000000, 8155.500000, 8144.000000
2004, 8823704.000000, 995.000000, 8167.000000, 8153.000000, 8141.500000
2005, 8823864.000000, 1064.125000, 8165.000000, 8151.500000, 8136.500000
2006, 8824024.000000, 1341.250000, 8164.000000, 8151.500000, 8136.500000
2007, 8824184.000000, 1807.375000, 8164.500000, 8154.000000, 8140.000000
2008, 8824344.000000, 2300.375000, 8162.000000, 8155.500000, 8140.500000
2009, 8824504.000000, 2645.000000, 8165.000000, 8156.000000, 8141.500000
2010, 8824664.000000, 2769.500000, 8166.000000, 8158.000000, 8144.000000
2011, 8824824.000000, 2721.750000, 8166.500000, 8158.000000, 8144.500000
2012, 8824984.000000, 2578.000000, 8169.000000, 8161.500000, 8150.500000
2013, 8825144.000000, 2417.875000, 8169.500000, 8169.000000, 8161.500000
2014, 8825304.000000, 2271.000000, 8172.500000, 8172.000000, 8154.500000
2015, 8825464.000000, 2126.375000, 8182.500000, 8166.500000, 8157.500000
2016, 8825624.000000, 1972.750000, 8177.000000, 8166.500000, 8156.000000
2017, 8825784.000000, 1828.625000, 8169.500000, 8166.500000, 8153.000000
2018, 8825944.000000, 1741.875000, 8171.000000, 8168.000000, 8157.000000
2019, 8826104.000000, 1721.875000, 8170.000000, 8172.500000, 8162.500000
2020, 8826264.000000, 1750.000000, 8285.500000, 8257.000000, 8304.500000
2021, 8826424.000000, 1782.750000, 8530.500000, 7999.500000, 8184.000000
2022, 8826584.000000, 1793.875000, 8042.500000, 8034.500000, 7953.000000
2023, 8826744.000000, 1765.125000, 8110.000000, 8166.000000, 8095.500000
2024, 8826904.000000, 1702.000000, 8175.000000, 8226.500000, 8219.500000
2025, 8827064.000000, 1616.500000, 8186.500000, 8232.000000, 8232.500000
2026, 8827224.000000, 1525.875000, 8195.000000, 8238.500000, 8243.500000
2027, 8827384.000000, 1442.875000, 8203.000000, 8249.000000, 8259.000000
2028, 8827544.000000, 1379.125000, 8208.000000, 8260.500000, 8272.500000
2029, 8827704.000000, 1334.000000, 8218.500000, 8279.000000, 8297.500000
2030, 8827864.000000, 1299.500000, 8231.500000, 8303.500000, 8329.000000
2031, 8828024.000000, 1274.125000, 8246.500000, 8330.000000, 8363.500000
2032, 8828184.000000, 1254.000000, 8255.000000, 8347.000000, 8384.000000
2033, 8828344.000000, 1234.875000, 8256.000000, 8344.000000, 8380.000000
2034, 8828504.000000, 1219.750000, 8243.000000, 8308.000000, 8338.000000
2035, 8828664.000000, 1208.375000, 8213.500000, 8243.000000, 8260.000000
2036, 8828824.000000, 1200.500000, 8181.500000, 8186.500000, 8185.000000
2037, 8828984.000000, 1193.250000, 8164.000000, 8163.000000, 8150.500000
2038, 8829144.000000, 1188.250000, 8160.000000, 8159.000000, 8143.000000
2039, 8829304.000000, 1185.125000, 8162.500000, 8160.000000, 8145.500000
2040, 8829464.000000, 1181.250000, 8166.000000, 8161.000000, 8148.000000
2041, 8829624.000000, 1173.500000, 8169.500000, 8161.500000, 8150.000000
2042, 8829784.000000, 1148.375000, 8170.000000, 8160.500000, 8149.000000
2043, 8829944.000000, 1109.000000, 8170.000000, 8157.500000, 8146.500000
2044, 8830104.000000, 1114.375000, 8169.000000, 8154.500000, 8142.500000
2045, 8830264.000000, 1279.000000, 8169.000000, 8154.000000, 8140.000000
2046, 8830424.000000, 1686.875000, 8168.500000, 8154.500000, 8140.000000
2047, 8830584.000000, 2230.125000, 8169.000000, 8157.000000, 8143.000000
2048, 8830744.000000, 2709.375000, 8170.000000, 8158.000000, 8145.000000
2049, 8830904.000000, 2973.625000, 8171.000000, 8158.000000, 8145.500000
2050, 8831064.000000, 3009.250000, 8170.000000, 8158.000000, 8143.000000
2051, 8831224.000000, 2898.250000, 8172.500000, 8160.500000, 8148.000000
2052, 8831384.000000, 2731.500000, 8172.500000, 8163.500000, 8152.000000
2053, 8831544.000000, 2574.250000, 8172.000000, 8165.500000, 8155.500000
2054, 8831704.000000, 2440.125000, 8177.500000, 8176.000000, 8172.000000
2055, 8831864.000000, 2303.125000, 8178.500000, 8173.500000, 8160.000000
2056, 8832024.000000, 2152.875000, 8187.000000, 8169.500000, 8160.500000
2057, 8832184.000000, 2015.250000, 8177.500000, 8170.500000, 8158.500000
2058, 8832344.000000, 1934.250000, 8173.500000, 8168.500000, 8154.500000
2059, 8832504.000000, 1911.250000, 8174.500000, 8171.000000, 8158.500000
2060, 8832664.000000, 1922.625000, 8170.000000, 8185.000000, 8176.500000
2061, 8832824.000000, 1934.750000, 8363.500000, 8231.500000, 8314.000000
2062, 8832984.000000, 1922.125000, 8435.000000, 7956.500000, 8100.500000
2063, 8833144.000000, 1870.250000, 8045.500000, 8037.000000, 7939.000000
2064, 8833304.000000, 1789.125000, 8128.000000, 8186.500000, 8130.000000
2065, 8833464.000000, 1694.750000, 8179.500000, 8231.000000, 8225.000000
2066, 8833624.000000, 1605.000000, 8189.500000, 8237.500000, 8239.000000
2067, 8833784.000000, 1526.750000, 8196.500000, 8244.500000, 8249.500000
2068, 8833944.000000, 1466.125000, 8203.500000, 8253.500000, 8262.000000
2069, 8834104.000000, 1420.125000, 8211.500000, 8265.500000, 8277.500000
2070, 8834264.000000, 1383.125000, 8222.000000, 8284.000000, 8302.000000
2071, 8834424.000000, 1352.500000, 8235.000000, 8308.500000, 8334.000000
2072, 8834584.000000, 1325.625000, 8249.500000, 8335.500000, 8370.000000
2073, 8834744.000000, 1305.000000, 8256.500000, 8349.500000, 8386.500000
2074, 8834904.000000, 1290.125000, 8255.500000, 8343.500000, 8379.000000
2075, 8835064.000000, 1280.375000, 8242.000000, 8303.000000, 8331.500000
2076, 8835224.000000, 1275.250000, 8209.500000, 8236.000000, 8249.000000
2077, 8835384.000000, 1269.375000, 8177.500000, 8184.500000, 8180.500000
2078, 8835544.000000, 1263.875000, 8162.000000, 8163.500000, 8148.500000
2079, 8835704.000000, 1252.625000, 8162.000000, 8160.000000, 8145.000000
2080, 8835864.000000, 1241.500000, 8163.000000, 8161.000000, 8145.000000
2081, 8836024.000000, 1228.750000, 8167.500000, 8162.500000, 8150.500000
2082, 8836184.000000, 1210.625000, 8168.500000, 8162.000000, 8149.500000
2083, 8836344.000000, 1182.750000, 8171.000000, 8160.000000, 8149.000000
2084, 8836504.000000, 1144.500000, 8170.500000, 8157.000000, 8145.000000
2085, 8836664.000000, 1160.625000, 8168.000000, 8154.000000, 8139.000000
2086, 8836824.000000, 1349.375000, 8169.000000, 8154.500000, 8139.500000
2087, 8836984.000000, 1780.500000, 8169.000000, 8155.000000, 8141.000000
2088, 8837144.000000, 2333.875000, 8167.000000, 8156.000000, 8139.000000
2089, 8837304.000000, 2806.250000, 8168.500000, 8157.000000, 8142.500000
2090, 8837464.000000, 3042.250000, 8169.000000, 8158.000000, 8142.000000
2091, 8837624.000000, 3053.875000, 8169.500000, 8159.500000, 8144.000000
2092, 8837784.000000, 2915.125000, 8170.500000, 8162.000000, 8148.000000
2093, 8837944.000000, 2739.625000, 8170.000000, 8163.000000, 8148.000000
2094, 8838104.000000, 2588.125000, 8172.000000, 8164.000000, 8150.000000
2095, 8838264.000000, 2466.750000, 8172.000000, 8163.500000, 8150.500000
2096, 8838424.000000, 2342.375000, 8179.000000, 8179.500000, 8175.000000
2097, 8838584.000000, 2194.625000, 8183.000000, 8172.500000, 8163.000000
2098, 8838744.000000, 2058.500000, 8186.500000, 8170.000000, 8161.500000
2099, 8838904.000000, 1974.000000, 8174.000000, 8168.000000, 8153.500000
2100, 8839064.000000, 1954.000000, 8175.000000, 8169.000000, 8155.000000
2101, 8839224.000000, 1963.375000, 8176.500000, 8172.000000, 8160.000000
2102, 8839384.000000, 1967.500000, 8166.000000, 8220.500000, 8217.500000
2103, 8839544.000000, 1940.000000, 8516.000000, 8152.000000, 8307.000000
2104, 8839704.000000, 1882.125000, 8176.500000, 7996.500000, 8022.000000
2105, 8839864.000000, 1801.250000, 8060.500000, 8068.000000, 7966.500000
2106, 8840024.000000, 1710.125000, 8152.500000, 8204.500000, 8171.500000
2107, 8840184.000000, 1622.250000, 8184.000000, 8229.500000, 8225.500000
2108, 8840344.000000, 1547.250000, 8195.500000, 8234.500000, 8237.000000
2109, 8840504.000000, 1488.625000, 8201.500000, 8240.000000, 8244.500000
2110, 8840664.000000, 1445.375000, 8208.000000, 8249.500000, 8257.500000
2111, 8840824.000000, 1409.625000, 8219.000000, 8262.500000, 8277.500000
2112, 8840984.000000, 1380.500000, 8230.500000, 8281.500000, 8302.000000
2113, 8841144.000000, 1351.375000, 8243.500000, 8305.000000, 8332.000000
2114, 8841304.000000, 1323.625000, 8256.000000, 8326.500000, 8358.500000
2115, 8841464.000000, 1302.875000, 8264.500000, 8335.000000, 8370.500000
2116, 8841624.000000, 1287.125000, 8262.500000, 8325.000000, 8359.000000
2117, 8841784.000000, 1276.375000, 8244.500000, 8284.000000, 8310.000000
2118, 8841944.000000, 1267.500000, 8207.000000, 8222.000000, 8233.000000
2119, 8842104.000000, 1256.625000, 8178.500000, 8175.500000, 8170.000000
2120, 8842264.000000, 1245.125000, 8165.000000, 8160.000000, 8147.000000
2121, 8842424.000000, 1231.625000, 8164.500000, 8159.500000, 8145.500000
2122, 8842584.000000, 1222.500000, 8167.500000, 8162.000000, 8150.000000
2123, 8842744.000000, 1214.375000, 8172.500000, 8161.500000, 8151.000000
2124, 8842904.000000, 1201.375000, 8172.500000, 8158.000000, 8146.500000
2125, 8843064.000000, 1176.625000, 8175.000000, 8156.000000, 8146.000000
2126, 8843224.000000, 1144.250000, 8172.000000, 8154.500000, 8142.500000
2127, 8843384.000000, 1165.875000, 8170.000000, 8154.000000, 8140.500000
2128, 8843544.000000, 1356.875000, 8168.500000, 8152.500000, 8138.000000
2129, 8843704.000000, 1779.625000, 8169.000000, 8153.500000, 8137.500000
2130, 8843864.000000, 2315.750000, 8171.000000, 8154.000000, 8139.000000
2131, 8844024.000000, 2774.500000, 8169.500000, 8156.500000, 8140.000000
2132, 8844184.000000, 2995.750000, 8171.500000, 8158.000000, 8143.500000
2133, 8844344.000000, 3006.125000, 8172.500000, 8158.500000, 8145.000000
2134, 8844504.000000, 2870.750000, 8172.500000, 8159.000000, 8144.500000
2135, 8844664.000000, 2693.750000, 8175.000000, 8162.000000, 8150.000000
2136, 8844824.000000, 2533.250000, 8173.500000, 8165.000000, 8151.000000
2137, 8844984.000000, 2397.500000, 8178.000000, 8173.000000, 8152.000000
2138, 8845144.000000, 2256.125000, 8189.000000, 8167.500000, 8158.500000
2139, 8845304.000000, 2102.625000, 8181.500000, 8167.500000, 8156.000000
2140, 8845464.000000, 1977.375000, 8177.500000, 8166.000000, 8153.500000
2141, 8845624.000000, 1915.625000, 8180.000000, 8169.500000, 8160.500000
2142, 8845784.000000, 1916.375000, 8176.000000, 8173.500000, 8164.000000
2143, 8845944.000000, 1938.875000, 8296.500000, 8245.500000, 8288.000000
2144, 8846104.000000, 1948.125000, 8504.000000, 8116.000000, 8276.000000
2145, 8846264.000000, 1921.875000, 8054.000000, 8111.500000, 8066.500000
2146, 8846424.000000, 1855.625000, 8104.000000, 8136.000000, 8057.000000
2147, 8846584.000000, 1768.625000, 8177.500000, 8206.000000, 8193.000000
2148, 8846744.000000, 1669.000000, 8192.500000, 8214.000000, 8211.500000
2149, 8846904.000000, 1575.375000, 8202.500000, 8219.000000, 8222.000000
2150, 8847064.000000, 1500.250000, 8209.500000, 8224.500000, 8231.000000
2151, 8847224.000000, 1445.375000, 8219.000000, 8234.000000, 8245.000000
2152, 8847384.000000, 1406.750000, 8228.500000, 8247.500000, 8263.000000
2153, 8847544.000000, 1376.375000, 8242.500000, 8263.000000, 8284.500000
2154, 8847704.000000, 1351.625000, 8257.500000, 8282.000000, 8309.500000
2155, 8847864.000000, 1330.000000, 8270.000000, 8295.000000, 8326.000000
2156, 8848024.000000, 1310.375000, 8272.500000, 8293.500000, 8326.000000
2157, 8848184.000000, 1291.000000, 8257.000000, 8274.500000, 8301.000000
2158, 8848344.000000, 1274.750000, 8221.000000, 8238.000000, 8253.000000
2159, 8848504.000000, 1260.625000, 8179.000000, 8198.000000, 8196.500000
2160, 8848664.000000, 1249.500000, 8158.500000, 8173.500000, 8161.500000
2161, 8848824.000000, 1239.500000, 8153.000000, 8166.500000, 8151.500000
2162, 8848984.000000, 1231.875000, 8155.000000, 8168.000000, 8153.000000
2163, 8849144.000000, 1222.500000, 8159.000000, 8168.500000, 8154.000000
2164, 8849304.000000, 1209.750000, 8165.000000, 8167.000000, 8156.000000
2165, 8849464.000000, 1192.000000, 8166.000000, 8165.000000, 8153.000000
2166, 8849624.000000, 1165.125000, 8162.500000, 8164.500000, 8151.000000
2167, 8849784.000000, 1137.125000, 8160.500000, 8162.500000, 8147.000000
2168, 8849944.000000, 1163.125000, 8159.500000, 8161.000000, 8145.500000
2169, 8850104.000000, 1354.000000, 8160.000000, 8160.500000, 8144.500000
2170, 8850264.000000, 1759.625000, 8159.000000, 8161.000000, 8144.000000
2171, 8850424.000000, 2269.500000, 8160.000000, 8163.500000, 8147.500000
2172, 8850584.000000, 2682.000000, 8160.000000, 8164.500000, 8147.500000
2173, 8850744.000000, 2890.250000, 8161.000000, 8165.000000, 8148.000000
2174, 8850904.000000, 2882.375000, 8160.000000, 8164.500000, 8148.500000
2175, 8851064.000000, 2737.750000, 8168.000000, 8176.500000, 8164.500000
2176, 8851224.000000, 2542.750000, 8172.000000, 8172.000000, 8159.000000
2177, 8851384.000000, 2355.125000, 8174.000000, 8170.500000, 8157.500000
2178, 8851544.000000, 2174.000000, 8164.500000, 8169.000000, 8154.000000
2179, 8851704.000000, 1995.750000, 8162.500000, 8170.000000, 8154.500000
2180, 8851864.000000, 1843.250000, 8166.000000, 8172.000000, 8160.000000
2181, 8852024.000000, 1757.625000, 8157.000000, 8224.000000, 8219.000000
2182, 8852184.000000, 1753.500000, 8525.000000, 8158.000000, 8321.000000
2183, 8852344.000000, 1793.750000, 8119.500000, 8060.000000, 8069.500000
2184, 8852504.000000, 1830.375000, 8056.000000, 8087.000000, 7996.500000
2185, 8852664.000000, 1838.125000, 8135.000000, 8192.500000, 8149.000000
2186, 8852824.000000, 1807.875000, 8173.500000, 8223.000000, 8215.000000
2187, 8852984.000000, 1747.500000, 8184.500000, 8228.500000, 8228.500000
2188, 8853144.000000, 1663.875000, 8193.500000, 8234.000000, 8239.000000
2189, 8853304.000000, 1572.625000, 8201.000000, 8244.000000, 8252.000000
2190, 8853464.000000, 1487.750000, 8211.000000, 8256.000000, 8269.500000
2191, 8853624.000000, 1419.125000, 8222.500000, 8275.500000, 8295.000000
2192, 8853784.000000, 1368.625000, 8236.000000, 8300.500000, 8327.000000
2193, 8853944.000000, 1330.625000, 8251.500000, 8321.500000, 8355.000000
2194, 8854104.000000, 1303.625000, 8258.500000, 8328.000000, 8363.500000
2195, 8854264.000000, 1282.875000, 8254.000000, 8313.500000, 8345.500000
2196, 8854424.000000, 1267.125000, 8229.500000, 8269.500000, 8293.500000
2197, 8854584.000000, 1253.625000, 8187.500000, 8214.000000, 8219.000000
2198, 8854744.000000, 1246.250000, 8161.000000, 8174.500000, 8165.000000
2199, 8854904.000000, 1242.125000, 8151.000000, 8161.000000, 8145.000000
2200, 8855064.000000, 1237.250000, 8152.000000, 8161.000000, 8144.000000
2201, 8855224.000000, 1232.250000, 8156.500000, 8164.500000, 8151.000000
2202, 8855384.000000, 1223.125000, 8160.500000, 8166.500000, 8155.000000
2203, 8855544.000000, 1205.125000, 8163.000000, 8164.000000, 8152.000000
2204, 8855704.000000, 1172.000000, 8165.500000, 8161.500000, 8151.000000
2205, 8855864.000000, 1130.125000, 8162.500000, 8159.500000, 8147.000000
2206, 8856024.000000, 1102.875000, 8162.000000, 8158.000000, 8145.000000
2207, 8856184.000000, 1195.125000, 8160.000000, 8157.500000, 8142.500000
2208, 8856344.000000, 1495.125000, 8160.500000, 8157.000000, 8141.500000
2209, 8856504.000000, 1977.250000, 8161.500000, 8156.000000, 8141.000000
2210, 8856664.000000, 2455.500000, 8162.000000, 8158.000000, 8143.000000
2211, 8856824.000000, 2780.750000, 8162.000000, 8160.000000, 8145.000000
2212, 8856984.000000, 2873.625000, 8163.000000, 8162.000000, 8147.000000
2213, 8857144.000000, 2804.875000, 8163.500000, 8162.500000, 8149.000000
2214, 8857304.000000, 2651.875000, 8164.000000, 8165.500000, 8154.500000
2215, 8857464.000000, 2489.750000, 8168.500000, 8175.500000, 8156.000000
2216, 8857624.000000, 2346.000000, 8178.000000, 8168.000000, 8158.000000
2217, 8857784.000000, 2200.625000, 8174.000000, 8170.500000, 8160.000000
2218, 8857944.000000, 2035.875000, 8164.500000, 8167.500000, 8153.500000
2219, 8858104.000000, 1879.125000, 8168.000000, 8168.000000, 8155.500000
2220, 8858264.000000, 1785.375000, 8170.000000, 8170.000000, 8160.000000
2221, 8858424.000000, 1762.875000, 8230.000000, 8260.000000, 8287.000000
2222, 8858584.000000, 1786.500000, 8586.500000, 8041.500000, 8246.500000
2223, 8858744.000000, 1810.125000, 8042.500000, 8036.000000, 7970.500000
2224, 8858904.000000, 1811.000000, 8095.500000, 8147.500000, 8066.500000
2225, 8859064.000000, 1775.375000, 8170.000000, 8223.500000, 8215.000000
2226, 8859224.000000, 1706.250000, 8182.000000, 8231.500000, 8231.000000
2227, 8859384.000000, 1615.750000, 8190.000000, 8236.500000, 8240.500000
2228, 8859544.000000, 1522.500000, 8196.500000, 8244.000000, 8251.000000
2229, 8859704.000000, 1438.000000, 8204.500000, 8255.500000, 8267.000000
2230, 8859864.000000, 1371.750000, 8214.000000, 8271.500000, 8289.000000
2231, 8860024.000000, 1325.000000, 8227.000000, 8296.500000, 8321.000000
2232, 8860184.000000, 1289.875000, 8242.000000, 8324.000000, 8356.500000
2233, 8860344.000000, 1266.125000, 8254.000000, 8341.000000, 8379.000000
2234, 8860504.000000, 1248.750000, 8258.000000, 8339.500000, 8378.500000
2235, 8860664.000000, 1235.625000, 8246.000000, 8310.500000, 8343.500000
2236, 8860824.000000, 1228.250000, 8212.000000, 8248.500000, 8266.000000
2237, 8860984.000000, 1222.375000, 8178.000000, 8189.500000, 8191.000000
2238, 8861144.000000, 1216.250000, 8158.000000, 8161.500000, 8148.500000
2239, 8861304.000000, 1211.250000, 8152.000000, 8155.000000, 8138.000000
2240, 8861464.000000, 1210.375000, 8154.000000, 8157.500000, 8141.500000
2241, 8861624.000000, 1214.750000, 8157.500000, 8161.500000, 8148.000000
2242, 8861784.000000, 1215.625000, 8161.000000, 8161.000000, 8150.000000
2243, 8861944.000000, 1209.500000, 8165.000000, 8158.500000, 8149.500000
2244, 8862104.000000, 1183.375000, 8165.000000, 8156.000000, 8145.000000
2245, 8862264.000000, 1149.125000, 8164.000000, 8153.500000, 8142.500000
2246, 8862424.000000, 1186.750000, 8163.000000, 8153.500000, 8140.500000
2247, 8862584.000000, 1427.500000, 8164.000000, 8153.500000, 8140.500000
2248, 8862744.000000, 1894.625000, 8163.000000, 8153.000000, 8138.000000
2249, 8862904.000000, 2459.125000, 8165.000000, 8154.000000, 8141.000000
2250, 8863064.000000, 2894.500000, 8164.500000, 8155.500000, 8141.500000
2251, 8863224.000000, 3104.000000, 8164.000000, 8158.000000, 8143.000000
2252, 8863384.000000, 3082.375000, 8164.000000, 8160.000000, 8145.000000
2253, 8863544.000000, 2945.125000, 8166.500000, 8159.500000, 8145.000000
2254, 8863704.000000, 2777.000000, 8169.500000, 8160.500000, 8149.000000
2255, 8863864.000000, 2633.500000, 8172.000000, 8162.500000, 8154.500000
2256, 8864024.000000, 2509.875000, 8169.000000, 8169.000000, 8161.000000
2257, 8864184.000000, 2369.500000, 8173.000000, 8177.000000, 8160.000000
2258, 8864344.000000, 2199.750000, 8184.500000, 8168.000000, 8160.500000
2259, 8864504.000000, 2042.000000, 8180.000000, 8167.500000, 8159.000000
2260, 8864664.000000, 1952.125000, 8172.000000, 8166.500000, 8154.500000
2261, 8864824.000000, 1927.250000, 8173.000000, 8169.500000, 8160.500000
2262, 8864984.000000, 1940.250000, 8172.500000, 8172.000000, 8163.500000
2263, 8865144.000000, 1944.250000, 8253.000000, 8258.500000, 8293.000000
2264, 8865304.000000, 1918.875000, 8575.000000, 7995.500000, 8199.000000
2265, 8865464.000000, 1858.500000, 8045.500000, 8020.500000, 7941.500000
2266, 8865624.000000, 1770.750000, 8106.000000, 8160.500000, 8086.500000
2267, 8865784.000000, 1672.000000, 8174.000000, 8228.500000, 8222.000000
2268, 8865944.000000, 1580.625000, 8188.000000, 8235.000000, 8237.500000
2269, 8866104.000000, 1504.500000, 8193.500000, 8239.000000, 8243.000000
2270, 8866264.000000, 1445.875000, 8201.000000, 8247.000000, 8256.000000
2271, 8866424.000000, 1405.750000, 8208.000000, 8261.000000, 8273.000000
2272, 8866584.000000, 1376.250000, 8218.000000, 8277.000000, 8295.000000
2273, 8866744.000000, 1354.000000, 8230.500000, 8301.000000, 8326.000000
2274, 8866904.000000, 1334.000000, 8246.000000, 8326.500000, 8360.500000
2275, 8867064.000000, 1315.875000, 8257.000000, 8343.500000, 8381.500000
2276, 8867224.000000, 1300.750000, 8258.000000, 8345.000000, 8383.000000
2277, 8867384.000000, 1287.625000, 8248.000000, 8314.500000, 8349.000000
2278, 8867544.000000, 1277.500000, 8217.500000, 8249.000000, 8268.000000
2279, 8867704.000000, 1264.750000, 8184.500000, 8188.500000, 8190.500000
2280, 8867864.000000, 1246.000000, 8161.000000, 8159.500000, 8146.000000
2281, 8868024.000000, 1226.000000, 8156.500000, 8156.000000, 8139.500000
2282, 8868184.000000, 1207.750000, 8157.000000, 8157.000000, 8141.000000
2283, 8868344.000000, 1195.500000, 8162.000000, 8158.000000, 8145.000000
2284, 8868504.000000, 1186.500000, 8164.000000, 8158.500000, 8145.500000
2285, 8868664.000000, 1173.750000, 8169.000000, 8157.500000, 8147.500000
2286, 8868824.000000, 1143.750000, 8168.000000, 8156.000000, 8145.500000
2287, 8868984.000000, 1116.375000, 8167.000000, 8153.000000, 8140.000000
2288, 8869144.000000, 1243.875000, 8166.000000, 8151.000000, 8136.000000
2289, 8869304.000000, 1695.125000, 8166.000000, 8149.500000, 8135.500000
2290, 8869464.000000, 2320.375000, 8166.000000, 8150.500000, 8134.500000
2291, 8869624.000000, 2873.625000, 8165.000000, 8153.500000, 8139.000000
2292, 8869784.000000, 3127.750000, 8165.500000, 8154.000000, 8138.500000
2293, 8869944.000000, 3047.375000, 8167.500000, 8154.000000, 8140.000000
2294, 8870104.000000, 2863.375000, 8171.000000, 8157.000000, 8144.000000
2295, 8870264.000000, 2690.750000, 8171.500000, 8158.500000, 8146.000000
2296, 8870424.000000, 2575.500000, 8172.000000, 8161.500000, 8149.500000
2297, 8870584.000000, 2461.000000, 8172.000000, 8162.000000, 8150.000000
2298, 8870744.000000, 2305.750000, 8170.500000, 8159.500000, 8147.500000
2299, 8870904.000000, 2133.375000, 8181.500000, 8176.000000, 8167.500000
2300, 8871064.000000, 2005.375000, 8186.000000, 8168.500000, 8161.500000
2301, 8871224.000000, 1942.750000, 8186.500000, 8169.500000, 8162.000000
2302, 8871384.000000, 1937.125000, 8176.000000, 8167.000000, 8156.000000
2303, 8871544.000000, 1942.875000, 8177.000000, 8169.000000, 8158.000000
2304, 8871704.000000, 1925.625000, 8179.500000, 8171.000000, 8163.000000
2305, 8871864.000000, 1870.250000, 8169.000000, 8227.500000, 8229.000000
2306, 8872024.000000, 1784.375000, 8554.000000, 8145.000000, 8320.000000
2307, 8872184.000000, 1685.000000, 8133.500000, 8043.500000, 8052.500000
2308, 8872344.000000, 1590.500000, 8070.500000, 8091.000000, 8000.500000
2309, 8872504.000000, 1506.875000, 8151.000000, 8202.500000, 8167.500000
2310, 8872664.000000, 1442.750000, 8187.000000, 8231.500000, 8229.500000
2311, 8872824.000000, 1395.125000, 8196.000000, 8238.000000, 8242.000000
2312, 8872984.000000, 1359.125000, 8202.000000, 8244.000000, 8251.500000
2313, 8873144.000000, 1331.250000, 8210.500000, 8254.500000, 8265.000000
2314, 8873304.000000, 1310.000000, 8220.500000, 8268.000000, 8283.000000
2315, 8873464.000000, 1292.750000, 8232.000000, 8286.000000, 8307.500000
2316, 8873624.000000, 1278.125000, 8248.000000, 8311.500000, 8341.500000
2317, 8873784.000000, 1266.625000, 8263.000000, 8331.500000, 8367.500000
2318, 8873944.000000, 1253.125000, 8271.500000, 8339.500000, 8378.500000
2319, 8874104.000000, 1236.875000, 8269.000000, 8328.500000, 8364.500000
2320, 8874264.000000, 1217.000000, 8246.000000, 8291.000000, 8318.000000
2321, 8874424.000000, 1199.750000, 8205.500000, 8236.500000, 8247.500000
2322, 8874584.000000, 1184.750000, 8173.000000, 8194.000000, 8187.000000
2323, 8874744.000000, 1171.625000, 8159.000000, 8178.500000, 8163.500000
2324, 8874904.000000, 1164.250000, 8158.500000, 8176.000000, 8160.000000
2325, 8875064.000000, 1158.375000, 8163.000000, 8181.500000, 8169.500000
2326, 8875224.000000, 1148.125000, 8165.500000, 8184.000000, 8171.500000
2327, 8875384.000000, 1127.375000, 8170.000000, 8182.500000, 8171.500000
2328, 8875544.000000, 1099.125000, 8171.000000, 8180.500000, 8169.500000
2329, 8875704.000000, 1118.375000, 8168.000000, 8178.000000, 8167.000000
2330, 8875864.000000, 1319.250000, 8170.500000, 8177.500000, 8165.500000
2331, 8876024.000000, 1744.875000, 8167.000000, 8178.000000, 8165.000000
2332, 8876184.000000, 2301.500000, 8166.000000, 8177.500000, 8163.500000
2333, 8876344.000000, 2770.625000, 8169.000000, 8178.500000, 8165.500000
2334, 8876504.000000, 3001.625000, 8170.000000, 8179.500000, 8166.500000
2335, 8876664.000000, 2997.750000, 8170.000000, 8180.500000, 8169.000000
2336, 8876824.000000, 2852.250000, 8172.000000, 8183.000000, 8171.000000
2337, 8876984.000000, 2665.250000, 8173.000000, 8183.500000, 8172.500000
2338, 8877144.000000, 2504.000000, 8172.000000, 8184.000000, 8172.000000
2339, 8877304.000000, 2372.375000, 8174.000000, 8185.000000, 8176.000000
2340, 8877464.000000, 2232.500000, 8178.000000, 8192.000000, 8185.000000
2341, 8877624.000000, 2074.125000, 8178.500000, 8195.500000, 8180.000000
2342, 8877784.000000, 1929.750000, 8185.000000, 8188.500000, 8179.500000
2343, 8877944.000000, 1852.375000, 8177.000000, 8188.500000, 8178.000000
2344, 8878104.000000, 1844.250000, 8173.500000, 8187.000000, 8177.000000
2345, 8878264.000000, 1867.625000, 8177.500000, 8188.500000, 8180.000000
2346, 8878424.000000, 1877.875000, 8170.000000, 8201.000000, 8194.500000
2347, 8878584.000000, 1855.750000, 8373.000000, 8252.000000, 8332.000000
2348, 8878744.000000, 1795.750000, 8397.500000, 8104.500000, 8230.500000
2349, 8878904.000000, 1710.625000, 8055.000000, 8114.000000, 8051.000000
2350, 8879064.000000, 1611.375000, 8113.500000, 8173.000000, 8105.000000
2351, 8879224.000000, 1517.500000, 8179.000000, 8228.500000, 8223.000000
2352, 8879384.000000, 1438.875000, 8190.000000, 8233.500000, 8235.500000
2353, 8879544.000000, 1379.625000, 8200.500000, 8239.000000, 8247.500000
2354, 8879704.000000, 1340.125000, 8206.500000, 8246.500000, 8257.000000
2355, 8879864.000000, 1309.375000, 8217.000000, 8257.000000, 8272.500000
2356, 8880024.000000, 1286.375000, 8226.000000, 8271.500000, 8291.000000
2357, 8880184.000000, 1269.750000, 8242.000000, 8291.000000, 8317.500000
2358, 8880344.000000, 1255.750000, 8258.500000, 8311.500000, 8345.000000
2359, 8880504.000000, 1243.500000, 8272.000000, 8321.500000, 8360.000000
2360, 8880664.000000, 1233.875000, 8271.500000, 8319.500000, 8356.500000
2361, 8880824.000000, 1227.250000, 8252.500000, 8291.000000, 8321.000000
2362, 8880984.000000, 1217.875000, 8211.000000, 8246.000000, 8260.500000
2363, 8881144.000000, 1207.625000, 8173.500000, 8200.000000, 8197.000000
2364, 8881304.000000, 1192.750000, 8154.000000, 8177.500000, 8165.500000
2365, 8881464.000000, 1174.125000, 8151.000000, 8172.500000, 8156.500000
2366, 8881624.000000, 1153.625000, 8153.000000, 8175.000000, 8160.000000
2367, 8881784.000000, 1126.500000, 8157.500000, 8177.000000, 8164.500000
2368, 8881944.000000, 1092.375000, 8163.000000, 8175.000000, 8164.000000
2369, 8882104.000000, 1053.125000, 8163.500000, 8175.000000, 8163.500000
2370, 8882264.000000, 1026.000000, 8164.000000, 8173.000000, 8162.000000
2371, 8882424.000000, 1080.500000, 8161.500000, 8171.500000, 8158.500000
2372, 8882584.000000, 1350.375000, 8161.000000, 8169.000000, 8156.000000
2373, 8882744.000000, 1819.500000, 8160.000000, 8169.000000, 8155.000000
2374, 8882904.000000, 2360.250000, 8159.500000, 8169.000000, 8154.500000
2375, 8883064.000000, 2754.375000, 8161.000000, 8171.500000, 8158.000000
2376, 8883224.000000, 2909.625000, 8161.000000, 8173.000000, 8158.000000
2377, 8883384.000000, 2854.250000, 8162.000000, 8173.000000, 8160.000000
2378, 8883544.000000, 2687.750000, 8165.000000, 8174.000000, 8163.000000
2379, 8883704.000000, 2497.250000, 8163.500000, 8175.000000, 8161.500000
2380, 8883864.000000, 2332.125000, 8165.500000, 8176.500000, 8165.000000
2381, 8884024.000000, 2179.750000, 8162.500000, 8176.500000, 8164.000000
2382, 8884184.000000, 2016.500000, 8172.000000, 8188.500000, 8182.500000
2383, 8884344.000000, 1856.500000, 8175.500000, 8182.500000, 8173.000000
2384, 8884504.000000, 1747.250000, 8179.000000, 8177.500000, 8168.500000
2385, 8884664.000000, 1714.500000, 8168.000000, 8177.000000, 8164.500000
2386, 8884824.000000, 1733.500000, 8168.000000, 8179.000000, 8168.000000
2387, 8884984.000000, 1760.875000, 8169.500000, 8178.000000, 8167.500000
2388, 8885144.000000, 1764.500000, 8159.000000, 8219.500000, 8217.500000
2389, 8885304.000000, 1737.125000, 8489.500000, 8171.500000, 8318.000000
2390, 8885464.000000, 1676.125000, 8219.000000, 8017.000000, 8065.000000
2391, 8885624.000000, 1596.250000, 8052.000000, 8077.000000, 7982.000000
2392, 8885784.000000, 1508.875000, 8136.000000, 8199.500000, 8158.500000
2393, 8885944.000000, 1428.750000, 8175.500000, 8230.500000, 8227.000000
2394, 8886104.000000, 1363.375000, 8186.500000, 8235.000000, 8238.500000
2395, 8886264.000000, 1313.250000, 8193.000000, 8241.500000, 8247.500000
2396, 8886424.000000, 1274.500000, 8199.500000, 8250.500000, 8260.500000
2397, 8886584.000000, 1244.500000, 8206.000000, 8262.500000, 8275.000000
2398, 8886744.000000, 1214.500000, 8220.500000, 8280.500000, 8301.500000
2399, 8886904.000000, 1190.875000, 8234.500000, 8305.500000, 8335.000000
2400, 8887064.000000, 1179.250000, 8250.000000, 8331.000000, 8368.500000
2401, 8887224.000000, 1179.750000, 8259.000000, 8341.000000, 8381.000000
2402, 8887384.000000, 1187.125000, 8258.000000, 8328.500000, 8367.500000
2403, 8887544.000000, 1195.625000, 8237.000000, 8281.000000, 8310.000000
2404, 8887704.000000, 1199.000000, 8200.000000, 8218.000000, 8229.500000
2405, 8887864.000000, 1191.625000, 8167.500000, 8170.000000, 8164.000000
2406, 8888024.000000, 1181.500000, 8154.000000, 8151.500000, 8136.500000
2407, 8888184.000000, 1168.750000, 8151.500000, 8148.000000, 8130.500000
2408, 8888344.000000, 1157.125000, 8155.000000, 8151.000000, 8136.000000
2409, 8888504.000000, 1142.750000, 8158.500000, 8153.000000, 8141.000000
2410, 8888664.000000, 1118.500000, 8163.000000, 8153.000000, 8144.000000
2411, 8888824.000000, 1083.000000, 8164.000000, 8150.000000, 8139.000000
2412, 8888984.000000, 1075.250000, 8165.500000, 8146.500000, 8137.000000
2413, 8889144.000000, 1207.750000, 8163.000000, 8142.000000, 8130.000000
2414, 8889304.000000, 1587.125000, 8164.000000, 8142.000000, 8129.000000
2415, 8889464.000000, 2151.125000, 8164.000000, 8142.500000, 8129.500000
2416, 8889624.000000, 2694.625000, 8163.000000, 8142.000000, 8129.000000
2417, 8889784.000000, 3030.250000, 8163.500000, 8142.000000, 8128.500000
2418, 8889944.000000, 3107.625000, 8165.000000, 8142.000000, 8129.000000
2419, 8890104.000000, 3008.250000, 8164.000000, 8144.500000, 8129.500000
2420, 8890264.000000, 2829.625000, 8165.000000, 8146.500000, 8133.500000
2421, 8890424.000000, 2660.750000, 8164.500000, 8146.000000, 8132.000000
2422, 8890584.000000, 2529.750000, 8167.500000, 8147.000000, 8135.000000
2423, 8890744.000000, 2410.250000, 8168.000000, 8148.000000, 8135.000000
2424, 8890904.000000, 2269.375000, 8163.000000, 8143.500000, 8127.500000
2425, 8891064.000000, 2110.750000, 8173.500000, 8164.000000, 8149.000000
2426, 8891224.000000, 1988.875000, 8175.000000, 8151.500000, 8138.500000
2427, 8891384.000000, 1931.625000, 8181.500000, 8152.000000, 8143.500000
2428, 8891544.000000, 1928.500000, 8172.000000, 8151.000000, 8139.000000
2429, 8891704.000000, 1938.625000, 8172.000000, 8152.500000, 8142.500000
2430, 8891864.000000, 1931.250000, 8173.000000, 8155.000000, 8146.000000
2431, 8892024.000000, 1887.875000, 8161.500000, 8195.500000, 8196.000000
2432, 8892184.000000, 1812.875000, 8484.000000, 8148.500000, 8295.000000
2433, 8892344.000000, 1720.750000, 8252.500000, 7942.500000, 8004.000000
2434, 8892504.000000, 1628.250000, 8053.000000, 8039.000000, 7936.000000
2435, 8892664.000000, 1546.000000, 8146.500000, 8190.500000, 8158.500000
2436, 8892824.000000, 1479.375000, 8178.500000, 8217.000000, 8216.000000
2437, 8892984.000000, 1427.375000, 8188.500000, 8221.000000, 8225.500000
2438, 8893144.000000, 1388.375000, 8194.500000, 8227.000000, 8233.500000
2439, 8893304.000000, 1355.500000, 8201.000000, 8235.000000, 8244.000000
2440, 8893464.000000, 1329.250000, 8210.500000, 8250.000000, 8265.500000
2441, 8893624.000000, 1305.125000, 8220.000000, 8269.000000, 8290.500000
2442, 8893784.000000, 1284.750000, 8234.500000, 8293.500000, 8322.500000
2443, 8893944.000000, 1269.750000, 8250.500000, 8319.000000, 8356.000000
2444, 8894104.000000, 1257.125000, 8259.500000, 8331.500000, 8371.500000
2445, 8894264.000000, 1243.625000, 8257.000000, 8323.000000, 8363.000000
2446, 8894424.000000, 1233.500000, 8237.000000, 8275.000000, 8305.000000
2447, 8894584.000000, 1223.500000, 8202.000000, 8205.500000, 8218.000000
2448, 8894744.000000, 1208.375000, 8170.500000, 8155.000000, 8150.000000
2449, 8894904.000000, 1191.750000, 8156.000000, 8137.000000, 8122.000000
2450, 8895064.000000, 1176.750000, 8153.000000, 8136.500000, 8119.500000
2451, 8895224.000000, 1163.625000, 8156.000000, 8139.500000, 8124.500000
2452, 8895384.000000, 1150.125000, 8161.000000, 8140.000000, 8127.000000
2453, 8895544.000000, 1133.125000, 8166.000000, 8141.000000, 8131.000000
2454, 8895704.000000, 1104.500000, 8166.000000, 8141.000000, 8130.000000
2455, 8895864.000000, 1098.250000, 8165.000000, 8140.000000, 8129.000000
2456, 8896024.000000, 1222.750000, 8164.000000, 8137.000000, 8124.000000
2457, 8896184.000000, 1592.500000, 8163.500000, 8135.500000, 8121.000000
2458, 8896344.000000, 2159.125000, 8163.000000, 8135.000000, 8119.000000
2459, 8896504.000000, 2726.125000, 8163.000000, 8137.500000, 8121.500000
2460, 8896664.000000, 3074.000000, 8164.000000, 8140.000000, 8125.000000
2461, 8896824.000000, 3172.875000, 8164.500000, 8141.000000, 8125.000000
2462, 8896984.000000, 3074.375000, 8166.000000, 8143.000000, 8129.000000
2463, 8897144.000000, 2902.000000, 8166.500000, 8144.000000, 8130.500000
2464, 8897304.000000, 2740.750000, 8169.000000, 8147.500000, 8133.500000
2465, 8897464.000000, 2625.125000, 8169.000000, 8149.500000, 8136.500000
2466, 8897624.000000, 2521.375000, 8171.000000, 8151.000000, 8140.500000
2467, 8897784.000000, 2387.500000, 8168.000000, 8154.500000, 8136.000000
2468, 8897944.000000, 2220.875000, 8172.500000, 8157.000000, 8134.500000
2469, 8898104.000000, 2073.375000, 8185.000000, 8157.500000, 8148.500000
2470, 8898264.000000, 1987.875000, 8181.000000, 8158.000000, 8151.000000
2471, 8898424.000000, 1964.250000, 8173.000000, 8158.500000, 8147.500000
2472, 8898584.000000, 1968.375000, 8176.000000, 8159.500000, 8150.500000
2473, 8898744.000000, 1963.625000, 8177.500000, 8162.500000, 8155.000000
2474, 8898904.000000, 1927.375000, 8233.000000, 8247.000000, 8272.500000
2475, 8899064.000000, 1857.125000, 8599.500000, 8030.000000, 8240.500000
2476, 8899224.000000, 1758.250000, 8049.500000, 8026.500000, 7962.000000
2477, 8899384.000000, 1654.125000, 8102.500000, 8141.000000, 8063.500000
2478, 8899544.000000, 1560.250000, 8178.500000, 8218.500000, 8214.500000
2479, 8899704.000000, 1483.500000, 8190.500000, 8226.500000, 8229.500000
2480, 8899864.000000, 1425.875000, 8197.500000, 8231.000000, 8237.500000
2481, 8900024.000000, 1383.000000, 8204.000000, 8238.000000, 8247.000000
2482, 8900184.000000, 1347.125000, 8212.500000, 8248.500000, 8262.000000
2483, 8900344.000000, 1316.500000, 8224.000000, 8265.000000, 8285.000000
2484, 8900504.000000, 1289.250000, 8236.000000, 8286.500000, 8311.000000
2485, 8900664.000000, 1266.125000, 8250.000000, 8313.500000, 8345.000000
2486, 8900824.000000, 1248.375000, 8266.000000, 8332.500000, 8371.000000
2487, 8900984.000000, 1232.625000, 8270.000000, 8333.000000, 8373.000000
2488, 8901144.000000, 1217.750000, 8261.500000, 8307.000000, 8342.000000
2489, 8901304.000000, 1202.750000, 8230.000000, 8249.000000, 8270.500000
2490, 8901464.000000, 1187.750000, 8189.500000, 8189.500000, 8191.000000
2491, 8901624.000000, 1172.750000, 8164.500000, 8158.500000, 8145.500000
2492, 8901784.000000, 1161.875000, 8158.500000, 8151.000000, 8135.000000
2493, 8901944.000000, 1155.250000, 8160.000000, 8152.000000, 8135.000000
2494, 8902104.000000, 1148.500000, 8164.500000, 8156.000000, 8142.000000
2495, 8902264.000000, 1133.000000, 8167.000000, 8156.000000, 8143.000000
2496, 8902424.000000, 1106.375000, 8170.000000, 8154.500000, 8141.500000
2497, 8902584.000000, 1067.875000, 8169.500000, 8152.500000, 8140.000000
2498, 8902744.000000, 1074.500000, 8169.500000, 8150.000000, 8136.500000
2499, 8902904.000000, 1227.250000, 8167.500000, 8149.500000, 8135.500000
2500, 8903064.000000, 1638.625000, 8169.000000, 8150.000000, 8138.000000
2501, 8903224.000000, 2197.250000, 8169.000000, 8150.000000, 8136.000000
2502, 8903384.000000, 2709.875000, 8168.000000, 8150.500000, 8136.000000
2503, 8903544.000000, 3000.250000, 8169.000000, 8151.000000, 8137.000000
2504, 8903704.000000, 3050.250000, 8170.000000, 8153.500000, 8140.500000
2505, 8903864.000000, 2929.875000, 8173.000000, 8155.500000, 8144.000000
2506, 8904024.000000, 2744.500000, 8172.500000, 8155.000000, 8143.000000
2507, 8904184.000000, 2571.875000, 8168.500000, 8153.000000, 8138.500000
2508, 8904344.000000, 2434.250000, 8174.500000, 8161.500000, 8144.000000
2509, 8904504.000000, 2302.125000, 8177.500000, 8160.500000, 8143.000000
2510, 8904664.000000, 2145.250000, 8187.000000, 8162.500000, 8154.500000
2511, 8904824.000000, 1989.250000, 8177.000000, 8162.000000, 8153.000000
2512, 8904984.000000, 1885.000000, 8177.000000, 8163.000000, 8154.000000
2513, 8905144.000000, 1850.750000, 8179.500000, 8163.500000, 8156.500000
2514, 8905304.000000, 1858.250000, 8174.000000, 8176.000000, 8169.500000
2515, 8905464.000000, 1868.750000, 8361.500000, 8236.500000, 8311.500000
2516, 8905624.000000, 1850.375000, 8421.000000, 8094.500000, 8227.500000
2517, 8905784.000000, 1799.125000, 8056.000000, 8100.500000, 8043.000000
2518, 8905944.000000, 1719.500000, 8110.500000, 8146.500000, 8075.500000
2519, 8906104.000000, 1627.625000, 8180.500000, 8207.000000, 8199.000000
2520, 8906264.000000, 1539.625000, 8193.000000, 8213.000000, 8215.000000
2521, 8906424.000000, 1464.500000, 8202.500000, 8219.000000, 8226.000000
2522, 8906584.000000, 1408.875000, 8210.000000, 8223.500000, 8231.500000
2523, 8906744.000000, 1367.875000, 8219.000000, 8232.500000, 8246.500000
2524, 8906904.000000, 1339.250000, 8230.500000, 8247.000000, 8265.500000
2525, 8907064.000000, 1316.125000, 8242.500000, 8264.500000, 8287.500000
2526, 8907224.000000, 1294.000000, 8261.000000, 8285.000000, 8317.000000
2527, 8907384.000000, 1271.250000, 8276.000000, 8297.000000, 8334.000000
2528, 8907544.000000, 1250.375000, 8278.000000, 8294.500000, 8330.500000
2529, 8907704.000000, 1234.750000, 8261.500000, 8271.500000, 8301.500000
2530, 8907864.000000, 1223.500000, 8217.500000, 8229.000000, 8244.000000
2531, 8908024.000000, 1218.125000, 8176.500000, 8186.500000, 8183.500000
2532, 8908184.000000, 1213.625000, 8157.500000, 8162.000000, 8148.500000
2533, 8908344.000000, 1212.125000, 8154.000000, 8156.000000, 8140.000000
2534, 8908504.000000, 1206.875000, 8156.000000, 8157.500000, 8142.500000
2535, 8908664.000000, 1195.750000, 8161.000000, 8160.000000, 8148.500000
2536, 8908824.000000, 1172.500000, 8164.000000, 8159.000000, 8146.000000
2537, 8908984.000000, 1137.875000, 8166.500000, 8156.000000, 8144.500000
2538, 8909144.000000, 1095.625000, 8164.000000, 8155.000000, 8141.500000
2539, 8909304.000000, 1072.125000, 8163.000000, 8154.500000, 8140.500000
2540, 8909464.000000, 1172.500000, 8159.000000, 8154.000000, 8138.500000
2541, 8909624.000000, 1477.875000, 8161.000000, 8153.000000, 8136.000000
2542, 8909784.000000, 1978.375000, 8161.000000, 8153.000000, 8136.000000
2543, 8909944.000000, 2481.750000, 8161.000000, 8155.500000, 8138.500000
2544, 8910104.000000, 2811.125000, 8162.000000, 8157.500000, 8142.500000
2545, 8910264.000000, 2901.125000, 8163.000000, 8158.000000, 8142.000000
2546, 8910424.000000, 2803.625000, 8162.500000, 8158.500000, 8144.000000
2547, 8910584.000000, 2620.875000, 8160.500000, 8159.000000, 8136.500000
2548, 8910744.000000, 2426.250000, 8165.500000, 8164.500000, 8139.000000
2549, 8910904.000000, 2251.375000, 8177.000000, 8164.500000, 8152.000000
2550, 8911064.000000, 2086.875000, 8173.000000, 8166.500000, 8155.000000
2551, 8911224.000000, 1920.250000, 8167.500000, 8165.000000, 8152.000000
2552, 8911384.000000, 1787.125000, 8168.500000, 8166.000000, 8154.500000
2553, 8911544.000000, 1726.750000, 8169.500000, 8168.500000, 8158.000000
2554, 8911704.000000, 1736.625000, 8225.500000, 8253.000000, 8275.500000
2555, 8911864.000000, 1777.875000, 8578.000000, 8096.000000, 8295.000000
2556, 8912024.000000, 1807.625000, 8044.000000, 8076.500000, 8030.000000
2557, 8912184.000000, 1806.750000, 8089.500000, 8130.000000, 8047.000000
2558, 8912344.000000, 1768.750000, 8167.000000, 8210.500000, 8197.000000
2559, 8912504.000000, 1699.000000, 8183.500000, 8221.500000, 8220.000000
2560, 8912664.000000, 1607.750000, 8190.000000, 8226.500000, 8228.500000
2561, 8912824.000000, 1512.750000, 8199.000000, 8232.000000, 8238.000000
2562, 8912984.000000, 1427.750000, 8206.000000, 8241.500000, 8251.000000
2563, 8913144.000000, 1360.000000, 8216.000000, 8257.500000, 8272.500000
2564, 8913304.000000, 1313.000000, 8230.500000, 8278.500000, 8299.500000
2565, 8913464.000000, 1280.375000, 8247.000000, 8303.500000, 8333.000000
2566, 8913624.000000, 1256.625000, 8263.000000, 8320.500000, 8357.000000
2567, 8913784.000000, 1237.875000, 8266.000000, 8320.000000, 8356.000000
2568, 8913944.000000, 1224.500000, 8253.500000, 8296.000000, 8326.000000
2569, 8914104.000000, 1214.500000, 8218.000000, 8244.500000, 8262.000000
2570, 8914264.000000, 1208.250000, 8179.500000, 8192.500000, 8191.500000
2571, 8914424.000000, 1204.250000, 8156.000000, 8163.500000, 8150.500000
2572, 8914584.000000, 1198.625000, 8153.000000, 8156.000000, 8139.000000
2573, 8914744.000000, 1191.500000, 8152.000000, 8157.000000, 8140.000000
2574, 8914904.000000, 1181.125000, 8156.000000, 8160.500000, 8145.500000
2575, 8915064.000000, 1164.875000, 8160.000000, 8162.000000, 8150.000000
2576, 8915224.000000, 1140.125000, 8163.000000, 8159.500000, 8147.500000
2577, 8915384.000000, 1099.250000, 8163.000000, 8158.000000, 8146.000000
2578, 8915544.000000, 1067.625000, 8161.000000, 8155.500000, 8142.500000
2579, 8915704.000000, 1122.375000, 8160.000000, 8156.500000, 8141.500000
2580, 8915864.000000, 1402.625000, 8162.000000, 8157.000000, 8144.000000
2581, 8916024.000000, 1883.125000, 8160.500000, 8155.500000, 8140.000000
2582, 8916184.000000, 2419.375000, 8160.000000, 8157.000000, 8141.000000
2583, 8916344.000000, 2802.750000, 8163.000000, 8158.000000, 8144.000000
2584, 8916504.000000, 2958.000000, 8162.000000, 8160.500000, 8145.500000
2585, 8916664.000000, 2906.125000, 8162.500000, 8161.500000, 8147.000000
2586, 8916824.000000, 2742.875000, 8166.000000, 8163.500000, 8150.500000
2587, 8916984.000000, 2554.250000, 8161.000000, 8159.000000, 8142.000000
2588, 8917144.000000, 2389.500000, 8170.000000, 8176.500000, 8161.000000
2589, 8917304.000000, 2242.375000, 8172.000000, 8168.000000, 8154.000000
2590, 8917464.000000, 2085.250000, 8178.000000, 8169.500000, 8159.500000
2591, 8917624.000000, 1928.375000, 8170.000000, 8169.500000, 8158.000000
2592, 8917784.000000, 1816.500000, 8170.000000, 8169.500000, 8158.500000
2593, 8917944.000000, 1777.750000, 8171.000000, 8171.500000, 8162.500000
2594, 8918104.000000, 1792.125000, 8162.500000, 8199.500000, 8195.500000
2595, 8918264.000000, 1819.750000, 8419.000000, 8207.000000, 8322.500000
2596, 8918424.000000, 1821.750000, 8346.000000, 7978.000000, 8084.000000
2597, 8918584.000000, 1788.375000, 8047.000000, 8054.000000, 7958.500000
2598, 8918744.000000, 1721.625000, 8131.500000, 8195.000000, 8149.000000
2599, 8918904.000000, 1631.750000, 8176.000000, 8233.000000, 8230.000000
2600, 8919064.000000, 1533.375000, 8186.000000, 8238.000000, 8241.000000
2601, 8919224.000000, 1441.375000, 8194.000000, 8243.500000, 8251.500000
2602, 8919384.000000, 1372.375000, 8201.000000, 8251.500000, 8261.500000
2603, 8919544.000000, 1324.000000, 8208.000000, 8265.000000, 8279.000000
2604, 8919704.000000, 1291.875000, 8219.000000, 8284.000000, 8304.000000
2605, 8919864.000000, 1267.125000, 8232.500000, 8310.500000, 8338.500000
2606, 8920024.000000, 1248.375000, 8249.000000, 8336.500000, 8372.500000
2607, 8920184.000000, 1229.875000, 8257.500000, 8350.000000, 8389.500000
2608, 8920344.000000, 1217.875000, 8257.000000, 8343.000000, 8381.500000
2609, 8920504.000000, 1211.250000, 8240.500000, 8300.000000, 8331.000000
2610, 8920664.000000, 1209.000000, 8203.500000, 8231.500000, 8244.500000
2611, 8920824.000000, 1206.250000, 8169.000000, 8179.500000, 8172.500000
2612, 8920984.000000, 1201.625000, 8158.500000, 8158.500000, 8144.500000
2613, 8921144.000000, 1201.000000, 8153.000000, 8157.000000, 8140.000000
2614, 8921304.000000, 1201.000000, 8158.000000, 8162.000000, 8148.500000
2615, 8921464.000000, 1200.125000, 8161.500000, 8163.000000, 8151.000000
2616, 8921624.000000, 1190.000000, 8163.000000, 8163.500000, 8151.500000
2617, 8921784.000000, 1159.875000, 8166.000000, 8161.500000, 8151.500000
2618, 8921944.000000, 1113.250000, 8166.000000, 8160.000000, 8149.000000
2619, 8922104.000000, 1105.250000, 8164.000000, 8158.000000, 8145.000000
2620, 8922264.000000, 1293.500000, 8161.500000, 8156.500000, 8142.500000
2621, 8922424.000000, 1725.750000, 8162.500000, 8157.000000, 8141.500000
2622, 8922584.000000, 2316.125000, 8164.000000, 8157.000000, 8142.000000
2623, 8922744.000000, 2828.625000, 8161.000000, 8158.000000, 8141.000000
2624, 8922904.000000, 3116.875000, 8162.000000, 8160.500000, 8144.000000
2625, 8923064.000000, 3156.375000, 8163.000000, 8162.000000, 8146.000000
2626, 8923224.000000, 3035.875000, 8164.500000, 8162.000000, 8146.000000
2627, 8923384.000000, 2859.000000, 8167.000000, 8165.000000, 8150.000000
2628, 8923544.000000, 2697.625000, 8167.000000, 8166.500000, 8153.500000
2629, 8923704.000000, 2565.250000, 8160.000000, 8166.000000, 8144.000000
2630, 8923864.000000, 2435.625000, 8172.000000, 8179.500000, 8157.500000
2631, 8924024.000000, 2277.375000, 8180.000000, 8170.500000, 8160.000000
2632, 8924184.000000, 2119.375000, 8179.500000, 8174.000000, 8166.000000
2633, 8924344.000000, 2011.250000, 8170.000000, 8171.500000, 8158.500000
2634, 8924504.000000, 1974.250000, 8171.000000, 8174.500000, 8164.000000
2635, 8924664.000000, 1984.000000, 8174.000000, 8175.500000, 8168.500000
2636, 8924824.000000, 1998.125000, 8174.500000, 8252.500000, 8259.000000
2637, 8924984.000000, 1988.250000, 8610.000000, 8102.000000, 8316.000000
2638, 8925144.000000, 1939.500000, 8070.500000, 8005.500000, 7972.500000
2639, 8925304.000000, 1854.750000, 8076.500000, 8116.500000, 8022.500000
2640, 8925464.000000, 1749.500000, 8166.500000, 8229.000000, 8216.500000
2641, 8925624.000000, 1643.125000, 8182.500000, 8239.500000, 8241.000000
2642, 8925784.000000, 1551.375000, 8192.000000, 8243.500000, 8249.500000
2643, 8925944.000000, 1482.875000, 8198.000000, 8251.000000, 8259.000000
2644, 8926104.000000, 1437.750000, 8203.500000, 8261.500000, 8272.000000
2645, 8926264.000000, 1407.375000, 8213.000000, 8275.000000, 8291.000000
2646, 8926424.000000, 1382.250000, 8225.500000, 8295.500000, 8319.000000
2647, 8926584.000000, 1356.250000, 8239.500000, 8323.500000, 8355.000000
2648, 8926744.000000, 1332.250000, 8255.000000, 8347.000000, 8386.000000
2649, 8926904.000000, 1310.000000, 8260.000000, 8354.500000, 8395.000000
2650, 8927064.000000, 1291.750000, 8253.500000, 8335.500000, 8372.500000
2651, 8927224.000000, 1276.750000, 8228.500000, 8275.000000, 8301.000000
2652, 8927384.000000, 1261.750000, 8190.000000, 8208.000000, 8213.500000
2653, 8927544.000000, 1244.875000, 8165.000000, 8170.000000, 8159.500000
2654, 8927704.000000, 1226.750000, 8155.000000, 8160.000000, 8143.000000
2655, 8927864.000000, 1211.750000, 8155.000000, 8160.000000, 8143.000000
2656, 8928024.000000, 1197.750000, 8159.000000, 8162.000000, 8147.000000
2657, 8928184.000000, 1183.625000, 8164.000000, 8162.500000, 8149.500000
2658, 8928344.000000, 1166.250000, 8165.000000, 8163.500000, 8152.500000
2659, 8928504.000000, 1133.000000, 8166.500000, 8161.500000, 8150.000000
2660, 8928664.000000, 1098.750000, 8165.000000, 8159.000000, 8146.000000
2661, 8928824.000000, 1149.125000, 8166.000000, 8156.000000, 8143.000000
2662, 8928984.000000, 1413.500000, 8163.000000, 8155.500000, 8139.500000
2663, 8929144.000000, 1924.875000, 8164.000000, 8156.500000, 8141.000000
2664, 8929304.000000, 2518.000000, 8164.000000, 8158.000000, 8143.000000
2665, 8929464.000000, 2973.875000, 8165.500000, 8158.500000, 8144.000000
2666, 8929624.000000, 3164.125000, 8168.000000, 8159.000000, 8146.000000
2667, 8929784.000000, 3131.750000, 8170.000000, 8159.000000, 8146.000000
2668, 8929944.000000, 2973.625000, 8170.000000, 8162.500000, 8149.500000
2669, 8930104.000000, 2794.500000, 8171.000000, 8165.000000, 8154.000000
2670, 8930264.000000, 2653.375000, 8169.500000, 8163.500000, 8152.000000
2671, 8930424.000000, 2540.500000, 8170.500000, 8171.000000, 8154.000000
2672, 8930584.000000, 2415.875000, 8174.000000, 8169.000000, 8149.000000
2673, 8930744.000000, 2257.250000, 8185.500000, 8171.000000, 8163.000000
2674, 8930904.000000, 2105.875000, 8177.500000, 8171.500000, 8161.500000
2675, 8931064.000000, 2005.750000, 8174.000000, 8170.000000, 8161.000000
2676, 8931224.000000, 1972.125000, 8174.500000, 8172.000000, 8163.500000
2677, 8931384.000000, 1968.000000, 8174.000000, 8175.500000, 8168.000000
2678, 8931544.000000, 1961.000000, 8273.500000, 8260.000000, 8302.500000
2679, 8931704.000000, 1924.375000, 8549.000000, 8000.500000, 8196.500000
2680, 8931864.000000, 1859.000000, 8044.500000, 8033.000000, 7954.000000
2681, 8932024.000000, 1772.625000, 8110.000000, 8167.000000, 8096.500000
2682, 8932184.000000, 1675.000000, 8177.000000, 8230.500000, 8225.500000
2683, 8932344.000000, 1580.500000, 8189.000000, 8237.500000, 8240.500000
2684, 8932504.000000, 1502.875000, 8196.000000, 8242.500000, 8248.500000
2685, 8932664.000000, 1442.750000, 8204.000000, 8250.500000, 8260.500000
2686, 8932824.000000, 1397.375000, 8212.500000, 8261.000000, 8274.500000
2687, 8932984.000000, 1359.750000, 8222.000000, 8277.000000, 8296.000000
2688, 8933144.000000, 1329.875000, 8234.000000, 8300.500000, 8325.500000
2689, 8933304.000000, 1305.125000, 8250.000000, 8327.000000, 8361.500000
2690, 8933464.000000, 1287.125000, 8261.500000, 8344.500000, 8383.000000
2691, 8933624.000000, 1275.500000, 8265.500000, 8342.000000, 8381.000000
2692, 8933784.000000, 1262.125000, 8255.000000, 8311.000000, 8345.000000
2693, 8933944.000000, 1250.625000, 8221.000000, 8249.500000, 8267.000000
2694, 8934104.000000, 1234.750000, 8184.500000, 8191.500000, 8191.500000
2695, 8934264.000000, 1217.000000, 8165.000000, 8163.500000, 8152.500000
2696, 8934424.000000, 1200.750000, 8160.000000, 8156.000000, 8140.000000
2697, 8934584.000000, 1188.500000, 8162.000000, 8158.500000, 8143.500000
2698, 8934744.000000, 1182.250000, 8165.000000, 8161.500000, 8148.500000
2699, 8934904.000000, 1174.500000, 8168.500000, 8161.500000, 8149.000000
2700, 8935064.000000, 1154.875000, 8169.500000, 8159.500000, 8148.000000
2701, 8935224.000000, 1118.125000, 8172.000000, 8156.500000, 8145.500000
2702, 8935384.000000, 1079.125000, 8170.000000, 8154.000000, 8141.000000
2703, 8935544.000000, 1136.250000, 8172.000000, 8154.500000, 8143.500000
2704, 8935704.000000, 1404.000000, 8169.500000, 8154.000000, 8141.500000
2705, 8935864.000000, 1904.375000, 8170.000000, 8155.000000, 8142.000000
2706, 8936024.000000, 2456.000000, 8170.500000, 8155.000000, 8139.000000
2707, 8936184.000000, 2868.625000, 8171.500000, 8156.000000, 8142.500000
2708, 8936344.000000, 3015.500000, 8173.000000, 8158.000000, 8145.000000
2709, 8936504.000000, 2960.875000, 8171.500000, 8160.000000, 8145.500000
2710, 8936664.000000, 2791.875000, 8174.500000, 8161.500000, 8149.000000
2711, 8936824.000000, 2611.625000, 8170.500000, 8156.000000, 8141.000000
2712, 8936984.000000, 2466.875000, 8178.500000, 8171.000000, 8153.000000
2713, 8937144.000000, 2344.125000, 8180.000000, 8166.500000, 8153.000000
2714, 8937304.000000, 2201.375000, 8188.000000, 8168.000000, 8160.500000
2715, 8937464.000000, 2041.875000, 8176.500000, 8167.500000, 8155.500000
2716, 8937624.000000, 1916.125000, 8178.500000, 8168.000000, 8158.500000
2717, 8937784.000000, 1858.500000, 8180.000000, 8169.500000, 8162.500000
2718, 8937944.000000, 1858.250000, 8171.500000, 8198.500000, 8196.000000
2719, 8938104.000000, 1875.125000, 8458.500000, 8204.500000, 8326.500000
2720, 8938264.000000, 1871.625000, 8260.000000, 8086.000000, 8158.500000
2721, 8938424.000000, 1832.500000, 8064.000000, 8092.500000, 8020.500000
2722, 8938584.000000, 1763.250000, 8129.000000, 8171.000000, 8113.500000
2723, 8938744.000000, 1674.500000, 8185.000000, 8218.000000, 8214.500000
2724, 8938904.000000, 1582.500000, 8195.500000, 8222.000000, 8224.500000
2725, 8939064.000000, 1497.125000, 8203.500000, 8227.000000, 8234.500000
2726, 8939224.000000, 1423.625000, 8213.500000, 8232.500000, 8242.000000
2727, 8939384.000000, 1370.250000, 8223.000000, 8243.000000, 8257.000000
2728, 8939544.000000, 1337.250000, 8231.500000, 8259.000000, 8276.500000
2729, 8939704.000000, 1316.000000, 8246.000000, 8277.500000, 8301.500000
2730, 8939864.000000, 1290.500000, 8263.500000, 8298.500000, 8329.500000
2731, 8940024.000000, 1259.625000, 8278.500000, 8306.000000, 8342.500000
2732, 8940184.000000, 1228.250000, 8276.000000, 8299.000000, 8333.000000
2733, 8940344.000000, 1203.250000, 8256.000000, 8272.000000, 8299.500000
2734, 8940504.000000, 1183.375000, 8211.500000, 8227.500000, 8238.500000
2735, 8940664.000000, 1168.625000, 8175.500000, 8184.500000, 8178.500000
2736, 8940824.000000, 1157.875000, 8159.000000, 8165.000000, 8150.500000
2737, 8940984.000000, 1151.250000, 8157.000000, 8161.500000, 8144.500000
2738, 8941144.000000, 1149.000000, 8159.000000, 8163.500000, 8148.500000
2739, 8941304.000000, 1147.250000, 8163.500000, 8165.000000, 8151.500000
2740, 8941464.000000, 1138.500000, 8167.500000, 8163.000000, 8151.000000
2741, 8941624.000000, 1121.125000, 8168.000000, 8162.500000, 8149.500000
2742, 8941784.000000, 1088.375000, 8167.500000, 8161.000000, 8149.000000
2743, 8941944.000000, 1054.500000, 8163.500000, 8160.000000, 8144.500000
2744, 8942104.000000, 1083.375000, 8163.000000, 8158.500000, 8142.500000
2745, 8942264.000000, 1294.750000, 8163.500000, 8157.500000, 8142.000000
2746, 8942424.000000, 1732.125000, 8164.000000, 8158.000000, 8142.500000
2747, 8942584.000000, 2263.750000, 8165.000000, 8158.500000, 8143.500000
2748, 8942744.000000, 2679.250000, 8162.500000, 8160.000000, 8145.500000
2749, 8942904.000000, 2877.000000, 8160.500000, 8163.000000, 8139.500000
2750, 8943064.000000, 2849.750000, 8165.000000, 8165.000000, 8138.500000
2751, 8943224.000000, 2692.250000, 8179.000000, 8165.000000, 8153.500000
2752, 8943384.000000, 2499.500000, 8173.000000, 8167.500000, 8156.000000
2753, 8943544.000000, 2320.500000, 8167.500000, 8168.000000, 8155.000000
2754, 8943704.000000, 2152.875000, 8169.000000, 8170.000000, 8160.000000
2755, 8943864.000000, 1983.625000, 8169.500000, 8170.000000, 8159.500000
2756, 8944024.000000, 1834.250000, 8238.500000, 8248.500000, 8272.500000
2757, 8944184.000000, 1747.625000, 8545.500000, 8120.000000, 8305.500000
2758, 8944344.000000, 1744.125000, 8045.500000, 8106.000000, 8067.500000
2759, 8944504.000000, 1784.625000, 8092.500000, 8132.000000, 8053.000000
2760, 8944664.000000, 1827.750000, 8168.000000, 8207.500000, 8192.500000
2761, 8944824.000000, 1839.000000, 8186.000000, 8215.500000, 8213.000000
2762, 8944984.000000, 1809.125000, 8195.000000, 8221.000000, 8224.000000
2763, 8945144.000000, 1741.875000, 8202.500000, 8227.500000, 8233.500000
2764, 8945304.000000, 1650.000000, 8210.000000, 8237.000000, 8247.000000
2765, 8945464.000000, 1550.875000, 8224.000000, 8250.000000, 8266.500000
2766, 8945624.000000, 1463.000000, 8237.000000, 8269.000000, 8291.000000
2767, 8945784.000000, 1390.375000, 8254.000000, 8290.500000, 8319.000000
2768, 8945944.000000, 1334.875000, 8270.500000, 8305.500000, 8341.000000
2769, 8946104.000000, 1293.875000, 8273.000000, 8304.000000, 8339.000000
2770, 8946264.000000, 1259.500000, 8258.000000, 8280.500000, 8310.500000
2771, 8946424.000000, 1234.125000, 8217.500000, 8236.500000, 8253.500000
2772, 8946584.000000, 1214.375000, 8175.500000, 8192.500000, 8191.000000
2773, 8946744.000000, 1199.625000, 8152.500000, 8168.500000, 8154.500000
2774, 8946904.000000, 1192.625000, 8150.000000, 8161.000000, 8144.000000
2775, 8947064.000000, 1192.000000, 8153.500000, 8161.000000, 8145.500000
2776, 8947224.000000, 1195.000000, 8158.500000, 8163.000000, 8149.000000
2777, 8947384.000000, 1192.250000, 8161.000000, 8165.000000, 8152.000000
2778, 8947544.000000, 1181.000000, 8164.500000, 8165.500000, 8155.500000
2779, 8947704.000000, 1159.250000, 8161.500000, 8162.500000, 8148.500000
2780, 8947864.000000, 1125.750000, 8162.500000, 8160.000000, 8146.500000
2781, 8948024.000000, 1104.125000, 8161.000000, 8158.500000, 8143.500000
2782, 8948184.000000, 1174.000000, 8159.500000, 8158.500000, 8143.000000
2783, 8948344.000000, 1443.375000, 8161.000000, 8161.000000, 8146.000000
2784, 8948504.000000, 1892.250000, 8159.500000, 8160.500000, 8145.000000
2785, 8948664.000000, 2369.375000, 8162.000000, 8162.000000, 8147.000000
2786, 8948824.000000, 2689.625000, 8158.000000, 8157.000000, 8138.000000
2787, 8948984.000000, 2800.250000, 8170.000000, 8175.000000, 8158.000000
2788, 8949144.000000, 2725.375000, 8168.500000, 8167.500000, 8151.000000
2789, 8949304.000000, 2562.875000, 8176.000000, 8167.500000, 8156.500000
2790, 8949464.000000, 2382.125000, 8167.000000, 8167.500000, 8152.500000
2791, 8949624.000000, 2214.250000, 8165.000000, 8169.500000, 8156.500000
2792, 8949784.000000, 2045.750000, 8168.000000, 8169.500000, 8158.500000
2793, 8949944.000000, 1872.500000, 8158.500000, 8206.500000, 8201.500000
2794, 8950104.000000, 1737.750000, 8462.000000, 8193.500000, 8326.500000
2795, 8950264.000000, 1677.500000, 8242.500000, 8036.500000, 8099.000000
2796, 8950424.000000, 1696.000000, 8050.500000, 8074.000000, 7985.000000
2797, 8950584.000000, 1741.625000, 8129.000000, 8187.000000, 8137.500000
2798, 8950744.000000, 1771.500000, 8175.500000, 8225.500000, 8220.000000
2799, 8950904.000000, 1760.375000, 8186.000000, 8231.000000, 8232.000000
2800, 8951064.000000, 1709.125000, 8193.500000, 8236.000000, 8240.000000
2801, 8951224.000000, 1628.375000, 8202.000000, 8245.500000, 8253.500000
2802, 8951384.000000, 1536.125000, 8210.500000, 8259.000000, 8271.500000
2803, 8951544.000000, 1450.125000, 8220.500000, 8278.500000, 8296.500000
2804, 8951704.000000, 1378.625000, 8235.500000, 8302.000000, 8328.000000
2805, 8951864.000000, 1318.125000, 8253.000000, 8325.500000, 8359.000000
2806, 8952024.000000, 1277.875000, 8265.000000, 8334.000000, 8372.000000
2807, 8952184.000000, 1254.125000, 8264.000000, 8325.000000, 8361.000000
2808, 8952344.000000, 1238.125000, 8240.000000, 8282.000000, 8309.000000
2809, 8952504.000000, 1227.500000, 8198.500000, 8222.000000, 8231.000000
2810, 8952664.000000, 1222.250000, 8165.500000, 8178.500000, 8168.500000
2811, 8952824.000000, 1221.875000, 8154.000000, 8160.500000, 8142.500000
2812, 8952984.000000, 1228.750000, 8155.000000, 8161.500000, 8144.500000
2813, 8953144.000000, 1232.875000, 8155.000000, 8165.000000, 8148.000000
2814, 8953304.000000, 1227.125000, 8159.000000, 8167.000000, 8152.500000
2815, 8953464.000000, 1204.500000, 8163.500000, 8166.000000, 8154.500000
2816, 8953624.000000, 1156.375000, 8166.500000, 8164.000000, 8152.500000
2817, 8953784.000000, 1118.500000, 8164.000000, 8162.500000, 8149.500000
2818, 8953944.000000, 1256.750000, 8160.500000, 8161.000000, 8145.500000
2819, 8954104.000000, 1615.875000, 8162.000000, 8160.500000, 8145.500000
2820, 8954264.000000, 2138.625000, 8162.000000, 8159.000000, 8144.000000
2821, 8954424.000000, 2617.250000, 8162.000000, 8159.000000, 8144.000000
2822, 8954584.000000, 2895.875000, 8161.500000, 8162.500000, 8145.500000
2823, 8954744.000000, 2948.875000, 8160.500000, 8162.000000, 8146.500000
2824, 8954904.000000, 2851.625000, 8162.000000, 8170.500000, 8150.000000
2825, 8955064.000000, 2694.250000, 8164.500000, 8166.000000, 8142.000000
2826, 8955224.000000, 2544.750000, 8176.500000, 8166.000000, 8152.000000
2827, 8955384.000000, 2416.250000, 8171.000000, 8168.500000, 8156.000000
2828, 8955544.000000, 2279.500000, 8166.500000, 8168.500000, 8155.000000
2829, 8955704.000000, 2115.625000, 8166.000000, 8170.000000, 8157.000000
2830, 8955864.000000, 1958.500000, 8168.500000, 8175.000000, 8166.000000
2831, 8956024.000000, 1864.250000, 8276.000000, 8262.500000, 8307.500000
2832, 8956184.000000, 1842.125000, 8532.500000, 8011.000000, 8198.000000
2833, 8956344.000000, 1858.875000, 8038.500000, 8040.500000, 7961.500000
2834, 8956504.000000, 1871.000000, 8105.500000, 8166.500000, 8095.500000
2835, 8956664.000000, 1860.125000, 8170.500000, 8226.500000, 8218.500000
2836, 8956824.000000, 1812.625000, 8185.000000, 8231.500000, 8232.000000
2837, 8956984.000000, 1738.250000, 8190.500000, 8237.500000, 8240.500000
2838, 8957144.000000, 1647.125000, 8197.000000, 8245.500000, 8251.500000
2839, 8957304.000000, 1557.375000, 8205.500000, 8258.000000, 8269.000000
