1890, 7139528.000000, 1269.250000, 8160.500000, 8163.500000, 8149.000000
1891, 7139688.000000, 1256.500000, 8160.500000, 8160.500000, 8147.000000
1892, 7139848.000000, 1245.625000, 8162.000000, 8163.500000, 8150.500000
1893, 7140008.000000, 1235.625000, 8167.000000, 8165.000000, 8153.500000
1894, 7140168.000000, 1218.875000, 8168.500000, 8163.500000, 8153.000000
1895, 7140328.000000, 1182.625000, 8168.000000, 8159.500000, 8148.500000
1896, 7140488.000000, 1130.625000, 8168.000000, 8158.500000, 8147.500000
1897, 7140648.000000, 1199.625000, 8164.000000, 8158.500000, 8143.500000
1898, 7140808.000000, 1499.500000, 8162.500000, 8158.000000, 8143.500000
1899, 7140968.000000, 2018.750000, 8162.000000, 8158.500000, 8143.500000
1900, 7141128.000000, 2450.375000, 8163.000000, 8157.000000, 8141.000000
1901, 7141288.000000, 2713.875000, 8165.000000, 8159.000000, 8144.000000
1902, 7141448.000000, 2799.125000, 8166.500000, 8160.500000, 8147.000000
1903, 7141608.000000, 2750.750000, 8167.000000, 8163.000000, 8150.000000
1904, 7141768.000000, 2647.375000, 8165.000000, 8165.500000, 8152.500000
1905, 7141928.000000, 2537.125000, 8170.500000, 8172.000000, 8152.000000
1906, 7142088.000000, 2427.125000, 8178.000000, 8166.000000, 8155.000000
1907, 7142248.000000, 2299.000000, 8175.000000, 8168.500000, 8159.500000
1908, 7142408.000000, 2162.000000, 8165.000000, 8166.000000, 8151.500000
1909, 7142568.000000, 2060.000000, 8167.000000, 8168.500000, 8155.500000
1910, 7142728.000000, 2021.375000, 8167.000000, 8169.500000, 8156.500000
1911, 7142888.000000, 2039.500000, 8232.000000, 8249.500000, 8270.500000
1912, 7143048.000000, 2071.375000, 8555.500000, 8110.500000, 8295.500000
1913, 7143208.000000, 2087.375000, 8049.500000, 8103.000000, 8062.500000
1914, 7143368.000000, 2070.000000, 8090.000000, 8128.500000, 8046.500000
1915, 7143528.000000, 2017.125000, 8165.000000, 8204.500000, 8188.500000
1916, 7143688.000000, 1939.625000, 8184.000000, 8214.500000, 8212.500000
1917, 7143848.000000, 1852.125000, 8192.000000, 8221.500000, 8223.500000
1918, 7144008.000000, 1769.125000, 8201.000000, 8229.000000, 8236.000000
1919, 7144168.000000, 1694.500000, 8209.500000, 8237.000000, 8247.500000
1920, 7144328.000000, 1633.250000, 8219.500000, 8250.500000, 8266.000000
1921, 7144488.000000, 1582.125000, 8234.500000, 8271.000000, 8294.000000
1922, 7144648.000000, 1537.875000, 8250.000000, 8293.500000, 8323.000000
1923, 7144808.000000, 1498.625000, 8262.500000, 8305.000000, 8338.000000
1924, 7144968.000000, 1469.750000, 8260.000000, 8299.000000, 8329.500000
1925, 7145128.000000, 1446.000000, 8242.000000, 8269.000000, 8293.500000
1926, 7145288.000000, 1431.375000, 8202.500000, 8225.000000, 8235.000000
1927, 7145448.000000, 1421.125000, 8168.000000, 8187.000000, 8180.500000
1928, 7145608.000000, 1417.000000, 8152.500000, 8168.500000, 8154.500000
1929, 7145768.000000, 1414.125000, 8150.000000, 8163.500000, 8146.500000
1930, 7145928.000000, 1404.250000, 8154.000000, 8164.000000, 8148.000000
1931, 7146088.000000, 1387.000000, 8159.000000, 8165.000000, 8152.000000
1932, 7146248.000000, 1359.000000, 8163.500000, 8166.500000, 8155.000000
1933, 7146408.000000, 1315.750000, 8163.500000, 8165.000000, 8153.500000
1934, 7146568.000000, 1282.375000, 8162.000000, 8162.000000, 8151.000000
1935, 7146728.000000, 1335.000000, 8162.500000, 8159.000000, 8146.500000
1936, 7146888.000000, 1576.125000, 8162.000000, 8159.000000, 8146.000000
1937, 7147048.000000, 1990.625000, 8162.000000, 8160.000000, 8147.000000
1938, 7147208.000000, 2442.625000, 8162.000000, 8161.000000, 8148.000000
1939, 7147368.000000, 2765.000000, 8161.000000, 8160.000000, 8145.000000
1940, 7147528.000000, 2911.125000, 8163.500000, 8160.000000, 8146.500000
1941, 7147688.000000, 2895.625000, 8165.500000, 8161.500000, 8149.000000
1942, 7147848.000000, 2803.125000, 8166.000000, 8164.000000, 8152.000000
1943, 7148008.000000, 2684.625000, 8168.500000, 8173.000000, 8164.500000
1944, 7148168.000000, 2569.000000, 8174.000000, 8175.500000, 8161.500000
1945, 7148328.000000, 2441.625000, 8181.000000, 8167.500000, 8157.500000
1946, 7148488.000000, 2297.875000, 8176.500000, 8167.000000, 8158.000000
1947, 7148648.000000, 2170.750000, 8170.500000, 8167.500000, 8155.500000
1948, 7148808.000000, 2103.125000, 8173.000000, 8170.000000, 8159.000000
1949, 7148968.000000, 2107.250000, 8170.000000, 8176.000000, 8167.500000
1950, 7149128.000000, 2145.125000, 8316.500000, 8245.500000, 8306.500000
1951, 7149288.000000, 2180.250000, 8488.000000, 8011.000000, 8174.500000
1952, 7149448.000000, 2185.000000, 8052.500000, 8063.000000, 7988.500000
1953, 7149608.000000, 2149.250000, 8112.500000, 8164.500000, 8097.500000
1954, 7149768.000000, 2077.625000, 8173.000000, 8221.000000, 8213.500000
1955, 7149928.000000, 1985.625000, 8186.000000, 8226.000000, 8227.000000
1956, 7150088.000000, 1888.375000, 8192.500000, 8232.000000, 8236.500000
1957, 7150248.000000, 1798.750000, 8199.000000, 8243.000000, 8251.000000
1958, 7150408.000000, 1719.375000, 8207.000000, 8255.500000, 8266.500000
1959, 7150568.000000, 1651.375000, 8218.000000, 8272.500000, 8290.500000
1960, 7150728.000000, 1591.375000, 8233.000000, 8296.500000, 8321.000000
1961, 7150888.000000, 1544.375000, 8250.000000, 8322.000000, 8355.500000
1962, 7151048.000000, 1504.250000, 8260.000000, 8332.500000, 8370.500000
1963, 7151208.000000, 1473.125000, 8254.500000, 8323.500000, 8358.000000
1964, 7151368.000000, 1448.875000, 8232.500000, 8277.000000, 8301.000000
1965, 7151528.000000, 1428.625000, 8197.500000, 8216.500000, 8226.000000
1966, 7151688.000000, 1412.375000, 8169.500000, 8173.000000, 8165.500000
1967, 7151848.000000, 1398.875000, 8157.500000, 8159.000000, 8143.500000
1968, 7152008.000000, 1387.375000, 8156.500000, 8158.000000, 8141.500000
1969, 7152168.000000, 1375.875000, 8160.000000, 8160.500000, 8146.500000
1970, 7152328.000000, 1359.875000, 8164.000000, 8161.000000, 8150.000000
1971, 7152488.000000, 1330.625000, 8167.000000, 8161.500000, 8152.000000
1972, 7152648.000000, 1292.875000, 8168.000000, 8160.500000, 8151.500000
1973, 7152808.000000, 1292.125000, 8167.500000, 8157.500000, 8147.500000
1974, 7152968.000000, 1432.625000, 8166.000000, 8154.500000, 8141.500000
1975, 7153128.000000, 1795.500000, 8165.000000, 8153.000000, 8140.000000
1976, 7153288.000000, 2302.875000, 8166.000000, 8153.500000, 8139.500000
1977, 7153448.000000, 2773.000000, 8167.000000, 8156.000000, 8143.000000
1978, 7153608.000000, 3073.250000, 8167.000000, 8156.500000, 8141.500000
1979, 7153768.000000, 3171.250000, 8169.000000, 8156.500000, 8142.500000
1980, 7153928.000000, 3136.750000, 8172.000000, 8156.000000, 8144.000000
1981, 7154088.000000, 3040.750000, 8172.500000, 8158.500000, 8147.000000
1982, 7154248.000000, 2940.500000, 8172.500000, 8161.500000, 8150.000000
1983, 7154408.000000, 2853.125000, 8171.500000, 8163.000000, 8153.500000
1984, 7154568.000000, 2746.625000, 8173.000000, 8169.500000, 8163.000000
1985, 7154728.000000, 2609.125000, 8177.500000, 8175.500000, 8161.000000
1986, 7154888.000000, 2463.625000, 8185.500000, 8166.500000, 8158.500000
1987, 7155048.000000, 2360.250000, 8181.500000, 8170.000000, 8162.500000
1988, 7155208.000000, 2318.625000, 8175.000000, 8168.000000, 8158.000000
1989, 7155368.000000, 2320.500000, 8176.000000, 8167.500000, 8158.500000
1990, 7155528.000000, 2325.375000, 8174.500000, 8172.000000, 8163.500000
1991, 7155688.000000, 2303.625000, 8281.000000, 8254.000000, 8301.500000
1992, 7155848.000000, 2242.875000, 8546.500000, 7971.000000, 8165.500000
1993, 7156008.000000, 2149.750000, 8051.000000, 8029.000000, 7945.500000
1994, 7156168.000000, 2040.500000, 8113.000000, 8166.500000, 8100.000000
1995, 7156328.000000, 1931.125000, 8174.500000, 8227.000000, 8222.500000
1996, 7156488.000000, 1832.500000, 8185.500000, 8233.500000, 8236.000000
1997, 7156648.000000, 1749.250000, 8192.000000, 8239.500000, 8244.500000
1998, 7156808.000000, 1684.250000, 8198.500000, 8248.500000, 8257.000000
1999, 7156968.000000, 1631.500000, 8207.000000, 8260.500000, 8274.500000
2000, 7157128.000000, 1586.000000, 8218.000000, 8277.000000, 8295.500000
2001, 7157288.000000, 1546.000000, 8232.000000, 8302.500000, 8328.000000
2002, 7157448.000000, 1509.375000, 8249.500000, 8329.500000, 8364.500000
2003, 7157608.000000, 1478.500000, 8258.000000, 8341.500000, 8380.500000
2004, 7157768.000000, 1452.875000, 8257.500000, 8332.500000, 8371.000000
2005, 7157928.000000, 1432.625000, 8237.500000, 8289.500000, 8318.500000
2006, 7158088.000000, 1417.125000, 8204.500000, 8223.500000, 8236.500000
2007, 7158248.000000, 1399.000000, 8175.000000, 8176.500000, 8171.500000
2008, 7158408.000000, 1379.000000, 8162.000000, 8158.000000, 8143.500000
2009, 7158568.000000, 1357.375000, 8159.500000, 8154.500000, 8139.000000
2010, 7158728.000000, 1338.250000, 8163.000000, 8157.000000, 8144.000000
2011, 7158888.000000, 1322.625000, 8166.000000, 8160.500000, 8148.500000
2012, 7159048.000000, 1298.125000, 8170.500000, 8160.500000, 8150.500000
2013, 7159208.000000, 1258.000000, 8172.500000, 8159.500000, 8150.000000
2014, 7159368.000000, 1257.000000, 8171.000000, 8154.500000, 8143.500000
2015, 7159528.000000, 1408.125000, 8171.000000, 8152.500000, 8141.500000
2016, 7159688.000000, 1803.000000, 8170.000000, 8152.500000, 8139.000000
2017, 7159848.000000, 2353.875000, 8169.000000, 8154.000000, 8140.000000
2018, 7160008.000000, 2875.625000, 8169.500000, 8155.500000, 8140.000000
2019, 7160168.000000, 3200.875000, 8171.500000, 8153.500000, 8139.000000
2020, 7160328.000000, 3327.250000, 8171.000000, 8154.500000, 8139.500000
2021, 7160488.000000, 3293.875000, 8172.000000, 8157.500000, 8143.500000
2022, 7160648.000000, 3198.750000, 8172.000000, 8158.000000, 8144.000000
2023, 7160808.000000, 3100.500000, 8173.000000, 8159.000000, 8144.000000
2024, 7160968.000000, 3014.875000, 8174.500000, 8158.500000, 8146.000000
2025, 7161128.000000, 2918.250000, 8175.500000, 8159.500000, 8148.000000
2026, 7161288.000000, 2779.875000, 8173.500000, 8164.500000, 8154.500000
2027, 7161448.000000, 2615.750000, 8179.500000, 8177.000000, 8162.000000
2028, 7161608.000000, 2473.125000, 8188.500000, 8168.000000, 8160.000000
2029, 7161768.000000, 2398.500000, 8187.000000, 8168.500000, 8162.500000
2030, 7161928.000000, 2376.750000, 8175.500000, 8164.000000, 8152.500000
2031, 7162088.000000, 2371.500000, 8178.000000, 8166.000000, 8156.000000
2032, 7162248.000000, 2343.625000, 8180.000000, 8169.500000, 8162.500000
2033, 7162408.000000, 2281.375000, 8213.500000, 8253.500000, 8269.000000
2034, 7162568.000000, 2181.250000, 8613.000000, 8038.500000, 8253.000000
2035, 7162728.000000, 2060.125000, 8058.500000, 8024.000000, 7961.500000
2036, 7162888.000000, 1935.000000, 8098.500000, 8139.000000, 8055.000000
2037, 7163048.000000, 1820.500000, 8174.000000, 8226.000000, 8216.500000
2038, 7163208.000000, 1721.750000, 8188.500000, 8233.500000, 8235.000000
2039, 7163368.000000, 1643.500000, 8195.000000, 8237.000000, 8242.000000
2040, 7163528.000000, 1579.125000, 8203.500000, 8243.500000, 8252.000000
2041, 7163688.000000, 1526.500000, 8213.000000, 8255.000000, 8269.000000
2042, 7163848.000000, 1483.000000, 8223.500000, 8272.000000, 8291.000000
2043, 7164008.000000, 1445.250000, 8236.500000, 8295.000000, 8321.500000
2044, 7164168.000000, 1414.625000, 8251.500000, 8319.500000, 8352.000000
2045, 7164328.000000, 1388.750000, 8261.000000, 8335.500000, 8372.500000
2046, 7164488.000000, 1364.875000, 8260.500000, 8332.000000, 8369.500000
2047, 7164648.000000, 1344.000000, 8248.500000, 8299.500000, 8332.000000
2048, 7164808.000000, 1320.750000, 8213.000000, 8236.500000, 8251.500000
2049, 7164968.000000, 1295.750000, 8180.500000, 8182.000000, 8179.500000
2050, 7165128.000000, 1272.000000, 8165.000000, 8159.000000, 8146.000000
2051, 7165288.000000, 1253.625000, 8162.000000, 8155.000000, 8140.000000
2052, 7165448.000000, 1239.125000, 8162.500000, 8159.500000, 8145.000000
2053, 7165608.000000, 1221.000000, 8165.500000, 8160.000000, 8147.500000
2054, 7165768.000000, 1196.125000, 8169.000000, 8158.000000, 8146.000000
2055, 7165928.000000, 1155.750000, 8169.000000, 8155.000000, 8145.000000
2056, 7166088.000000, 1127.375000, 8171.000000, 8153.000000, 8142.000000
2057, 7166248.000000, 1200.500000, 8171.000000, 8152.500000, 8141.500000
2058, 7166408.000000, 1490.250000, 8170.500000, 8150.500000, 8138.500000
2059, 7166568.000000, 1994.625000, 8171.000000, 8149.000000, 8136.500000
2060, 7166728.000000, 2545.125000, 8171.000000, 8149.000000, 8136.500000
2061, 7166888.000000, 2938.875000, 8171.000000, 8149.000000, 8136.000000
2062, 7167048.000000, 3116.875000, 8171.500000, 8151.000000, 8138.500000
2063, 7167208.000000, 3102.875000, 8172.000000, 8152.000000, 8141.000000
2064, 7167368.000000, 2992.500000, 8175.000000, 8152.500000, 8142.500000
2065, 7167528.000000, 2864.375000, 8173.000000, 8155.000000, 8144.000000
2066, 7167688.000000, 2756.375000, 8176.500000, 8157.500000, 8147.500000
2067, 7167848.000000, 2655.500000, 8178.000000, 8159.000000, 8149.000000
2068, 7168008.000000, 2530.500000, 8181.000000, 8160.000000, 8152.000000
2069, 7168168.000000, 2374.000000, 8179.000000, 8162.500000, 8154.000000
2070, 7168328.000000, 2236.250000, 8185.500000, 8170.500000, 8156.500000
2071, 7168488.000000, 2161.125000, 8195.000000, 8165.500000, 8161.000000
2072, 7168648.000000, 2144.125000, 8190.000000, 8166.000000, 8161.000000
2073, 7168808.000000, 2148.000000, 8182.000000, 8164.500000, 8155.500000
2074, 7168968.000000, 2137.375000, 8184.500000, 8166.000000, 8158.500000
2075, 7169128.000000, 2089.375000, 8184.500000, 8169.000000, 8162.500000
2076, 7169288.000000, 2008.875000, 8268.000000, 8247.500000, 8282.000000
2077, 7169448.000000, 1901.875000, 8551.000000, 8098.500000, 8274.000000
2078, 7169608.000000, 1787.375000, 8064.000000, 8107.500000, 8064.500000
2079, 7169768.000000, 1677.750000, 8108.000000, 8134.500000, 8059.500000
2080, 7169928.000000, 1582.000000, 8179.500000, 8206.500000, 8195.500000
2081, 7170088.000000, 1506.500000, 8198.500000, 8217.000000, 8219.500000
2082, 7170248.000000, 1448.500000, 8206.500000, 8222.500000, 8229.000000
2083, 7170408.000000, 1400.750000, 8211.000000, 8228.000000, 8237.500000
2084, 7170568.000000, 1361.250000, 8219.500000, 8235.500000, 8248.000000
2085, 7170728.000000, 1326.250000, 8230.000000, 8248.000000, 8266.500000
2086, 7170888.000000, 1294.625000, 8243.500000, 8268.500000, 8293.000000
2087, 7171048.000000, 1269.375000, 8261.000000, 8288.000000, 8319.000000
2088, 7171208.000000, 1248.000000, 8274.000000, 8298.000000, 8333.500000
2089, 7171368.000000, 1228.000000, 8274.000000, 8293.000000, 8327.000000
2090, 7171528.000000, 1208.000000, 8258.000000, 8268.500000, 8296.500000
2091, 7171688.000000, 1185.750000, 8216.000000, 8231.000000, 8245.000000
2092, 7171848.000000, 1164.000000, 8178.000000, 8192.500000, 8188.500000
2093, 7172008.000000, 1145.000000, 8159.500000, 8169.000000, 8155.500000
2094, 7172168.000000, 1127.375000, 8158.000000, 8164.000000, 8149.000000
2095, 7172328.000000, 1114.250000, 8160.500000, 8164.000000, 8150.500000
2096, 7172488.000000, 1098.125000, 8164.500000, 8166.500000, 8155.500000
2097, 7172648.000000, 1077.750000, 8165.000000, 8168.000000, 8157.000000
2098, 7172808.000000, 1049.125000, 8168.000000, 8164.500000, 8155.500000
2099, 7172968.000000, 1015.125000, 8164.000000, 8163.000000, 8150.000000
2100, 7173128.000000, 1032.375000, 8164.000000, 8160.000000, 8146.500000
2101, 7173288.000000, 1233.500000, 8163.000000, 8161.000000, 8147.000000
2102, 7173448.000000, 1654.750000, 8162.500000, 8162.000000, 8147.500000
2103, 7173608.000000, 2195.750000, 8160.000000, 8162.500000, 8146.500000
2104, 7173768.000000, 2642.500000, 8160.500000, 8161.000000, 8143.500000
2105, 7173928.000000, 2883.500000, 8161.000000, 8163.000000, 8146.000000
2106, 7174088.000000, 2915.500000, 8163.000000, 8165.000000, 8149.000000
2107, 7174248.000000, 2811.625000, 8164.000000, 8168.000000, 8154.500000
2108, 7174408.000000, 2663.750000, 8161.500000, 8168.500000, 8152.500000
2109, 7174568.000000, 2524.250000, 8164.000000, 8176.000000, 8153.000000
2110, 7174728.000000, 2389.875000, 8173.500000, 8170.000000, 8156.000000
2111, 7174888.000000, 2240.625000, 8172.000000, 8173.000000, 8161.000000
2112, 7175048.000000, 2086.125000, 8165.500000, 8171.000000, 8156.500000
2113, 7175208.000000, 1972.625000, 8166.500000, 8172.000000, 8158.500000
2114, 7175368.000000, 1934.250000, 8166.000000, 8173.500000, 8160.500000
2115, 7175528.000000, 1957.000000, 8237.500000, 8254.000000, 8277.500000
2116, 7175688.000000, 1994.250000, 8555.000000, 8100.000000, 8285.000000
2117, 7175848.000000, 2007.375000, 8045.500000, 8099.500000, 8050.000000
2118, 7176008.000000, 1980.250000, 8089.000000, 8138.000000, 8055.000000
2119, 7176168.000000, 1913.375000, 8162.500000, 8212.000000, 8195.000000
2120, 7176328.000000, 1818.875000, 8178.500000, 8222.500000, 8219.000000
2121, 7176488.000000, 1715.750000, 8187.500000, 8228.500000, 8229.500000
2122, 7176648.000000, 1616.375000, 8198.000000, 8235.500000, 8241.500000
2123, 7176808.000000, 1529.625000, 8205.000000, 8245.500000, 8254.000000
2124, 7176968.000000, 1460.125000, 8215.000000, 8258.500000, 8273.000000
2125, 7177128.000000, 1407.125000, 8229.500000, 8280.500000, 8300.500000
2126, 7177288.000000, 1364.250000, 8248.500000, 8305.000000, 8334.000000
2127, 7177448.000000, 1331.500000, 8263.000000, 8318.000000, 8354.000000
2128, 7177608.000000, 1304.750000, 8261.000000, 8311.000000, 8344.000000
2129, 7177768.000000, 1282.625000, 8244.000000, 8278.500000, 8305.000000
2130, 7177928.000000, 1267.375000, 8203.500000, 8228.000000, 8240.000000
2131, 7178088.000000, 1256.500000, 8168.000000, 8185.500000, 8179.000000
2132, 7178248.000000, 1247.625000, 8152.000000, 8164.500000, 8147.500000
2133, 7178408.000000, 1242.375000, 8150.000000, 8161.000000, 8142.500000
2134, 7178568.000000, 1238.500000, 8151.500000, 8162.000000, 8144.500000
2135, 7178728.000000, 1227.875000, 8159.000000, 8164.000000, 8151.500000
2136, 7178888.000000, 1206.500000, 8164.000000, 8165.000000, 8155.500000
2137, 7179048.000000, 1172.000000, 8165.000000, 8164.000000, 8155.000000
2138, 7179208.000000, 1128.250000, 8164.500000, 8160.500000, 8149.500000
2139, 7179368.000000, 1125.375000, 8164.000000, 8159.000000, 8146.000000
2140, 7179528.000000, 1253.625000, 8160.000000, 8157.000000, 8143.000000
2141, 7179688.000000, 1619.875000, 8163.000000, 8158.500000, 8145.500000
2142, 7179848.000000, 2130.250000, 8163.000000, 8160.000000, 8146.000000
2143, 7180008.000000, 2616.625000, 8163.500000, 8159.000000, 8144.500000
2144, 7180168.000000, 2914.250000, 8163.500000, 8159.500000, 8144.000000
2145, 7180328.000000, 3003.000000, 8166.000000, 8160.500000, 8146.500000
2146, 7180488.000000, 2939.000000, 8168.000000, 8162.000000, 8149.000000
2147, 7180648.000000, 2805.750000, 8169.500000, 8165.000000, 8153.500000
2148, 7180808.000000, 2664.625000, 8163.000000, 8165.500000, 8146.500000
2149, 7180968.000000, 2538.750000, 8169.500000, 8173.500000, 8151.000000
2150, 7181128.000000, 2403.500000, 8178.000000, 8167.500000, 8156.500000
2151, 7181288.000000, 2250.625000, 8177.500000, 8169.500000, 8161.000000
2152, 7181448.000000, 2112.625000, 8167.500000, 8168.000000, 8155.000000
2153, 7181608.000000, 2036.000000, 8168.500000, 8169.500000, 8157.000000
2154, 7181768.000000, 2027.000000, 8170.500000, 8169.000000, 8159.000000
2155, 7181928.000000, 2050.875000, 8202.000000, 8254.500000, 8268.000000
2156, 7182088.000000, 2071.875000, 8608.000000, 8079.000000, 8286.000000
2157, 7182248.000000, 2057.500000, 8054.000000, 8055.500000, 8006.500000
2158, 7182408.000000, 2004.250000, 8086.500000, 8128.500000, 8041.500000
2159, 7182568.000000, 1920.250000, 8164.500000, 8214.500000, 8199.500000
2160, 7182728.000000, 1817.875000, 8180.000000, 8223.500000, 8219.000000
2161, 7182888.000000, 1716.625000, 8190.500000, 8230.500000, 8233.500000
2162, 7183048.000000, 1625.125000, 8196.500000, 8239.000000, 8245.000000
2163, 7183208.000000, 1552.750000, 8204.000000, 8249.500000, 8258.500000
2164, 7183368.000000, 1496.750000, 8213.000000, 8265.000000, 8279.000000
2165, 7183528.000000, 1455.625000, 8224.000000, 8289.500000, 8308.000000
2166, 7183688.000000, 1421.625000, 8241.500000, 8317.500000, 8345.500000
2167, 7183848.000000, 1396.375000, 8251.500000, 8334.000000, 8366.500000
2168, 7184008.000000, 1376.125000, 8252.000000, 8329.000000, 8360.000000
2169, 7184168.000000, 1359.250000, 8237.500000, 8294.000000, 8318.500000
2170, 7184328.000000, 1350.750000, 8203.500000, 8232.500000, 8243.500000
2171, 7184488.000000, 1343.500000, 8171.500000, 8181.500000, 8173.500000
2172, 7184648.000000, 1331.375000, 8155.000000, 8158.500000, 8141.000000
2173, 7184808.000000, 1319.875000, 8151.000000, 8155.000000, 8135.000000
2174, 7184968.000000, 1306.500000, 8155.500000, 8158.000000, 8142.000000
2175, 7185128.000000, 1295.875000, 8159.500000, 8161.500000, 8149.000000
2176, 7185288.000000, 1275.750000, 8165.000000, 8165.000000, 8158.000000
2177, 7185448.000000, 1241.750000, 8169.000000, 8164.500000, 8158.500000
2178, 7185608.000000, 1193.000000, 8169.500000, 8161.500000, 8156.000000
2179, 7185768.000000, 1191.875000, 8168.500000, 8158.500000, 8152.000000
2180, 7185928.000000, 1343.500000, 8171.000000, 8157.500000, 8152.500000
2181, 7186088.000000, 1753.750000, 8173.000000, 8158.500000, 8153.500000
2182, 7186248.000000, 2307.125000, 8173.500000, 8159.000000, 8155.000000
2183, 7186408.000000, 2822.625000, 8173.000000, 8160.500000, 8155.500000
2184, 7186568.000000, 3135.750000, 8174.500000, 8161.000000, 8156.500000
2185, 7186728.000000, 3232.250000, 8168.000000, 8157.500000, 8148.500000
2186, 7186888.000000, 3173.375000, 8183.000000, 8179.500000, 8175.500000
2187, 7187048.000000, 3049.875000, 8181.500000, 8165.500000, 8160.000000
2188, 7187208.000000, 2922.125000, 8184.500000, 8167.000000, 8164.500000
2189, 7187368.000000, 2811.125000, 8175.000000, 8165.000000, 8159.000000
2190, 7187528.000000, 2689.750000, 8175.000000, 8166.500000, 8161.500000
2191, 7187688.000000, 2532.875000, 8177.500000, 8170.500000, 8168.000000
2192, 7187848.000000, 2363.375000, 8170.000000, 8230.000000, 8237.500000
2193, 7188008.000000, 2233.625000, 8547.000000, 8136.500000, 8317.000000
2194, 7188168.000000, 2173.000000, 8120.000000, 8004.000000, 8004.000000
2195, 7188328.000000, 2163.000000, 8069.000000, 8085.500000, 7993.000000
2196, 7188488.000000, 2161.000000, 8159.000000, 8213.500000, 8195.000000
2197, 7188648.000000, 2130.375000, 8183.000000, 8232.000000, 8234.000000
2198, 7188808.000000, 2058.125000, 8189.000000, 8236.500000, 8242.500000
2199, 7188968.000000, 1953.250000, 8196.000000, 8241.000000, 8249.000000
2200, 7189128.000000, 1831.875000, 8207.000000, 8251.000000, 8265.000000
2201, 7189288.000000, 1713.875000, 8216.000000, 8266.000000, 8284.000000
2202, 7189448.000000, 1610.625000, 8226.500000, 8288.000000, 8311.000000
2203, 7189608.000000, 1531.500000, 8241.000000, 8312.000000, 8341.500000
2204, 7189768.000000, 1472.875000, 8256.000000, 8331.500000, 8367.000000
2205, 7189928.000000, 1433.875000, 8262.500000, 8334.000000, 8373.000000
2206, 7190088.000000, 1405.875000, 8250.500000, 8309.500000, 8343.500000
2207, 7190248.000000, 1385.625000, 8215.000000, 8251.000000, 8268.500000
2208, 7190408.000000, 1367.000000, 8176.500000, 8193.500000, 8192.500000
2209, 7190568.000000, 1349.250000, 8155.500000, 8163.000000, 8149.000000
2210, 7190728.000000, 1335.375000, 8150.000000, 8155.500000, 8137.000000
2211, 7190888.000000, 1325.125000, 8153.500000, 8158.500000, 8142.000000
2212, 7191048.000000, 1317.250000, 8158.500000, 8162.000000, 8149.000000
2213, 7191208.000000, 1300.000000, 8162.000000, 8160.500000, 8149.500000
2214, 7191368.000000, 1269.875000, 8165.000000, 8159.500000, 8148.500000
2215, 7191528.000000, 1224.500000, 8166.000000, 8157.500000, 8145.500000
2216, 7191688.000000, 1185.625000, 8164.500000, 8156.000000, 8142.000000
2217, 7191848.000000, 1235.125000, 8164.500000, 8156.500000, 8142.500000
2218, 7192008.000000, 1477.375000, 8162.000000, 8154.500000, 8137.500000
2219, 7192168.000000, 1928.125000, 8163.000000, 8153.500000, 8137.500000
2220, 7192328.000000, 2439.250000, 8165.500000, 8155.500000, 8141.000000
2221, 7192488.000000, 2825.125000, 8159.500000, 8153.500000, 8132.000000
2222, 7192648.000000, 3011.625000, 8172.000000, 8170.500000, 8149.500000
2223, 7192808.000000, 3015.250000, 8174.500000, 8159.000000, 8144.500000
2224, 7192968.000000, 2917.750000, 8176.000000, 8162.000000, 8151.000000
2225, 7193128.000000, 2794.625000, 8167.000000, 8161.000000, 8146.000000
2226, 7193288.000000, 2686.000000, 8169.000000, 8163.500000, 8151.500000
2227, 7193448.000000, 2579.625000, 8171.000000, 8166.500000, 8156.000000
2228, 7193608.000000, 2444.000000, 8167.500000, 8238.500000, 8240.000000
2229, 7193768.000000, 2280.375000, 8587.500000, 8114.500000, 8314.500000
2230, 7193928.000000, 2141.000000, 8068.500000, 8027.000000, 7998.000000
2231, 7194088.000000, 2066.375000, 8072.000000, 8100.000000, 8004.500000
2232, 7194248.000000, 2051.375000, 8160.000000, 8214.000000, 8195.000000
2233, 7194408.000000, 2058.625000, 8180.000000, 8226.000000, 8223.000000
2234, 7194568.000000, 2049.375000, 8188.000000, 8230.000000, 8232.000000
2235, 7194728.000000, 2000.750000, 8195.000000, 8237.500000, 8242.500000
2236, 7194888.000000, 1918.000000, 8202.500000, 8248.500000, 8256.500000
2237, 7195048.000000, 1811.875000, 8213.500000, 8264.500000, 8278.000000
2238, 7195208.000000, 1701.625000, 8227.000000, 8284.000000, 8302.500000
2239, 7195368.000000, 1599.875000, 8247.000000, 8308.500000, 8338.000000
2240, 7195528.000000, 1516.250000, 8265.000000, 8326.000000, 8363.500000
2241, 7195688.000000, 1449.000000, 8263.500000, 8326.500000, 8363.000000
2242, 7195848.000000, 1397.000000, 8248.500000, 8296.500000, 8325.500000
2243, 7196008.000000, 1358.625000, 8210.500000, 8236.500000, 8250.000000
2244, 7196168.000000, 1325.500000, 8175.000000, 8185.000000, 8180.000000
2245, 7196328.000000, 1297.750000, 8158.500000, 8161.000000, 8145.000000
2246, 7196488.000000, 1278.250000, 8155.000000, 8158.000000, 8139.000000
2247, 7196648.000000, 1264.875000, 8155.000000, 8159.500000, 8140.500000
2248, 7196808.000000, 1252.500000, 8159.000000, 8160.000000, 8145.000000
2249, 7196968.000000, 1238.625000, 8161.500000, 8159.500000, 8145.500000
2250, 7197128.000000, 1214.375000, 8166.500000, 8157.500000, 8145.000000
2251, 7197288.000000, 1178.375000, 8166.500000, 8157.000000, 8143.500000
2252, 7197448.000000, 1144.500000, 8165.500000, 8154.500000, 8140.000000
2253, 7197608.000000, 1198.125000, 8165.000000, 8153.500000, 8138.500000
2254, 7197768.000000, 1442.750000, 8165.000000, 8153.000000, 8138.000000
2255, 7197928.000000, 1889.250000, 8166.000000, 8155.500000, 8139.500000
2256, 7198088.000000, 2390.625000, 8167.000000, 8158.000000, 8143.000000
2257, 7198248.000000, 2771.625000, 8167.000000, 8158.500000, 8143.500000
2258, 7198408.000000, 2944.250000, 8164.500000, 8153.000000, 8137.000000
2259, 7198568.000000, 2931.875000, 8173.000000, 8171.500000, 8157.000000
2260, 7198728.000000, 2828.750000, 8173.000000, 8161.000000, 8144.500000
2261, 7198888.000000, 2705.625000, 8182.500000, 8163.000000, 8153.000000
2262, 7199048.000000, 2595.625000, 8170.500000, 8164.500000, 8150.500000
2263, 7199208.000000, 2480.125000, 8169.000000, 8163.000000, 8149.000000
2264, 7199368.000000, 2331.750000, 8172.000000, 8166.000000, 8156.000000
2265, 7199528.000000, 2169.500000, 8166.500000, 8186.000000, 8180.000000
2266, 7199688.000000, 2049.500000, 8387.500000, 8217.500000, 8314.500000
2267, 7199848.000000, 2009.125000, 8378.000000, 7967.000000, 8091.000000
2268, 7200008.000000, 2024.750000, 8049.500000, 8042.000000, 7947.000000
2269, 7200168.000000, 2056.250000, 8132.000000, 8185.000000, 8136.000000
2270, 7200328.000000, 2060.750000, 8178.500000, 8228.500000, 8224.500000
2271, 7200488.000000, 2022.625000, 8188.000000, 8233.000000, 8235.000000
2272, 7200648.000000, 1940.125000, 8195.000000, 8238.500000, 8243.500000
2273, 7200808.000000, 1835.500000, 8201.000000, 8246.000000, 8254.000000
2274, 7200968.000000, 1726.875000, 8211.000000, 8259.000000, 8272.500000
2275, 7201128.000000, 1632.750000, 8224.500000, 8278.500000, 8298.000000
2276, 7201288.000000, 1558.750000, 8241.000000, 8304.500000, 8332.000000
2277, 7201448.000000, 1501.500000, 8257.000000, 8326.000000, 8360.500000
2278, 7201608.000000, 1455.875000, 8261.500000, 8330.500000, 8366.000000
2279, 7201768.000000, 1415.625000, 8254.000000, 8315.000000, 8347.500000
2280, 7201928.000000, 1379.375000, 8230.000000, 8268.500000, 8291.000000
2281, 7202088.000000, 1349.125000, 8193.500000, 8209.500000, 8215.500000
2282, 7202248.000000, 1326.125000, 8166.000000, 8171.500000, 8160.500000
2283, 7202408.000000, 1307.625000, 8157.000000, 8157.500000, 8139.500000
2284, 7202568.000000, 1292.250000, 8160.000000, 8157.500000, 8141.500000
2285, 7202728.000000, 1277.875000, 8163.000000, 8161.500000, 8147.500000
2286, 7202888.000000, 1264.000000, 8165.000000, 8162.000000, 8149.000000
2287, 7203048.000000, 1242.750000, 8164.000000, 8160.500000, 8145.500000
2288, 7203208.000000, 1205.625000, 8165.000000, 8157.500000, 8144.500000
2289, 7203368.000000, 1161.250000, 8165.000000, 8154.000000, 8139.500000
2290, 7203528.000000, 1165.750000, 8166.000000, 8154.000000, 8139.000000
2291, 7203688.000000, 1348.250000, 8165.000000, 8154.000000, 8137.000000
2292, 7203848.000000, 1742.250000, 8165.500000, 8154.500000, 8138.000000
2293, 7204008.000000, 2263.250000, 8165.000000, 8153.500000, 8136.500000
2294, 7204168.000000, 2709.000000, 8167.000000, 8153.500000, 8138.500000
2295, 7204328.000000, 2954.250000, 8169.000000, 8156.000000, 8142.000000
2296, 7204488.000000, 2990.125000, 8168.500000, 8159.000000, 8145.500000
2297, 7204648.000000, 2901.625000, 8171.000000, 8159.500000, 8148.500000
2298, 7204808.000000, 2775.125000, 8163.500000, 8157.500000, 8136.000000
2299, 7204968.000000, 2665.000000, 8174.500000, 8165.500000, 8143.000000
2300, 7205128.000000, 2565.375000, 8185.000000, 8162.500000, 8153.500000
2301, 7205288.000000, 2437.750000, 8181.000000, 8165.500000, 8157.500000
2302, 7205448.000000, 2282.250000, 8173.000000, 8163.500000, 8150.500000
2303, 7205608.000000, 2141.625000, 8172.000000, 8164.000000, 8152.000000
2304, 7205768.000000, 2066.375000, 8177.000000, 8165.500000, 8157.000000
2305, 7205928.000000, 2053.250000, 8202.000000, 8245.500000, 8259.000000
2306, 7206088.000000, 2067.500000, 8614.500000, 8095.500000, 8302.500000
2307, 7206248.000000, 2061.750000, 8060.000000, 8067.500000, 8030.000000
2308, 7206408.000000, 2015.375000, 8093.500000, 8120.000000, 8038.500000
2309, 7206568.000000, 1929.000000, 8171.500000, 8209.000000, 8197.500000
2310, 7206728.000000, 1821.375000, 8191.000000, 8220.500000, 8222.500000
2311, 7206888.000000, 1710.750000, 8199.500000, 8227.000000, 8235.000000
2312, 7207048.000000, 1612.625000, 8206.000000, 8231.000000, 8241.000000
2313, 7207208.000000, 1531.875000, 8215.000000, 8240.500000, 8255.000000
2314, 7207368.000000, 1471.625000, 8226.000000, 8254.000000, 8273.500000
2315, 7207528.000000, 1429.625000, 8240.000000, 8275.500000, 8299.500000
2316, 7207688.000000, 1395.750000, 8258.000000, 8297.000000, 8329.000000
2317, 7207848.000000, 1372.375000, 8270.000000, 8308.000000, 8343.000000
2318, 7208008.000000, 1348.875000, 8271.000000, 8302.000000, 8336.000000
2319, 7208168.000000, 1325.125000, 8258.500000, 8276.500000, 8307.000000
2320, 7208328.000000, 1299.625000, 8219.500000, 8230.500000, 8246.000000
2321, 7208488.000000, 1273.375000, 8182.000000, 8185.500000, 8184.000000
2322, 7208648.000000, 1252.000000, 8162.000000, 8162.500000, 8149.000000
2323, 7208808.000000, 1232.625000, 8159.500000, 8156.000000, 8141.500000
2324, 7208968.000000, 1218.375000, 8163.500000, 8158.500000, 8145.000000
2325, 7209128.000000, 1202.625000, 8165.500000, 8159.500000, 8149.000000
2326, 7209288.000000, 1179.750000, 8169.500000, 8160.000000, 8150.500000
2327, 7209448.000000, 1150.250000, 8170.500000, 8157.500000, 8147.500000
2328, 7209608.000000, 1107.625000, 8169.000000, 8153.000000, 8141.000000
2329, 7209768.000000, 1075.750000, 8169.000000, 8152.500000, 8140.500000
2330, 7209928.000000, 1130.500000, 8168.500000, 8151.500000, 8139.000000
2331, 7210088.000000, 1394.500000, 8170.000000, 8153.000000, 8140.000000
2332, 7210248.000000, 1852.250000, 8170.000000, 8152.500000, 8137.500000
2333, 7210408.000000, 2366.875000, 8171.000000, 8152.500000, 8139.500000
2334, 7210568.000000, 2745.875000, 8171.500000, 8155.500000, 8143.000000
2335, 7210728.000000, 2913.750000, 8167.000000, 8153.000000, 8136.500000
2336, 7210888.000000, 2894.250000, 8176.500000, 8167.500000, 8148.500000
2337, 7211048.000000, 2780.500000, 8178.000000, 8161.500000, 8145.500000
2338, 7211208.000000, 2651.250000, 8185.000000, 8159.000000, 8148.000000
2339, 7211368.000000, 2540.125000, 8172.000000, 8160.000000, 8146.000000
2340, 7211528.000000, 2424.250000, 8173.500000, 8163.000000, 8151.000000
2341, 7211688.000000, 2278.250000, 8175.000000, 8167.000000, 8157.000000
2342, 7211848.000000, 2131.000000, 8168.500000, 8190.500000, 8184.000000
2343, 7212008.000000, 2034.375000, 8447.000000, 8201.500000, 8314.500000
2344, 7212168.000000, 2014.625000, 8244.500000, 8110.500000, 8175.500000
2345, 7212328.000000, 2036.875000, 8060.000000, 8105.500000, 8037.000000
2346, 7212488.000000, 2060.250000, 8121.500000, 8161.500000, 8100.500000
2347, 7212648.000000, 2047.875000, 8179.500000, 8207.000000, 8201.000000
2348, 7212808.000000, 1997.250000, 8190.000000, 8211.000000, 8211.000000
2349, 7212968.000000, 1913.875000, 8200.500000, 8216.500000, 8222.000000
2350, 7213128.000000, 1813.875000, 8209.500000, 8224.500000, 8233.000000
2351, 7213288.000000, 1712.625000, 8221.000000, 8234.500000, 8247.000000
2352, 7213448.000000, 1623.000000, 8232.000000, 8248.500000, 8264.500000
2353, 7213608.000000, 1548.125000, 8250.000000, 8266.500000, 8292.000000
2354, 7213768.000000, 1488.625000, 8265.500000, 8283.000000, 8314.000000
2355, 7213928.000000, 1443.375000, 8277.000000, 8287.000000, 8321.000000
2356, 7214088.000000, 1406.375000, 8268.000000, 8275.000000, 8304.500000
2357, 7214248.000000, 1374.875000, 8234.500000, 8247.000000, 8265.500000
2358, 7214408.000000, 1344.625000, 8191.000000, 8206.000000, 8209.500000
2359, 7214568.000000, 1320.375000, 8164.000000, 8176.000000, 8166.500000
2360, 7214728.000000, 1303.375000, 8154.500000, 8164.000000, 8148.500000
2361, 7214888.000000, 1294.125000, 8154.500000, 8164.000000, 8148.500000
2362, 7215048.000000, 1288.625000, 8158.000000, 8166.000000, 8151.000000
2363, 7215208.000000, 1275.000000, 8161.500000, 8166.000000, 8154.000000
2364, 7215368.000000, 1247.125000, 8166.000000, 8165.500000, 8155.500000
2365, 7215528.000000, 1205.750000, 8168.000000, 8165.500000, 8156.500000
2366, 7215688.000000, 1153.500000, 8165.500000, 8163.500000, 8151.000000
2367, 7215848.000000, 1114.000000, 8164.500000, 8161.000000, 8148.000000
2368, 7216008.000000, 1165.500000, 8161.000000, 8158.500000, 8143.000000
2369, 7216168.000000, 1400.625000, 8162.000000, 8159.500000, 8144.500000
2370, 7216328.000000, 1826.500000, 8162.000000, 8162.500000, 8147.500000
2371, 7216488.000000, 2298.625000, 8164.000000, 8163.000000, 8148.000000
2372, 7216648.000000, 2655.625000, 8164.000000, 8164.000000, 8149.000000
2373, 7216808.000000, 2796.000000, 8160.000000, 8159.500000, 8143.500000
2374, 7216968.000000, 2765.625000, 8164.500000, 8172.500000, 8151.500000
2375, 7217128.000000, 2642.625000, 8168.500000, 8169.000000, 8150.000000
2376, 7217288.000000, 2505.500000, 8177.000000, 8168.500000, 8157.500000
2377, 7217448.000000, 2375.875000, 8167.000000, 8169.500000, 8156.000000
2378, 7217608.000000, 2231.750000, 8165.500000, 8169.000000, 8156.500000
2379, 7217768.000000, 2062.500000, 8168.000000, 8170.500000, 8160.000000
2380, 7217928.000000, 1911.750000, 8164.000000, 8186.500000, 8179.000000
2381, 7218088.000000, 1834.750000, 8361.000000, 8237.500000, 8319.000000
2382, 7218248.000000, 1832.625000, 8412.000000, 8040.000000, 8171.500000
2383, 7218408.000000, 1865.125000, 8053.500000, 8084.000000, 8011.000000
2384, 7218568.000000, 1883.875000, 8112.000000, 8166.000000, 8100.000000
2385, 7218728.000000, 1865.000000, 8170.000000, 8221.000000, 8211.500000
2386, 7218888.000000, 1802.875000, 8182.500000, 8227.000000, 8225.000000
2387, 7219048.000000, 1712.625000, 8193.500000, 8231.000000, 8236.000000
2388, 7219208.000000, 1608.875000, 8200.500000, 8238.000000, 8246.500000
2389, 7219368.000000, 1512.500000, 8209.500000, 8251.000000, 8263.500000
2390, 7219528.000000, 1431.500000, 8218.000000, 8269.000000, 8285.500000
2391, 7219688.000000, 1366.625000, 8233.000000, 8293.000000, 8315.500000
2392, 7219848.000000, 1313.625000, 8252.500000, 8313.000000, 8344.500000
2393, 7220008.000000, 1270.000000, 8263.500000, 8319.000000, 8355.500000
2394, 7220168.000000, 1234.375000, 8257.500000, 8308.000000, 8340.500000
2395, 7220328.000000, 1205.750000, 8233.000000, 8268.000000, 8291.500000
2396, 7220488.000000, 1182.875000, 8192.500000, 8215.500000, 8221.500000
2397, 7220648.000000, 1163.625000, 8163.000000, 8177.000000, 8166.000000
2398, 7220808.000000, 1148.375000, 8153.500000, 8160.500000, 8144.000000
2399, 7220968.000000, 1137.125000, 8153.000000, 8161.500000, 8144.500000
2400, 7221128.000000, 1129.500000, 8155.000000, 8165.500000, 8150.000000
2401, 7221288.000000, 1117.250000, 8161.000000, 8167.500000, 8154.500000
2402, 7221448.000000, 1098.750000, 8163.500000, 8166.000000, 8154.500000
2403, 7221608.000000, 1065.375000, 8166.500000, 8163.000000, 8153.500000
2404, 7221768.000000, 1018.625000, 8165.000000, 8161.000000, 8150.000000
2405, 7221928.000000, 984.500000, 8165.000000, 8159.000000, 8146.000000
2406, 7222088.000000, 1062.750000, 8163.500000, 8158.000000, 8144.500000
2407, 7222248.000000, 1419.500000, 8163.000000, 8156.500000, 8141.500000
2408, 7222408.000000, 1984.000000, 8163.500000, 8157.000000, 8141.500000
2409, 7222568.000000, 2569.375000, 8164.000000, 8159.500000, 8144.500000
2410, 7222728.000000, 2897.000000, 8165.500000, 8160.000000, 8145.500000
2411, 7222888.000000, 2932.125000, 8166.000000, 8161.000000, 8147.000000
2412, 7223048.000000, 2834.750000, 8167.000000, 8162.500000, 8147.500000
2413, 7223208.000000, 2688.875000, 8168.000000, 8161.500000, 8149.000000
2414, 7223368.000000, 2565.875000, 8167.000000, 8167.500000, 8150.000000
2415, 7223528.000000, 2454.375000, 8171.500000, 8169.000000, 8148.500000
2416, 7223688.000000, 2306.500000, 8181.500000, 8168.000000, 8158.500000
2417, 7223848.000000, 2126.625000, 8176.500000, 8168.500000, 8159.500000
2418, 7224008.000000, 2006.000000, 8172.000000, 8166.000000, 8155.000000
2419, 7224168.000000, 1971.625000, 8175.000000, 8169.500000, 8161.500000
2420, 7224328.000000, 1983.750000, 8174.500000, 8173.000000, 8167.500000
2421, 7224488.000000, 1989.750000, 8246.500000, 8261.500000, 8296.500000
2422, 7224648.000000, 1960.250000, 8586.000000, 8021.500000, 8226.500000
2423, 7224808.000000, 1892.750000, 8055.500000, 8046.500000, 7984.000000
2424, 7224968.000000, 1794.500000, 8105.000000, 8153.000000, 8079.500000
2425, 7225128.000000, 1683.500000, 8173.500000, 8228.000000, 8222.000000
2426, 7225288.000000, 1578.250000, 8185.000000, 8234.000000, 8236.000000
2427, 7225448.000000, 1489.000000, 8191.000000, 8239.000000, 8243.500000
2428, 7225608.000000, 1420.000000, 8196.000000, 8246.500000, 8252.000000
2429, 7225768.000000, 1365.125000, 8206.500000, 8258.500000, 8271.000000
2430, 7225928.000000, 1323.125000, 8216.500000, 8276.500000, 8293.000000
2431, 7226088.000000, 1288.500000, 8232.000000, 8301.000000, 8325.000000
2432, 7226248.000000, 1261.875000, 8251.000000, 8326.500000, 8360.500000
2433, 7226408.000000, 1240.000000, 8262.000000, 8339.000000, 8378.500000
2434, 7226568.000000, 1222.250000, 8261.000000, 8333.500000, 8371.500000
2435, 7226728.000000, 1207.250000, 8244.000000, 8295.500000, 8326.000000
2436, 7226888.000000, 1192.375000, 8208.500000, 8233.500000, 8247.500000
2437, 7227048.000000, 1180.500000, 8175.500000, 8181.000000, 8177.000000
2438, 7227208.000000, 1170.625000, 8159.000000, 8160.500000, 8145.500000
2439, 7227368.000000, 1163.750000, 8157.000000, 8158.000000, 8140.000000
2440, 7227528.000000, 1154.500000, 8160.500000, 8163.000000, 8147.500000
2441, 7227688.000000, 1140.375000, 8161.500000, 8165.000000, 8151.000000
2442, 7227848.000000, 1107.750000, 8164.000000, 8164.000000, 8149.000000
2443, 7228008.000000, 1066.250000, 8167.000000, 8162.500000, 8151.500000
2444, 7228168.000000, 1069.625000, 8167.000000, 8160.000000, 8147.000000
2445, 7228328.000000, 1258.625000, 8168.500000, 8158.000000, 8145.500000
2446, 7228488.000000, 1689.375000, 8167.500000, 8156.500000, 8142.500000
2447, 7228648.000000, 2273.500000, 8167.000000, 8154.500000, 8139.000000
2448, 7228808.000000, 2788.000000, 8168.500000, 8156.000000, 8141.500000
2449, 7228968.000000, 3094.500000, 8171.000000, 8156.500000, 8143.500000
2450, 7229128.000000, 3177.750000, 8171.000000, 8158.000000, 8145.000000
2451, 7229288.000000, 3113.375000, 8171.000000, 8158.500000, 8145.500000
2452, 7229448.000000, 2998.250000, 8173.000000, 8159.000000, 8146.000000
2453, 7229608.000000, 2894.500000, 8171.000000, 8159.500000, 8146.500000
2454, 7229768.000000, 2810.750000, 8173.000000, 8160.500000, 8147.500000
2455, 7229928.000000, 2714.250000, 8172.000000, 8163.000000, 8152.000000
2456, 7230088.000000, 2566.500000, 8169.500000, 8167.000000, 8148.500000
2457, 7230248.000000, 2393.500000, 8175.500000, 8170.500000, 8150.000000
2458, 7230408.000000, 2249.875000, 8186.500000, 8167.500000, 8159.000000
2459, 7230568.000000, 2173.750000, 8185.000000, 8169.000000, 8162.000000
2460, 7230728.000000, 2148.625000, 8178.000000, 8168.000000, 8158.000000
2461, 7230888.000000, 2138.875000, 8178.000000, 8170.000000, 8160.000000
2462, 7231048.000000, 2111.375000, 8178.500000, 8171.000000, 8162.500000
2463, 7231208.000000, 2049.625000, 8221.500000, 8258.500000, 8282.000000
2464, 7231368.000000, 1953.625000, 8617.000000, 8024.500000, 8243.000000
2465, 7231528.000000, 1840.625000, 8059.000000, 8026.000000, 7964.000000
2466, 7231688.000000, 1724.625000, 8100.500000, 8149.000000, 8070.000000
2467, 7231848.000000, 1623.250000, 8173.500000, 8227.500000, 8218.500000
2468, 7232008.000000, 1537.500000, 8189.000000, 8234.500000, 8237.500000
2469, 7232168.000000, 1472.000000, 8194.000000, 8241.500000, 8245.500000
2470, 7232328.000000, 1419.750000, 8202.000000, 8249.500000, 8257.000000
2471, 7232488.000000, 1378.625000, 8209.000000, 8260.500000, 8272.500000
2472, 7232648.000000, 1344.500000, 8220.500000, 8276.500000, 8294.500000
2473, 7232808.000000, 1314.500000, 8235.000000, 8298.000000, 8323.500000
2474, 7232968.000000, 1288.875000, 8251.000000, 8325.500000, 8358.000000
2475, 7233128.000000, 1265.750000, 8264.500000, 8341.500000, 8381.000000
2476, 7233288.000000, 1244.000000, 8264.000000, 8338.000000, 8377.000000
2477, 7233448.000000, 1221.750000, 8251.000000, 8302.000000, 8334.500000
2478, 7233608.000000, 1194.625000, 8215.000000, 8238.000000, 8253.500000
2479, 7233768.000000, 1167.125000, 8181.000000, 8184.500000, 8181.500000
2480, 7233928.000000, 1144.000000, 8166.000000, 8161.500000, 8147.500000
2481, 7234088.000000, 1124.625000, 8160.000000, 8158.500000, 8140.500000
2482, 7234248.000000, 1109.250000, 8161.000000, 8160.000000, 8143.000000
2483, 7234408.000000, 1093.625000, 8166.000000, 8162.000000, 8149.000000
2484, 7234568.000000, 1071.500000, 8166.500000, 8164.000000, 8150.500000
2485, 7234728.000000, 1038.875000, 8169.500000, 8163.000000, 8151.500000
2486, 7234888.000000, 1043.000000, 8170.500000, 8159.500000, 8147.500000
2487, 7235048.000000, 1194.750000, 8169.500000, 8156.500000, 8143.000000
2488, 7235208.000000, 1598.875000, 8169.000000, 8154.500000, 8142.500000
2489, 7235368.000000, 2175.625000, 8168.000000, 8155.500000, 8142.500000
2490, 7235528.000000, 2732.125000, 8169.000000, 8156.000000, 8142.000000
2491, 7235688.000000, 3078.125000, 8170.500000, 8157.000000, 8143.000000
2492, 7235848.000000, 3197.000000, 8168.500000, 8156.000000, 8141.500000
2493, 7236008.000000, 3136.000000, 8171.500000, 8156.500000, 8144.000000
2494, 7236168.000000, 3012.750000, 8171.000000, 8158.500000, 8145.500000
2495, 7236328.000000, 2898.000000, 8171.000000, 8161.500000, 8148.500000
2496, 7236488.000000, 2811.000000, 8172.000000, 8161.500000, 8149.500000
2497, 7236648.000000, 2719.500000, 8172.000000, 8163.000000, 8151.000000
2498, 7236808.000000, 2584.625000, 8173.500000, 8164.500000, 8152.500000
2499, 7236968.000000, 2410.625000, 8167.500000, 8162.000000, 8145.000000
2500, 7237128.000000, 2249.125000, 8179.500000, 8179.500000, 8164.500000
2501, 7237288.000000, 2155.750000, 8183.500000, 8168.500000, 8159.000000
2502, 7237448.000000, 2123.625000, 8185.000000, 8168.000000, 8160.000000
2503, 7237608.000000, 2118.125000, 8176.500000, 8168.000000, 8158.000000
2504, 7237768.000000, 2098.000000, 8178.500000, 8169.000000, 8161.500000
2505, 7237928.000000, 2043.250000, 8178.000000, 8171.500000, 8165.500000
2506, 7238088.000000, 1951.750000, 8167.500000, 8223.500000, 8228.000000
2507, 7238248.000000, 1840.625000, 8543.500000, 8137.000000, 8308.000000
2508, 7238408.000000, 1723.500000, 8158.000000, 8029.000000, 8049.500000
2509, 7238568.000000, 1618.625000, 8069.500000, 8083.000000, 7996.500000
2510, 7238728.000000, 1529.125000, 8146.500000, 8200.500000, 8167.500000
2511, 7238888.000000, 1457.375000, 8180.000000, 8228.500000, 8227.500000
2512, 7239048.000000, 1399.500000, 8190.000000, 8231.000000, 8235.000000
2513, 7239208.000000, 1352.375000, 8197.500000, 8236.500000, 8245.000000
2514, 7239368.000000, 1313.250000, 8207.000000, 8246.000000, 8259.000000
2515, 7239528.000000, 1279.875000, 8216.000000, 8260.500000, 8277.500000
2516, 7239688.000000, 1250.750000, 8228.500000, 8277.000000, 8299.500000
2517, 7239848.000000, 1226.375000, 8246.500000, 8299.000000, 8328.500000
2518, 7240008.000000, 1207.000000, 8260.500000, 8318.000000, 8353.500000
2519, 7240168.000000, 1189.250000, 8271.000000, 8323.000000, 8362.500000
2520, 7240328.000000, 1171.000000, 8265.500000, 8308.000000, 8343.000000
2521, 7240488.000000, 1150.375000, 8237.000000, 8261.000000, 8286.000000
2522, 7240648.000000, 1128.000000, 8197.500000, 8205.000000, 8212.000000
2523, 7240808.000000, 1108.000000, 8169.000000, 8168.000000, 8159.000000
2524, 7240968.000000, 1091.375000, 8159.000000, 8158.000000, 8143.000000
2525, 7241128.000000, 1080.500000, 8159.000000, 8158.000000, 8143.000000
2526, 7241288.000000, 1071.250000, 8164.000000, 8161.500000, 8148.500000
2527, 7241448.000000, 1053.375000, 8167.500000, 8160.000000, 8149.000000
2528, 7241608.000000, 1019.750000, 8170.000000, 8160.000000, 8150.500000
2529, 7241768.000000, 979.125000, 8171.000000, 8158.000000, 8149.000000
2530, 7241928.000000, 993.625000, 8170.000000, 8156.000000, 8145.000000
2531, 7242088.000000, 1204.625000, 8171.500000, 8154.500000, 8143.000000
2532, 7242248.000000, 1645.375000, 8169.000000, 8152.500000, 8139.500000
2533, 7242408.000000, 2227.250000, 8170.000000, 8152.000000, 8139.000000
2534, 7242568.000000, 2727.000000, 8170.500000, 8155.500000, 8141.500000
2535, 7242728.000000, 3003.875000, 8172.000000, 8156.500000, 8144.500000
2536, 7242888.000000, 3052.125000, 8172.000000, 8156.500000, 8143.500000
2537, 7243048.000000, 2956.250000, 8171.000000, 8157.000000, 8144.000000
2538, 7243208.000000, 2810.875000, 8173.500000, 8159.000000, 8148.000000
2539, 7243368.000000, 2682.875000, 8172.000000, 8159.500000, 8147.500000
2540, 7243528.000000, 2578.625000, 8174.000000, 8162.000000, 8153.000000
2541, 7243688.000000, 2460.250000, 8170.500000, 8161.500000, 8144.500000
2542, 7243848.000000, 2302.500000, 8175.500000, 8169.500000, 8146.000000
2543, 7244008.000000, 2140.125000, 8188.000000, 8165.500000, 8158.000000
2544, 7244168.000000, 2029.875000, 8186.500000, 8169.500000, 8165.000000
2545, 7244328.000000, 1990.875000, 8178.000000, 8168.000000, 8159.000000
2546, 7244488.000000, 1995.375000, 8179.000000, 8169.000000, 8161.500000
2547, 7244648.000000, 1992.250000, 8182.000000, 8170.000000, 8165.000000
2548, 7244808.000000, 1961.125000, 8197.000000, 8245.500000, 8256.500000
2549, 7244968.000000, 1890.750000, 8605.500000, 8130.000000, 8329.500000
2550, 7245128.000000, 1792.500000, 8066.000000, 8121.000000, 8102.500000
2551, 7245288.000000, 1683.125000, 8087.500000, 8116.000000, 8037.500000
2552, 7245448.000000, 1581.375000, 8157.500000, 8196.000000, 8169.500000
2553, 7245608.000000, 1497.250000, 8188.500000, 8215.500000, 8216.000000
2554, 7245768.000000, 1433.250000, 8199.000000, 8221.500000, 8227.500000
2555, 7245928.000000, 1381.750000, 8206.500000, 8227.500000, 8236.000000
2556, 7246088.000000, 1340.250000, 8214.500000, 8235.000000, 8246.000000
2557, 7246248.000000, 1307.500000, 8226.000000, 8245.500000, 8263.000000
2558, 7246408.000000, 1279.750000, 8238.500000, 8262.500000, 8284.500000
2559, 7246568.000000, 1255.375000, 8257.000000, 8283.500000, 8312.000000
2560, 7246728.000000, 1235.000000, 8273.500000, 8298.000000, 8332.500000
2561, 7246888.000000, 1215.625000, 8280.000000, 8296.500000, 8332.500000
2562, 7247048.000000, 1200.375000, 8266.500000, 8276.500000, 8308.000000
2563, 7247208.000000, 1186.250000, 8226.500000, 8242.000000, 8261.000000
2564, 7247368.000000, 1173.250000, 8182.500000, 8200.500000, 8201.000000
2565, 7247528.000000, 1162.125000, 8159.000000, 8173.000000, 8160.500000
2566, 7247688.000000, 1152.625000, 8154.500000, 8163.500000, 8146.000000
2567, 7247848.000000, 1141.250000, 8154.000000, 8162.500000, 8146.500000
2568, 7248008.000000, 1123.000000, 8159.000000, 8165.500000, 8152.500000
2569, 7248168.000000, 1101.750000, 8164.500000, 8168.000000, 8158.000000
2570, 7248328.000000, 1071.125000, 8166.500000, 8167.000000, 8156.500000
2571, 7248488.000000, 1031.625000, 8164.500000, 8163.500000, 8151.500000
2572, 7248648.000000, 1021.875000, 8165.000000, 8162.000000, 8149.500000
2573, 7248808.000000, 1163.625000, 8163.000000, 8161.000000, 8147.000000
2574, 7248968.000000, 1528.500000, 8162.000000, 8161.000000, 8146.500000
2575, 7249128.000000, 2064.375000, 8161.000000, 8161.000000, 8144.000000
2576, 7249288.000000, 2560.875000, 8160.500000, 8160.500000, 8143.000000
2577, 7249448.000000, 2866.500000, 8161.000000, 8162.000000, 8145.000000
2578, 7249608.000000, 2944.875000, 8162.000000, 8163.000000, 8148.000000
2579, 7249768.000000, 2859.125000, 8163.000000, 8165.000000, 8149.000000
2580, 7249928.000000, 2711.250000, 8162.000000, 8166.500000, 8151.500000
2581, 7250088.000000, 2562.000000, 8163.500000, 8167.500000, 8154.000000
2582, 7250248.000000, 2424.750000, 8160.000000, 8167.500000, 8146.500000
2583, 7250408.000000, 2274.000000, 8166.000000, 8174.500000, 8149.500000
2584, 7250568.000000, 2103.625000, 8175.500000, 8172.500000, 8161.000000
2585, 7250728.000000, 1956.625000, 8173.000000, 8174.500000, 8163.500000
2586, 7250888.000000, 1878.750000, 8164.500000, 8172.000000, 8158.000000
2587, 7251048.000000, 1874.375000, 8169.000000, 8173.000000, 8162.000000
2588, 7251208.000000, 1903.125000, 8171.000000, 8175.000000, 8166.500000
2589, 7251368.000000, 1918.250000, 8216.500000, 8262.500000, 8281.000000
2590, 7251528.000000, 1901.750000, 8591.000000, 8088.500000, 8287.500000
2591, 7251688.000000, 1845.500000, 8053.000000, 8081.000000, 8036.500000
2592, 7251848.000000, 1758.000000, 8088.500000, 8135.000000, 8053.500000
2593, 7252008.000000, 1654.125000, 8161.000000, 8218.500000, 8203.000000
2594, 7252168.000000, 1550.250000, 8179.000000, 8230.500000, 8230.500000
2595, 7252328.000000, 1462.000000, 8186.500000, 8235.000000, 8236.500000
2596, 7252488.000000, 1390.125000, 8193.000000, 8242.000000, 8246.000000
2597, 7252648.000000, 1335.500000, 8202.500000, 8251.500000, 8260.500000
2598, 7252808.000000, 1292.125000, 8212.000000, 8267.500000, 8282.000000
2599, 7252968.000000, 1254.625000, 8226.000000, 8290.500000, 8312.000000
2600, 7253128.000000, 1221.500000, 8243.000000, 8315.500000, 8343.500000
2601, 7253288.000000, 1193.125000, 8259.000000, 8331.000000, 8366.500000
2602, 7253448.000000, 1171.000000, 8257.500000, 8326.500000, 8361.000000
2603, 7253608.000000, 1151.625000, 8243.500000, 8296.000000, 8325.000000
2604, 7253768.000000, 1135.000000, 8207.000000, 8241.000000, 8255.000000
2605, 7253928.000000, 1115.000000, 8171.500000, 8190.000000, 8184.000000
2606, 7254088.000000, 1099.375000, 8153.500000, 8162.500000, 8146.000000
2607, 7254248.000000, 1089.125000, 8150.500000, 8156.500000, 8138.000000
2608, 7254408.000000, 1081.375000, 8154.000000, 8159.500000, 8143.500000
2609, 7254568.000000, 1066.625000, 8159.000000, 8163.500000, 8149.000000
2610, 7254728.000000, 1043.375000, 8163.000000, 8164.000000, 8152.000000
2611, 7254888.000000, 1003.125000, 8166.500000, 8162.500000, 8152.000000
2612, 7255048.000000, 959.375000, 8165.500000, 8159.000000, 8148.500000
2613, 7255208.000000, 980.500000, 8165.000000, 8156.000000, 8143.000000
2614, 7255368.000000, 1180.375000, 8163.500000, 8156.000000, 8142.500000
2615, 7255528.000000, 1621.500000, 8162.000000, 8156.000000, 8141.000000
2616, 7255688.000000, 2190.000000, 8162.000000, 8155.500000, 8140.500000
2617, 7255848.000000, 2687.875000, 8162.500000, 8156.000000, 8138.500000
2618, 7256008.000000, 2983.000000, 8165.500000, 8158.000000, 8143.500000
2619, 7256168.000000, 3046.000000, 8165.000000, 8160.000000, 8145.000000
2620, 7256328.000000, 2964.125000, 8166.000000, 8161.000000, 8146.000000
2621, 7256488.000000, 2818.500000, 8168.000000, 8161.000000, 8146.500000
2622, 7256648.000000, 2681.125000, 8170.000000, 8162.500000, 8153.000000
2623, 7256808.000000, 2568.125000, 8168.000000, 8166.000000, 8149.500000
2624, 7256968.000000, 2448.125000, 8173.000000, 8172.000000, 8152.500000
2625, 7257128.000000, 2296.750000, 8183.000000, 8168.000000, 8159.000000
2626, 7257288.000000, 2137.375000, 8179.000000, 8169.500000, 8160.500000
2627, 7257448.000000, 2032.875000, 8173.000000, 8167.500000, 8156.500000
2628, 7257608.000000, 1996.000000, 8176.000000, 8169.500000, 8160.500000
2629, 7257768.000000, 2005.375000, 8176.000000, 8172.500000, 8165.500000
2630, 7257928.000000, 2014.625000, 8226.500000, 8264.500000, 8291.500000
2631, 7258088.000000, 1994.625000, 8610.000000, 8036.500000, 8251.500000
2632, 7258248.000000, 1932.875000, 8056.500000, 8038.500000, 7980.500000
2633, 7258408.000000, 1840.375000, 8097.500000, 8146.500000, 8068.500000
2634, 7258568.000000, 1731.375000, 8172.000000, 8229.000000, 8222.000000
2635, 7258728.000000, 1621.125000, 8186.000000, 8236.000000, 8238.000000
2636, 7258888.000000, 1524.750000, 8193.000000, 8241.000000, 8246.500000
2637, 7259048.000000, 1445.875000, 8199.000000, 8248.500000, 8256.500000
2638, 7259208.000000, 1383.375000, 8209.000000, 8261.500000, 8275.500000
2639, 7259368.000000, 1337.000000, 8220.000000, 8278.000000, 8297.500000
2640, 7259528.000000, 1302.375000, 8232.000000, 8302.000000, 8327.500000
2641, 7259688.000000, 1273.750000, 8248.500000, 8327.000000, 8360.000000
2642, 7259848.000000, 1252.125000, 8264.000000, 8343.500000, 8384.500000
2643, 7260008.000000, 1235.250000, 8265.000000, 8340.500000, 8380.500000
2644, 7260168.000000, 1222.500000, 8249.000000, 8305.500000, 8338.500000
2645, 7260328.000000, 1214.125000, 8213.000000, 8240.500000, 8256.500000
2646, 7260488.000000, 1205.500000, 8177.500000, 8184.500000, 8180.500000
2647, 7260648.000000, 1195.500000, 8160.000000, 8157.500000, 8141.500000
2648, 7260808.000000, 1185.500000, 8156.000000, 8153.500000, 8135.000000
2649, 7260968.000000, 1177.125000, 8159.000000, 8158.000000, 8141.000000
2650, 7261128.000000, 1166.375000, 8161.500000, 8161.000000, 8146.000000
2651, 7261288.000000, 1150.000000, 8165.500000, 8161.500000, 8149.000000
2652, 7261448.000000, 1120.125000, 8167.500000, 8160.000000, 8148.000000
2653, 7261608.000000, 1082.875000, 8168.000000, 8157.500000, 8146.500000
2654, 7261768.000000, 1110.875000, 8167.000000, 8155.500000, 8142.500000
2655, 7261928.000000, 1328.500000, 8169.000000, 8154.000000, 8142.000000
2656, 7262088.000000, 1801.250000, 8168.000000, 8154.000000, 8139.500000
2657, 7262248.000000, 2397.875000, 8167.500000, 8153.500000, 8139.500000
2658, 7262408.000000, 2910.875000, 8170.000000, 8155.000000, 8142.000000
2659, 7262568.000000, 3191.500000, 8170.500000, 8157.500000, 8145.500000
2660, 7262728.000000, 3259.375000, 8170.500000, 8158.500000, 8146.500000
2661, 7262888.000000, 3176.875000, 8172.000000, 8159.000000, 8147.000000
2662, 7263048.000000, 3051.125000, 8172.500000, 8159.500000, 8149.000000
2663, 7263208.000000, 2941.625000, 8174.000000, 8162.000000, 8153.000000
2664, 7263368.000000, 2851.500000, 8175.000000, 8164.000000, 8155.000000
2665, 7263528.000000, 2747.125000, 8167.000000, 8163.000000, 8144.000000
2666, 7263688.000000, 2595.375000, 8182.000000, 8178.000000, 8162.000000
2667, 7263848.000000, 2422.500000, 8186.500000, 8167.500000, 8159.500000
2668, 7264008.000000, 2280.375000, 8185.500000, 8170.500000, 8164.500000
2669, 7264168.000000, 2211.375000, 8175.000000, 8170.000000, 8160.000000
2670, 7264328.000000, 2192.750000, 8177.500000, 8171.000000, 8162.500000
2671, 7264488.000000, 2187.500000, 8178.000000, 8171.500000, 8163.500000
2672, 7264648.000000, 2158.625000, 8176.000000, 8248.500000, 8257.000000
2673, 7264808.000000, 2095.375000, 8615.500000, 8096.000000, 8311.000000
2674, 7264968.000000, 1997.375000, 8085.000000, 8009.500000, 7982.500000
2675, 7265128.000000, 1881.625000, 8081.000000, 8109.000000, 8016.500000
2676, 7265288.000000, 1763.500000, 8166.500000, 8224.500000, 8211.500000
2677, 7265448.000000, 1659.625000, 8184.000000, 8238.500000, 8240.000000
2678, 7265608.000000, 1572.250000, 8192.000000, 8242.500000, 8247.500000
2679, 7265768.000000, 1505.625000, 8198.000000, 8250.500000, 8258.500000
2680, 7265928.000000, 1456.875000, 8206.000000, 8260.500000, 8272.500000
2681, 7266088.000000, 1416.625000, 8214.500000, 8273.500000, 8289.500000
2682, 7266248.000000, 1383.500000, 8228.000000, 8295.500000, 8317.500000
2683, 7266408.000000, 1352.875000, 8245.500000, 8322.500000, 8354.000000
2684, 7266568.000000, 1322.750000, 8262.500000, 8344.500000, 8384.500000
2685, 7266728.000000, 1299.375000, 8264.500000, 8345.500000, 8385.000000
2686, 7266888.000000, 1279.125000, 8253.000000, 8319.500000, 8353.000000
2687, 7267048.000000, 1263.250000, 8224.500000, 8258.500000, 8279.500000
2688, 7267208.000000, 1247.000000, 8186.500000, 8197.500000, 8198.500000
2689, 7267368.000000, 1227.000000, 8163.000000, 8164.500000, 8150.500000
2690, 7267528.000000, 1210.125000, 8157.000000, 8156.500000, 8138.500000
2691, 7267688.000000, 1193.875000, 8158.000000, 8157.000000, 8138.000000
2692, 7267848.000000, 1183.375000, 8160.500000, 8159.000000, 8141.500000
2693, 7268008.000000, 1171.250000, 8163.000000, 8161.500000, 8147.500000
2694, 7268168.000000, 1148.125000, 8165.000000, 8162.000000, 8149.000000
2695, 7268328.000000, 1110.625000, 8167.000000, 8158.500000, 8145.500000
2696, 7268488.000000, 1108.250000, 8166.000000, 8154.500000, 8138.500000
2697, 7268648.000000, 1255.000000, 8166.000000, 8153.000000, 8139.000000
2698, 7268808.000000, 1643.625000, 8166.500000, 8153.500000, 8138.000000
2699, 7268968.000000, 2213.000000, 8167.000000, 8154.500000, 8139.500000
2700, 7269128.000000, 2766.750000, 8167.000000, 8155.500000, 8140.500000
2701, 7269288.000000, 3121.375000, 8168.000000, 8156.000000, 8141.000000
2702, 7269448.000000, 3246.625000, 8169.000000, 8157.000000, 8143.000000
2703, 7269608.000000, 3196.625000, 8168.500000, 8158.500000, 8146.000000
2704, 7269768.000000, 3075.750000, 8172.000000, 8159.500000, 8147.500000
2705, 7269928.000000, 2960.375000, 8171.000000, 8161.000000, 8150.000000
2706, 7270088.000000, 2874.125000, 8172.000000, 8161.000000, 8151.000000
2707, 7270248.000000, 2785.750000, 8168.500000, 8157.500000, 8145.000000
2708, 7270408.000000, 2654.625000, 8179.000000, 8174.500000, 8163.000000
2709, 7270568.000000, 2481.875000, 8179.000000, 8168.500000, 8158.000000
2710, 7270728.000000, 2327.125000, 8186.000000, 8168.500000, 8162.000000
2711, 7270888.000000, 2234.000000, 8173.500000, 8167.500000, 8157.500000
2712, 7271048.000000, 2200.500000, 8175.500000, 8168.000000, 8160.500000
2713, 7271208.000000, 2188.625000, 8177.000000, 8171.500000, 8166.500000
2714, 7271368.000000, 2160.750000, 8167.500000, 8202.000000, 8203.000000
2715, 7271528.000000, 2099.000000, 8456.000000, 8188.000000, 8314.000000
2716, 7271688.000000, 2005.500000, 8285.000000, 8042.500000, 8121.500000
2717, 7271848.000000, 1890.000000, 8062.500000, 8082.500000, 8003.500000
2718, 7272008.000000, 1771.500000, 8129.000000, 8179.500000, 8128.000000
2719, 7272168.000000, 1666.000000, 8180.000000, 8223.500000, 8221.000000
2720, 7272328.000000, 1578.125000, 8190.000000, 8228.500000, 8232.500000
2721, 7272488.000000, 1509.000000, 8199.000000, 8233.000000, 8240.500000
2722, 7272648.000000, 1459.125000, 8205.500000, 8240.000000, 8251.000000
2723, 7272808.000000, 1422.875000, 8216.500000, 8253.500000, 8269.000000
2724, 7272968.000000, 1392.500000, 8228.500000, 8271.000000, 8291.500000
2725, 7273128.000000, 1365.375000, 8245.000000, 8291.000000, 8319.500000
2726, 7273288.000000, 1342.125000, 8263.500000, 8309.500000, 8345.000000
2727, 7273448.000000, 1323.625000, 8275.000000, 8318.000000, 8358.000000
2728, 7273608.000000, 1307.125000, 8273.000000, 8307.500000, 8345.500000
2729, 7273768.000000, 1291.625000, 8248.500000, 8271.500000, 8299.500000
2730, 7273928.000000, 1274.000000, 8204.500000, 8218.000000, 8229.000000
2731, 7274088.000000, 1254.625000, 8174.500000, 8175.500000, 8167.500000
2732, 7274248.000000, 1235.000000, 8160.000000, 8159.000000, 8143.000000
2733, 7274408.000000, 1218.875000, 8160.000000, 8159.500000, 8143.500000
2734, 7274568.000000, 1205.250000, 8162.000000, 8163.000000, 8148.000000
2735, 7274728.000000, 1188.000000, 8164.500000, 8163.500000, 8149.500000
2736, 7274888.000000, 1162.500000, 8168.000000, 8162.000000, 8149.500000
2737, 7275048.000000, 1128.000000, 8172.500000, 8160.000000, 8150.500000
2738, 7275208.000000, 1090.125000, 8171.000000, 8160.000000, 8149.500000
2739, 7275368.000000, 1119.500000, 8169.500000, 8158.000000, 8146.500000
2740, 7275528.000000, 1318.750000, 8168.500000, 8155.500000, 8141.000000
2741, 7275688.000000, 1768.500000, 8170.000000, 8155.000000, 8140.000000
2742, 7275848.000000, 2336.500000, 8169.500000, 8156.500000, 8142.000000
2743, 7276008.000000, 2832.125000, 8170.000000, 8158.500000, 8145.500000
2744, 7276168.000000, 3105.500000, 8172.000000, 8160.000000, 8147.000000
2745, 7276328.000000, 3159.875000, 8170.500000, 8161.000000, 8147.000000
2746, 7276488.000000, 3073.250000, 8170.000000, 8162.500000, 8149.500000
2747, 7276648.000000, 2936.250000, 8170.000000, 8163.500000, 8152.000000
2748, 7276808.000000, 2809.125000, 8167.000000, 8165.500000, 8146.000000
2749, 7276968.000000, 2691.000000, 8174.000000, 8171.500000, 8149.000000
2750, 7277128.000000, 2548.500000, 8183.000000, 8169.500000, 8159.000000
2751, 7277288.000000, 2370.750000, 8181.000000, 8170.500000, 8163.500000
2752, 7277448.000000, 2204.375000, 8171.500000, 8169.500000, 8159.000000
2753, 7277608.000000, 2102.375000, 8174.500000, 8172.000000, 8163.500000
2754, 7277768.000000, 2078.375000, 8177.500000, 8174.500000, 8169.000000
2755, 7277928.000000, 2089.125000, 8213.500000, 8255.500000, 8272.000000
2756, 7278088.000000, 2094.000000, 8591.000000, 8110.000000, 8307.000000
2757, 7278248.000000, 2061.125000, 8052.000000, 8102.000000, 8067.000000
2758, 7278408.000000, 1990.250000, 8088.500000, 8129.500000, 8049.000000
2759, 7278568.000000, 1888.500000, 8164.500000, 8212.500000, 8197.500000
2760, 7278728.000000, 1774.375000, 8182.500000, 8223.500000, 8221.500000
2761, 7278888.000000, 1664.750000, 8193.000000, 8228.000000, 8232.000000
2762, 7279048.000000, 1572.000000, 8201.000000, 8234.500000, 8243.500000
2763, 7279208.000000, 1500.375000, 8209.000000, 8244.000000, 8256.500000
2764, 7279368.000000, 1450.000000, 8219.000000, 8258.000000, 8274.000000
2765, 7279528.000000, 1412.250000, 8233.500000, 8276.500000, 8299.500000
2766, 7279688.000000, 1378.375000, 8253.000000, 8298.000000, 8328.000000
2767, 7279848.000000, 1347.500000, 8270.500000, 8312.500000, 8350.000000
2768, 7280008.000000, 1319.875000, 8275.000000, 8311.000000, 8349.500000
2769, 7280168.000000, 1299.000000, 8258.500000, 8286.000000, 8319.000000
2770, 7280328.000000, 1280.250000, 8217.500000, 8239.000000, 8256.000000
2771, 7280488.000000, 1263.000000, 8176.500000, 8192.000000, 8191.000000
2772, 7280648.000000, 1242.875000, 8154.500000, 8165.500000, 8150.000000
2773, 7280808.000000, 1221.000000, 8151.000000, 8161.500000, 8143.500000
2774, 7280968.000000, 1203.125000, 8151.500000, 8164.000000, 8146.500000
2775, 7281128.000000, 1186.625000, 8155.000000, 8165.000000, 8150.000000
2776, 7281288.000000, 1166.875000, 8162.000000, 8165.500000, 8154.500000
2777, 7281448.000000, 1141.500000, 8164.000000, 8164.500000, 8153.500000
2778, 7281608.000000, 1106.125000, 8166.000000, 8163.000000, 8153.000000
2779, 7281768.000000, 1082.125000, 8164.000000, 8161.000000, 8148.000000
2780, 7281928.000000, 1135.125000, 8163.000000, 8159.000000, 8145.000000
2781, 7282088.000000, 1393.875000, 8161.500000, 8157.500000, 8143.500000
2782, 7282248.000000, 1854.625000, 8162.500000, 8157.500000, 8143.000000
2783, 7282408.000000, 2399.625000, 8164.000000, 8160.000000, 8145.000000
2784, 7282568.000000, 2821.875000, 8163.000000, 8161.000000, 8145.000000
2785, 7282728.000000, 3028.375000, 8163.000000, 8161.500000, 8146.500000
2786, 7282888.000000, 3035.750000, 8163.000000, 8162.000000, 8146.000000
2787, 7283048.000000, 2925.250000, 8164.000000, 8163.500000, 8148.500000
2788, 7283208.000000, 2788.750000, 8166.500000, 8165.500000, 8153.000000
2789, 7283368.000000, 2672.125000, 8161.500000, 8163.000000, 8147.000000
2790, 7283528.000000, 2556.250000, 8170.500000, 8178.500000, 8161.500000
2791, 7283688.000000, 2407.125000, 8176.000000, 8169.500000, 8157.000000
2792, 7283848.000000, 2232.750000, 8180.000000, 8169.500000, 8160.500000
2793, 7284008.000000, 2093.375000, 8170.500000, 8171.000000, 8160.000000
2794, 7284168.000000, 2031.375000, 8172.000000, 8173.000000, 8163.000000
2795, 7284328.000000, 2036.000000, 8173.500000, 8173.500000, 8165.500000
2796, 7284488.000000, 2055.375000, 8162.500000, 8204.000000, 8202.500000
2797, 7284648.000000, 2050.625000, 8438.500000, 8197.500000, 8319.000000
2798, 7284808.000000, 2008.500000, 8318.000000, 8020.000000, 8113.000000
2799, 7284968.000000, 1929.500000, 8055.500000, 8078.000000, 7993.000000
2800, 7285128.000000, 1830.500000, 8126.000000, 8185.500000, 8134.000000
2801, 7285288.000000, 1721.750000, 8175.500000, 8228.500000, 8225.000000
2802, 7285448.000000, 1623.625000, 8185.500000, 8233.500000, 8236.000000
2803, 7285608.000000, 1543.875000, 8193.500000, 8240.500000, 8246.500000
2804, 7285768.000000, 1483.500000, 8202.000000, 8249.500000, 8259.500000
2805, 7285928.000000, 1438.625000, 8210.000000, 8261.500000, 8275.500000
2806, 7286088.000000, 1405.500000, 8220.500000, 8279.000000, 8298.000000
2807, 7286248.000000, 1376.125000, 8239.000000, 8304.500000, 8333.000000
2808, 7286408.000000, 1348.625000, 8256.500000, 8328.500000, 8364.500000
2809, 7286568.000000, 1324.375000, 8267.500000, 8336.500000, 8376.000000
2810, 7286728.000000, 1305.250000, 8264.500000, 8323.000000, 8361.500000
2811, 7286888.000000, 1291.875000, 8240.500000, 8277.000000, 8306.000000
2812, 7287048.000000, 1278.375000, 8199.500000, 8216.500000, 8226.500000
2813, 7287208.000000, 1262.625000, 8168.000000, 8174.500000, 8166.000000
2814, 7287368.000000, 1246.250000, 8154.500000, 8158.000000, 8140.500000
2815, 7287528.000000, 1231.250000, 8153.500000, 8156.500000, 8138.000000
2816, 7287688.000000, 1216.375000, 8156.500000, 8159.000000, 8142.500000
2817, 7287848.000000, 1201.625000, 8161.000000, 8162.500000, 8149.500000
2818, 7288008.000000, 1182.875000, 8165.500000, 8164.500000, 8155.000000
2819, 7288168.000000, 1155.250000, 8167.500000, 8162.500000, 8152.500000
2820, 7288328.000000, 1120.125000, 8167.500000, 8158.500000, 8146.500000
2821, 7288488.000000, 1130.125000, 8167.000000, 8155.000000, 8142.000000
2822, 7288648.000000, 1301.875000, 8167.500000, 8155.000000, 8143.000000
2823, 7288808.000000, 1716.125000, 8165.000000, 8155.000000, 8140.000000
2824, 7288968.000000, 2289.125000, 8165.000000, 8156.000000, 8141.000000
2825, 7289128.000000, 2818.250000, 8166.500000, 8156.000000, 8140.500000
2826, 7289288.000000, 3145.500000, 8168.000000, 8156.000000, 8143.000000
2827, 7289448.000000, 3236.250000, 8169.000000, 8158.500000, 8146.500000
2828, 7289608.000000, 3178.250000, 8170.000000, 8160.500000, 8147.500000
2829, 7289768.000000, 3057.375000, 8172.500000, 8162.000000, 8150.500000
2830, 7289928.000000, 2950.500000, 8172.000000, 8162.500000, 8150.500000
2831, 7290088.000000, 2867.000000, 8172.500000, 8162.000000, 8150.500000
2832, 7290248.000000, 2763.500000, 8174.000000, 8164.000000, 8155.000000
2833, 7290408.000000, 2612.250000, 8174.000000, 8167.000000, 8158.000000
2834, 7290568.000000, 2430.625000, 8170.500000, 8163.500000, 8151.500000
2835, 7290728.000000, 2286.250000, 8180.500000, 8180.000000, 8168.500000
2836, 7290888.000000, 2207.375000, 8182.500000, 8169.000000, 8160.000000
2837, 7291048.000000, 2188.125000, 8186.500000, 8170.500000, 8165.000000
2838, 7291208.000000, 2182.375000, 8177.000000, 8172.000000, 8163.500000
2839, 7291368.000000, 2156.375000, 8177.000000, 8172.000000, 8165.000000
2840, 7291528.000000, 2091.625000, 8178.500000, 8173.500000, 8166.000000
2841, 7291688.000000, 1995.125000, 8170.000000, 8202.000000, 8203.500000
2842, 7291848.000000, 1885.375000, 8432.000000, 8196.500000, 8318.500000
2843, 7292008.000000, 1774.750000, 8360.500000, 7970.500000, 8082.500000
2844, 7292168.000000, 1679.750000, 8055.500000, 8060.000000, 7967.000000
2845, 7292328.000000, 1601.500000, 8136.000000, 8196.000000, 8152.000000
2846, 7292488.000000, 1541.375000, 8180.000000, 8234.000000, 8233.000000
2847, 7292648.000000, 1492.750000, 8191.000000, 8239.500000, 8245.500000
2848, 7292808.000000, 1454.250000, 8196.000000, 8246.500000, 8254.500000
2849, 7292968.000000, 1420.500000, 8202.000000, 8254.500000, 8266.000000
2850, 7293128.000000, 1393.750000, 8210.000000, 8267.500000, 8282.500000
2851, 7293288.000000, 1369.375000, 8222.000000, 8287.000000, 8309.000000
2852, 7293448.000000, 1348.125000, 8237.500000, 8312.500000, 8343.000000
2853, 7293608.000000, 1331.250000, 8254.500000, 8338.000000, 8376.500000
2854, 7293768.000000, 1315.125000, 8266.500000, 8348.500000, 8392.000000
2855, 7293928.000000, 1300.250000, 8265.000000, 8336.000000, 8377.500000
2856, 7294088.000000, 1282.875000, 8243.000000, 8289.000000, 8321.000000
2857, 7294248.000000, 1259.750000, 8204.000000, 8223.000000, 8236.000000
2858, 7294408.000000, 1234.750000, 8172.000000, 8174.000000, 8167.000000
2859, 7294568.000000, 1212.625000, 8158.000000, 8154.500000, 8137.500000
2860, 7294728.000000, 1196.500000, 8156.000000, 8151.000000, 8132.500000
2861, 7294888.000000, 1188.125000, 8158.000000, 8154.000000, 8137.000000
2862, 7295048.000000, 1183.625000, 8160.500000, 8159.500000, 8146.000000
2863, 7295208.000000, 1175.500000, 8163.500000, 8160.500000, 8149.000000
2864, 7295368.000000, 1156.625000, 8168.000000, 8159.000000, 8150.000000
2865, 7295528.000000, 1128.375000, 8168.000000, 8155.500000, 8144.500000
2866, 7295688.000000, 1144.125000, 8169.000000, 8154.000000, 8142.000000
2867, 7295848.000000, 1339.250000, 8169.000000, 8153.500000, 8141.500000
2868, 7296008.000000, 1768.500000, 8168.000000, 8156.000000, 8143.000000
2869, 7296168.000000, 2366.750000, 8168.000000, 8157.000000, 8144.000000
2870, 7296328.000000, 2908.625000, 8167.500000, 8156.000000, 8142.000000
2871, 7296488.000000, 3240.625000, 8171.000000, 8157.500000, 8146.500000
2872, 7296648.000000, 3333.000000, 8170.000000, 8158.500000, 8147.500000
2873, 7296808.000000, 3273.000000, 8172.000000, 8161.000000, 8151.000000
2874, 7296968.000000, 3160.750000, 8172.000000, 8161.000000, 8151.000000
2875, 7297128.000000, 3067.625000, 8172.000000, 8161.000000, 8150.000000
2876, 7297288.000000, 3002.750000, 8174.500000, 8162.500000, 8154.000000
2877, 7297448.000000, 2926.875000, 8174.500000, 8165.500000, 8157.000000
2878, 7297608.000000, 2793.125000, 8175.000000, 8168.000000, 8160.000000
2879, 7297768.000000, 2605.625000, 8174.000000, 8166.500000, 8158.000000
2880, 7297928.000000, 2423.625000, 8174.000000, 8174.000000, 8159.500000
2881, 7298088.000000, 2306.000000, 8177.500000, 8173.500000, 8158.000000
2882, 7298248.000000, 2259.000000, 8189.000000, 8173.000000, 8168.000000
2883, 7298408.000000, 2242.250000, 8181.500000, 8174.000000, 8168.000000
2884, 7298568.000000, 2215.375000, 8178.000000, 8174.000000, 8168.000000
2885, 7298728.000000, 2151.625000, 8178.500000, 8174.000000, 8168.500000
2886, 7298888.000000, 2055.375000, 8176.500000, 8177.000000, 8173.000000
2887, 7299048.000000, 1939.000000, 8251.500000, 8263.000000, 8299.500000
2888, 7299208.000000, 1820.375000, 8588.500000, 8011.000000, 8219.500000
2889, 7299368.000000, 1715.625000, 8055.000000, 8049.000000, 7981.000000
2890, 7299528.000000, 1628.250000, 8107.500000, 8161.500000, 8089.500000
2891, 7299688.000000, 1557.750000, 8174.000000, 8234.000000, 8228.500000
2892, 7299848.000000, 1499.500000, 8186.000000, 8240.500000, 8243.500000
2893, 7300008.000000, 1452.375000, 8193.000000, 8245.000000, 8251.000000
2894, 7300168.000000, 1411.125000, 8201.000000, 8251.000000, 8261.000000
2895, 7300328.000000, 1374.250000, 8209.500000, 8260.500000, 8273.500000
2896, 7300488.000000, 1340.500000, 8220.500000, 8277.000000, 8297.000000
2897, 7300648.000000, 1313.375000, 8233.500000, 8298.500000, 8325.000000
2898, 7300808.000000, 1292.125000, 8251.000000, 8326.000000, 8360.500000
2899, 7300968.000000, 1273.000000, 8266.000000, 8342.000000, 8382.500000
2900, 7301128.000000, 1253.875000, 8271.000000, 8336.500000, 8380.500000
2901, 7301288.000000, 1229.125000, 8256.000000, 8305.500000, 8341.000000
2902, 7301448.000000, 1200.500000, 8220.000000, 8243.000000, 8264.000000
2903, 7301608.000000, 1172.750000, 8182.500000, 8185.000000, 8184.000000
2904, 7301768.000000, 1147.750000, 8161.000000, 8158.000000, 8144.500000
2905, 7301928.000000, 1126.625000, 8157.000000, 8151.000000, 8135.000000
2906, 7302088.000000, 1111.375000, 8156.500000, 8154.000000, 8137.500000
2907, 7302248.000000, 1101.125000, 8161.000000, 8158.000000, 8145.000000
2908, 7302408.000000, 1093.500000, 8165.500000, 8159.000000, 8148.500000
2909, 7302568.000000, 1081.250000, 8167.000000, 8158.000000, 8147.000000
2910, 7302728.000000, 1058.250000, 8169.000000, 8154.500000, 8144.500000
2911, 7302888.000000, 1033.750000, 8168.500000, 8151.000000, 8139.500000
2912, 7303048.000000, 1100.375000, 8167.500000, 8150.500000, 8138.500000
2913, 7303208.000000, 1368.375000, 8167.000000, 8151.000000, 8138.000000
2914, 7303368.000000, 1874.875000, 8168.000000, 8150.500000, 8137.500000
2915, 7303528.000000, 2460.625000, 8168.500000, 8149.500000, 8137.000000
2916, 7303688.000000, 2933.250000, 8171.000000, 8149.500000, 8138.500000
2917, 7303848.000000, 3156.500000, 8171.500000, 8153.500000, 8142.000000
2918, 7304008.000000, 3176.125000, 8173.000000, 8156.000000, 8145.000000
2919, 7304168.000000, 3076.375000, 8172.000000, 8156.500000, 8144.500000
2920, 7304328.000000, 2953.500000, 8173.000000, 8156.500000, 8145.500000
2921, 7304488.000000, 2836.125000, 8173.500000, 8157.000000, 8147.000000
2922, 7304648.000000, 2709.875000, 8176.000000, 8160.500000, 8151.500000
2923, 7304808.000000, 2545.250000, 8171.500000, 8158.000000, 8147.500000
2924, 7304968.000000, 2352.500000, 8178.500000, 8170.000000, 8155.500000
2925, 7305128.000000, 2183.375000, 8185.500000, 8167.500000, 8157.500000
2926, 7305288.000000, 2108.250000, 8192.000000, 8165.500000, 8161.000000
2927, 7305448.000000, 2097.875000, 8181.500000, 8168.000000, 8160.500000
2928, 7305608.000000, 2070.625000, 8180.000000, 8171.000000, 8164.500000
2929, 7305768.000000, 2010.250000, 8184.000000, 8170.500000, 8166.500000
2930, 7305928.000000, 1916.500000, 8177.500000, 8188.500000, 8188.000000
2931, 7306088.000000, 1802.000000, 8414.500000, 8220.000000, 8321.500000
2932, 7306248.000000, 1684.500000, 8352.000000, 8086.000000, 8192.500000
2933, 7306408.000000, 1578.625000, 8065.000000, 8108.500000, 8044.000000
2934, 7306568.000000, 1492.375000, 8122.500000, 8164.500000, 8102.500000
2935, 7306728.000000, 1426.625000, 8184.500000, 8214.500000, 8211.000000
2936, 7306888.000000, 1375.000000, 8197.000000, 8220.000000, 8226.000000
2937, 7307048.000000, 1336.625000, 8206.500000, 8226.000000, 8235.500000
2938, 7307208.000000, 1302.375000, 8215.000000, 8232.500000, 8245.000000
2939, 7307368.000000, 1273.125000, 8223.500000, 8242.000000, 8258.000000
2940, 7307528.000000, 1248.750000, 8233.500000, 8255.500000, 8276.500000
2941, 7307688.000000, 1226.625000, 8248.500000, 8275.000000, 8302.000000
2942, 7307848.000000, 1210.250000, 8267.000000, 8298.000000, 8333.000000
2943, 7308008.000000, 1194.625000, 8281.000000, 8309.000000, 8349.000000
2944, 7308168.000000, 1176.125000, 8281.000000, 8301.000000, 8339.000000
2945, 7308328.000000, 1156.000000, 8257.500000, 8271.000000, 8301.500000
2946, 7308488.000000, 1136.000000, 8211.500000, 8225.500000, 8238.500000
2947, 7308648.000000, 1116.000000, 8173.000000, 8185.000000, 8179.500000
2948, 7308808.000000, 1098.250000, 8154.000000, 8164.500000, 8148.500000
2949, 7308968.000000, 1084.250000, 8152.000000, 8160.500000, 8141.500000
2950, 7309128.000000, 1069.125000, 8153.000000, 8163.000000, 8146.500000
2951, 7309288.000000, 1050.375000, 8158.500000, 8164.500000, 8150.500000
2952, 7309448.000000, 1024.375000, 8163.000000, 8167.000000, 8155.000000
2953, 7309608.000000, 990.875000, 8165.500000, 8165.500000, 8155.000000
2954, 7309768.000000, 977.125000, 8164.000000, 8163.500000, 8150.500000
2955, 7309928.000000, 1092.250000, 8161.000000, 8161.000000, 8146.000000
2956, 7310088.000000, 1418.250000, 8161.500000, 8160.000000, 8146.000000
2957, 7310248.000000, 1947.875000, 8161.000000, 8160.500000, 8145.000000
2958, 7310408.000000, 2479.750000, 8160.500000, 8161.000000, 8143.500000
2959, 7310568.000000, 2839.750000, 8161.000000, 8160.500000, 8143.500000
2960, 7310728.000000, 2961.625000, 8162.000000, 8161.000000, 8146.000000
2961, 7310888.000000, 2902.250000, 8164.000000, 8162.000000, 8146.500000
2962, 7311048.000000, 2757.125000, 8162.500000, 8165.500000, 8150.000000
2963, 7311208.000000, 2607.625000, 8163.000000, 8167.000000, 8151.000000
2964, 7311368.000000, 2479.625000, 8166.000000, 8167.500000, 8153.500000
2965, 7311528.000000, 2348.000000, 8166.500000, 8167.500000, 8155.000000
2966, 7311688.000000, 2191.625000, 8161.500000, 8167.000000, 8147.000000
2967, 7311848.000000, 2031.125000, 8170.000000, 8179.000000, 8156.000000
2968, 7312008.000000, 1925.000000, 8180.500000, 8175.000000, 8165.500000
2969, 7312168.000000, 1892.375000, 8178.000000, 8176.000000, 8168.000000
2970, 7312328.000000, 1909.250000, 8168.000000, 8172.500000, 8161.500000
2971, 7312488.000000, 1929.125000, 8171.500000, 8174.500000, 8164.000000
2972, 7312648.000000, 1922.250000, 8174.000000, 8176.500000, 8169.500000
2973, 7312808.000000, 1874.375000, 8183.000000, 8256.500000, 8266.500000
2974, 7312968.000000, 1794.125000, 8614.500000, 8124.500000, 8332.000000
2975, 7313128.000000, 1694.375000, 8064.500000, 8086.000000, 8059.500000
2976, 7313288.000000, 1592.125000, 8078.500000, 8119.500000, 8034.000000
2977, 7313448.000000, 1498.125000, 8157.000000, 8214.000000, 8193.000000
2978, 7313608.000000, 1421.875000, 8178.000000, 8230.500000, 8226.500000
2979, 7313768.000000, 1365.500000, 8188.000000, 8234.500000, 8236.500000
2980, 7313928.000000, 1321.250000, 8197.000000, 8239.500000, 8246.000000
2981, 7314088.000000, 1287.875000, 8205.000000, 8249.500000, 8259.000000
2982, 7314248.000000, 1257.500000, 8216.000000, 8264.000000, 8279.000000
2983, 7314408.000000, 1230.375000, 8228.000000, 8284.000000, 8305.000000
2984, 7314568.000000, 1212.250000, 8245.500000, 8310.000000, 8339.000000
2985, 7314728.000000, 1197.875000, 8263.000000, 8327.500000, 8364.000000
2986, 7314888.000000, 1186.375000, 8271.500000, 8330.000000, 8370.000000
2987, 7315048.000000, 1172.875000, 8261.500000, 8309.000000, 8344.000000
2988, 7315208.000000, 1159.250000, 8228.500000, 8258.000000, 8279.500000
2989, 7315368.000000, 1144.250000, 8185.500000, 8201.000000, 8202.000000
2990, 7315528.000000, 1130.500000, 8160.000000, 8167.000000, 8153.000000
2991, 7315688.000000, 1118.875000, 8153.000000, 8158.000000, 8141.000000
2992, 7315848.000000, 1107.250000, 8153.000000, 8159.500000, 8142.500000
2993, 7316008.000000, 1090.000000, 8156.500000, 8164.000000, 8147.500000
2994, 7316168.000000, 1064.500000, 8160.000000, 8163.500000, 8149.500000
2995, 7316328.000000, 1030.000000, 8165.000000, 8163.000000, 8152.000000
2996, 7316488.000000, 995.000000, 8165.000000, 8162.500000, 8151.500000
2997, 7316648.000000, 1028.625000, 8164.500000, 8161.000000, 8148.000000
2998, 7316808.000000, 1243.250000, 8163.000000, 8159.000000, 8144.000000
2999, 7316968.000000, 1699.625000, 8162.000000, 8158.000000, 8143.000000
3000, 7317128.000000, 2277.000000, 8160.500000, 8156.000000, 8138.500000
3001, 7317288.000000, 2769.750000, 8163.500000, 8158.500000, 8143.000000
3002, 7317448.000000, 3042.875000, 8163.000000, 8160.000000, 8144.000000
3003, 7317608.000000, 3084.625000, 8165.000000, 8161.000000, 8146.000000
3004, 7317768.000000, 2992.875000, 8165.000000, 8161.500000, 8146.500000
3005, 7317928.000000, 2847.750000, 8165.500000, 8162.000000, 8147.500000
3006, 7318088.000000, 2715.125000, 8167.000000, 8165.000000, 8151.500000
3007, 7318248.000000, 2600.875000, 8169.000000, 8167.500000, 8155.500000
3008, 7318408.000000, 2471.750000, 8171.000000, 8168.000000, 8157.000000
3009, 7318568.000000, 2314.500000, 8166.500000, 8164.500000, 8151.000000
3010, 7318728.000000, 2151.250000, 8174.500000, 8178.500000, 8165.000000
3011, 7318888.000000, 2044.875000, 8178.500000, 8172.500000, 8161.000000
3012, 7319048.000000, 2006.875000, 8184.000000, 8173.500000, 8165.500000
3013, 7319208.000000, 2012.750000, 8177.500000, 8173.500000, 8165.000000
3014, 7319368.000000, 2019.500000, 8175.000000, 8173.500000, 8165.500000
3015, 7319528.000000, 1997.625000, 8175.500000, 8174.500000, 8167.000000
3016, 7319688.000000, 1939.250000, 8169.000000, 8196.500000, 8195.000000
3017, 7319848.000000, 1853.000000, 8397.000000, 8221.000000, 8324.500000
3018, 7320008.000000, 1746.375000, 8405.000000, 7999.500000, 8131.500000
3019, 7320168.000000, 1637.750000, 8054.000000, 8069.000000, 7983.500000
3020, 7320328.000000, 1542.000000, 8126.000000, 8184.000000, 8130.500000
3021, 7320488.000000, 1468.750000, 8176.500000, 8231.500000, 8227.500000
3022, 7320648.000000, 1412.875000, 8188.000000, 8238.500000, 8242.500000
3023, 7320808.000000, 1371.000000, 8193.500000, 8243.500000, 8248.500000
3024, 7320968.000000, 1334.375000, 8200.000000, 8251.000000, 8259.500000
3025, 7321128.000000, 1305.125000, 8211.500000, 8263.000000, 8278.000000
3026, 7321288.000000, 1280.875000, 8221.000000, 8282.500000, 8303.000000
3027, 7321448.000000, 1261.625000, 8235.000000, 8309.500000, 8337.000000
3028, 7321608.000000, 1247.250000, 8256.000000, 8335.500000, 8373.000000
3029, 7321768.000000, 1232.250000, 8268.000000, 8347.500000, 8389.500000
3030, 7321928.000000, 1216.125000, 8266.500000, 8339.000000, 8379.500000
3031, 7322088.000000, 1198.625000, 8245.000000, 8294.000000, 8324.500000
3032, 7322248.000000, 1180.250000, 8205.500000, 8229.000000, 8242.000000
3033, 7322408.000000, 1163.000000, 8173.500000, 8178.000000, 8171.000000
3034, 7322568.000000, 1144.375000, 8157.500000, 8155.000000, 8137.500000
3035, 7322728.000000, 1132.500000, 8157.000000, 8153.000000, 8135.000000
3036, 7322888.000000, 1122.500000, 8158.000000, 8156.500000, 8139.500000
3037, 7323048.000000, 1112.500000, 8161.000000, 8160.500000, 8145.500000
3038, 7323208.000000, 1094.625000, 8164.000000, 8161.500000, 8148.500000
3039, 7323368.000000, 1064.875000, 8166.000000, 8158.500000, 8146.500000
3040, 7323528.000000, 1061.750000, 8168.500000, 8156.000000, 8145.500000
3041, 7323688.000000, 1195.250000, 8168.000000, 8154.500000, 8143.500000
3042, 7323848.000000, 1568.125000, 8166.500000, 8155.000000, 8141.500000
3043, 7324008.000000, 2135.875000, 8166.000000, 8154.500000, 8140.500000
3044, 7324168.000000, 2709.875000, 8165.000000, 8153.500000, 8138.500000
3045, 7324328.000000, 3089.250000, 8166.000000, 8154.500000, 8140.500000
3046, 7324488.000000, 3232.875000, 8166.500000, 8156.000000, 8142.500000
3047, 7324648.000000, 3186.625000, 8168.000000, 8158.500000, 8145.500000
3048, 7324808.000000, 3059.000000, 8170.000000, 8159.000000, 8146.000000
3049, 7324968.000000, 2927.625000, 8170.500000, 8158.000000, 8146.000000
3050, 7325128.000000, 2825.625000, 8172.000000, 8159.500000, 8148.500000
3051, 7325288.000000, 2734.000000, 8173.000000, 8161.500000, 8152.500000
3052, 7325448.000000, 2608.875000, 8174.000000, 8164.000000, 8155.000000
3053, 7325608.000000, 2437.000000, 8168.500000, 8161.500000, 8149.000000
3054, 7325768.000000, 2272.500000, 8180.000000, 8178.500000, 8166.500000
3055, 7325928.000000, 2164.625000, 8181.500000, 8166.000000, 8156.500000
3056, 7326088.000000, 2125.375000, 8188.000000, 8169.000000, 8164.000000
3057, 7326248.000000, 2117.125000, 8176.500000, 8169.000000, 8160.000000
3058, 7326408.000000, 2102.375000, 8176.000000, 8170.000000, 8162.500000
3059, 7326568.000000, 2056.375000, 8179.000000, 8170.500000, 8165.500000
3060, 7326728.000000, 1981.125000, 8166.500000, 8212.000000, 8215.000000
3061, 7326888.000000, 1878.125000, 8489.500000, 8165.500000, 8314.500000
3062, 7327048.000000, 1768.500000, 8259.000000, 7983.500000, 8051.000000
3063, 7327208.000000, 1663.625000, 8059.500000, 8067.000000, 7971.000000
3064, 7327368.000000, 1577.125000, 8145.500000, 8204.500000, 8171.000000
3065, 7327528.000000, 1506.375000, 8180.500000, 8233.000000, 8231.500000
3066, 7327688.000000, 1449.500000, 8191.000000, 8239.000000, 8245.000000
3067, 7327848.000000, 1404.000000, 8198.000000, 8246.500000, 8254.500000
3068, 7328008.000000, 1367.375000, 8203.500000, 8255.000000, 8266.500000
3069, 7328168.000000, 1337.125000, 8213.000000, 8267.000000, 8283.000000
3070, 7328328.000000, 1311.750000, 8226.000000, 8286.500000, 8310.000000
3071, 7328488.000000, 1288.375000, 8241.000000, 8313.000000, 8344.500000
3072, 7328648.000000, 1269.125000, 8259.000000, 8341.000000, 8381.000000
3073, 7328808.000000, 1251.625000, 8268.500000, 8350.500000, 8393.500000
3074, 7328968.000000, 1235.125000, 8265.500000, 8336.500000, 8377.500000
3075, 7329128.000000, 1216.375000, 8242.500000, 8285.500000, 8316.000000
3076, 7329288.000000, 1194.750000, 8202.500000, 8217.000000, 8228.000000
3077, 7329448.000000, 1172.000000, 8173.000000, 8171.000000, 8163.500000
3078, 7329608.000000, 1152.125000, 8158.000000, 8154.500000, 8137.500000
3079, 7329768.000000, 1136.875000, 8156.500000, 8152.500000, 8134.000000
3080, 7329928.000000, 1126.500000, 8160.500000, 8154.500000, 8139.000000
3081, 7330088.000000, 1115.875000, 8163.500000, 8158.500000, 8145.000000
3082, 7330248.000000, 1096.375000, 8165.000000, 8160.000000, 8147.000000
3083, 7330408.000000, 1063.875000, 8167.500000, 8157.500000, 8145.500000
3084, 7330568.000000, 1055.750000, 8167.000000, 8154.000000, 8141.000000
3085, 7330728.000000, 1196.250000, 8167.500000, 8152.500000, 8139.500000
3086, 7330888.000000, 1574.875000, 8167.500000, 8152.500000, 8138.500000
3087, 7331048.000000, 2150.500000, 8167.000000, 8154.000000, 8139.000000
3088, 7331208.000000, 2710.375000, 8164.500000, 8153.500000, 8137.500000
3089, 7331368.000000, 3083.125000, 8169.000000, 8153.000000, 8139.000000
3090, 7331528.000000, 3216.750000, 8169.000000, 8154.500000, 8141.500000
3091, 7331688.000000, 3159.500000, 8170.000000, 8157.500000, 8144.500000
3092, 7331848.000000, 3026.125000, 8170.000000, 8159.000000, 8146.000000
3093, 7332008.000000, 2896.625000, 8172.000000, 8160.000000, 8148.000000
3094, 7332168.000000, 2797.875000, 8172.500000, 8159.000000, 8147.500000
3095, 7332328.000000, 2711.625000, 8173.500000, 8160.500000, 8150.500000
3096, 7332488.000000, 2585.000000, 8176.000000, 8162.500000, 8153.500000
3097, 7332648.000000, 2413.000000, 8174.500000, 8165.000000, 8156.500000
3098, 7332808.000000, 2245.375000, 8170.500000, 8161.000000, 8149.000000
3099, 7332968.000000, 2140.250000, 8182.000000, 8174.500000, 8163.500000
3100, 7333128.000000, 2093.125000, 8186.500000, 8168.000000, 8161.500000
3101, 7333288.000000, 2082.125000, 8190.500000, 8169.500000, 8166.000000
3102, 7333448.000000, 2064.375000, 8180.500000, 8169.500000, 8164.000000
3103, 7333608.000000, 2020.375000, 8178.000000, 8168.500000, 8162.500000
3104, 7333768.000000, 1939.000000, 8179.500000, 8168.500000, 8164.500000
3105, 7333928.000000, 1831.250000, 8169.500000, 8192.500000, 8193.500000
3106, 7334088.000000, 1715.375000, 8428.000000, 8202.500000, 8317.000000
3107, 7334248.000000, 1606.375000, 8347.000000, 8039.000000, 8145.000000
3108, 7334408.000000, 1516.125000, 8064.500000, 8082.500000, 8008.500000
3109, 7334568.000000, 1445.375000, 8127.500000, 8173.500000, 8121.000000
3110, 7334728.000000, 1389.500000, 8181.000000, 8218.500000, 8217.000000
3111, 7334888.000000, 1341.125000, 8192.000000, 8226.000000, 8230.000000
3112, 7335048.000000, 1296.000000, 8200.500000, 8230.500000, 8240.000000
3113, 7335208.000000, 1259.875000, 8206.000000, 8238.000000, 8250.000000
3114, 7335368.000000, 1232.875000, 8218.000000, 8247.500000, 8264.000000
3115, 7335528.000000, 1212.625000, 8230.000000, 8264.000000, 8288.000000
3116, 7335688.000000, 1198.375000, 8244.000000, 8287.500000, 8317.000000
3117, 7335848.000000, 1184.250000, 8263.000000, 8311.500000, 8348.000000
3118, 7336008.000000, 1167.125000, 8276.000000, 8323.000000, 8364.000000
3119, 7336168.000000, 1148.375000, 8279.000000, 8314.500000, 8355.500000
3120, 7336328.000000, 1124.875000, 8259.000000, 8280.500000, 8314.000000
3121, 7336488.000000, 1101.125000, 8217.500000, 8225.500000, 8242.500000
3122, 7336648.000000, 1075.875000, 8178.500000, 8178.500000, 8174.500000
3123, 7336808.000000, 1055.625000, 8164.000000, 8157.000000, 8144.000000
3124, 7336968.000000, 1043.750000, 8158.000000, 8152.000000, 8135.000000
3125, 7337128.000000, 1040.375000, 8162.500000, 8154.500000, 8140.000000
3126, 7337288.000000, 1034.750000, 8167.000000, 8159.000000, 8147.500000
3127, 7337448.000000, 1025.250000, 8168.500000, 8159.500000, 8148.000000
3128, 7337608.000000, 1002.375000, 8172.500000, 8158.000000, 8148.500000
3129, 7337768.000000, 983.875000, 8171.000000, 8154.000000, 8143.000000
3130, 7337928.000000, 1048.375000, 8172.000000, 8154.000000, 8144.000000
3131, 7338088.000000, 1335.625000, 8168.500000, 8154.000000, 8142.500000
3132, 7338248.000000, 1841.875000, 8169.500000, 8155.500000, 8142.000000
3133, 7338408.000000, 2437.375000, 8169.500000, 8153.500000, 8140.000000
3134, 7338568.000000, 2900.375000, 8169.500000, 8153.000000, 8139.500000
3135, 7338728.000000, 3123.750000, 8170.000000, 8155.500000, 8142.500000
3136, 7338888.000000, 3122.000000, 8171.000000, 8157.500000, 8146.500000
3137, 7339048.000000, 2989.375000, 8174.000000, 8159.500000, 8147.000000
3138, 7339208.000000, 2824.250000, 8172.000000, 8160.000000, 8148.000000
3139, 7339368.000000, 2681.125000, 8173.500000, 8161.000000, 8149.000000
3140, 7339528.000000, 2560.625000, 8170.500000, 8161.000000, 8146.000000
3141, 7339688.000000, 2423.125000, 8181.000000, 8172.500000, 8155.500000
3142, 7339848.000000, 2262.875000, 8184.500000, 8170.500000, 8160.500000
3143, 7340008.000000, 2113.125000, 8185.000000, 8170.000000, 8162.500000
3144, 7340168.000000, 2027.000000, 8174.000000, 8168.500000, 8158.000000
3145, 7340328.000000, 2006.000000, 8173.500000, 8170.000000, 8161.000000
3146, 7340488.000000, 2017.500000, 8175.000000, 8173.500000, 8167.500000
3147, 7340648.000000, 2018.500000, 8165.000000, 8216.000000, 8215.000000
3148, 7340808.000000, 1989.125000, 8509.500000, 8174.500000, 8323.500000
3149, 7340968.000000, 1921.000000, 8156.500000, 8116.500000, 8147.000000
3150, 7341128.000000, 1827.625000, 8062.500000, 8110.000000, 8035.000000
3151, 7341288.000000, 1718.500000, 8129.000000, 8180.500000, 8129.000000
3152, 7341448.000000, 1613.125000, 8179.500000, 8220.000000, 8215.000000
3153, 7341608.000000, 1521.750000, 8188.000000, 8223.500000, 8223.500000
3154, 7341768.000000, 1445.875000, 8198.000000, 8227.500000, 8232.500000
3155, 7341928.000000, 1386.250000, 8208.000000, 8234.000000, 8244.000000
3156, 7342088.000000, 1338.875000, 8217.000000, 8246.000000, 8260.000000
3157, 7342248.000000, 1298.625000, 8229.000000, 8261.500000, 8281.000000
3158, 7342408.000000, 1265.625000, 8245.500000, 8280.500000, 8306.000000
3159, 7342568.000000, 1240.375000, 8265.000000, 8300.000000, 8333.500000
3160, 7342728.000000, 1222.250000, 8277.000000, 8307.500000, 8343.500000
3161, 7342888.000000, 1208.875000, 8273.000000, 8299.000000, 8335.000000
3162, 7343048.000000, 1198.500000, 8244.500000, 8266.000000, 8292.000000
3163, 7343208.000000, 1188.500000, 8198.500000, 8217.500000, 8225.000000
3164, 7343368.000000, 1175.250000, 8161.000000, 8178.000000, 8166.500000
3165, 7343528.000000, 1160.875000, 8151.000000, 8162.500000, 8145.500000
3166, 7343688.000000, 1149.250000, 8148.000000, 8162.500000, 8142.500000
3167, 7343848.000000, 1133.625000, 8153.000000, 8164.000000, 8147.000000
3168, 7344008.000000, 1109.750000, 8158.000000, 8164.500000, 8151.000000
3169, 7344168.000000, 1078.000000, 8162.000000, 8164.000000, 8151.000000
3170, 7344328.000000, 1033.375000, 8165.000000, 8164.000000, 8153.000000
3171, 7344488.000000, 987.625000, 8163.000000, 8164.500000, 8152.500000
3172, 7344648.000000, 993.750000, 8160.500000, 8163.000000, 8147.500000
3173, 7344808.000000, 1179.125000, 8161.000000, 8161.500000, 8146.500000
3174, 7344968.000000, 1588.750000, 8158.500000, 8160.500000, 8144.500000
3175, 7345128.000000, 2137.125000, 8161.000000, 8161.000000, 8146.000000
3176, 7345288.000000, 2613.375000, 8160.500000, 8163.500000, 8148.000000
3177, 7345448.000000, 2887.375000, 8161.000000, 8164.500000, 8149.500000
3178, 7345608.000000, 2942.250000, 8161.000000, 8164.500000, 8147.500000
3179, 7345768.000000, 2846.625000, 8165.000000, 8165.000000, 8152.000000
3180, 7345928.000000, 2694.125000, 8165.000000, 8167.500000, 8153.000000
3181, 7346088.000000, 2543.750000, 8167.000000, 8170.000000, 8157.000000
3182, 7346248.000000, 2400.625000, 8163.500000, 8167.500000, 8152.000000
3183, 7346408.000000, 2245.750000, 8167.500000, 8176.000000, 8157.000000
3184, 7346568.000000, 2074.625000, 8171.000000, 8175.000000, 8157.500000
3185, 7346728.000000, 1929.875000, 8180.000000, 8174.000000, 8165.000000
3186, 7346888.000000, 1856.875000, 8171.500000, 8176.000000, 8164.000000
3187, 7347048.000000, 1856.625000, 8170.000000, 8175.000000, 8164.000000
3188, 7347208.000000, 1885.125000, 8171.500000, 8176.500000, 8168.000000
3189, 7347368.000000, 1901.250000, 8169.500000, 8183.000000, 8177.000000
3190, 7347528.000000, 1881.500000, 8313.500000, 8252.000000, 8313.000000
3191, 7347688.000000, 1821.875000, 8498.000000, 8043.000000, 8210.000000
3192, 7347848.000000, 1734.000000, 8051.500000, 8088.500000, 8021.000000
3193, 7348008.000000, 1632.375000, 8105.000000, 8165.000000, 8093.500000
3194, 7348168.000000, 1533.500000, 8170.500000, 8224.500000, 8215.500000
3195, 7348328.000000, 1451.250000, 8184.500000, 8231.000000, 8232.000000
3196, 7348488.000000, 1387.375000, 8190.500000, 8237.500000, 8240.500000
3197, 7348648.000000, 1342.625000, 8198.000000, 8245.500000, 8252.500000
3198, 7348808.000000, 1310.625000, 8206.000000, 8254.000000, 8264.500000
3199, 7348968.000000, 1287.000000, 8219.000000, 8269.000000, 8287.000000
3200, 7349128.000000, 1267.000000, 8234.500000, 8293.500000, 8319.000000
3201, 7349288.000000, 1249.875000, 8251.500000, 8319.500000, 8352.500000
3202, 7349448.000000, 1236.625000, 8266.000000, 8335.500000, 8374.000000
3203, 7349608.000000, 1228.125000, 8269.000000, 8330.000000, 8370.000000
3204, 7349768.000000, 1221.500000, 8253.000000, 8294.000000, 8327.500000
3205, 7349928.000000, 1209.875000, 8212.500000, 8235.500000, 8250.500000
3206, 7350088.000000, 1194.125000, 8175.000000, 8185.500000, 8181.500000
3207, 7350248.000000, 1175.000000, 8157.000000, 8163.000000, 8148.000000
3208, 7350408.000000, 1158.250000, 8153.500000, 8156.000000, 8138.500000
3209, 7350568.000000, 1144.875000, 8155.000000, 8157.000000, 8140.000000
3210, 7350728.000000, 1133.125000, 8158.000000, 8161.500000, 8147.000000
3211, 7350888.000000, 1112.750000, 8161.500000, 8164.500000, 8152.500000
3212, 7351048.000000, 1081.000000, 8164.000000, 8164.500000, 8153.500000
3213, 7351208.000000, 1039.000000, 8165.000000, 8161.500000, 8150.500000
3214, 7351368.000000, 1042.500000, 8165.000000, 8158.000000, 8145.000000
3215, 7351528.000000, 1208.750000, 8164.000000, 8157.500000, 8142.500000
3216, 7351688.000000, 1628.250000, 8163.000000, 8158.500000, 8142.500000
3217, 7351848.000000, 2201.250000, 8163.000000, 8158.000000, 8142.000000
3218, 7352008.000000, 2731.375000, 8165.000000, 8157.500000, 8143.000000
3219, 7352168.000000, 3042.625000, 8165.000000, 8158.000000, 8143.500000
3220, 7352328.000000, 3131.875000, 8167.000000, 8160.000000, 8147.000000
3221, 7352488.000000, 3050.375000, 8167.000000, 8163.000000, 8150.000000
3222, 7352648.000000, 2907.750000, 8169.000000, 8164.000000, 8152.000000
3223, 7352808.000000, 2771.375000, 8169.000000, 8165.500000, 8153.500000
3224, 7352968.000000, 2663.000000, 8172.000000, 8165.000000, 8155.000000
3225, 7353128.000000, 2555.375000, 8169.500000, 8163.500000, 8152.000000
3226, 7353288.000000, 2415.875000, 8176.500000, 8179.000000, 8166.000000
3227, 7353448.000000, 2254.000000, 8179.000000, 8173.500000, 8161.000000
3228, 7353608.000000, 2117.375000, 8187.000000, 8171.500000, 8165.500000
3229, 7353768.000000, 2050.000000, 8178.000000, 8170.500000, 8161.500000
3230, 7353928.000000, 2036.250000, 8177.000000, 8171.500000, 8164.500000
3231, 7354088.000000, 2041.000000, 8177.000000, 8174.500000, 8167.500000
3232, 7354248.000000, 2023.125000, 8173.500000, 8186.000000, 8183.000000
3233, 7354408.000000, 1970.500000, 8336.000000, 8243.000000, 8318.000000
3234, 7354568.000000, 1885.875000, 8492.000000, 7979.000000, 8150.000000
3235, 7354728.000000, 1776.875000, 8053.500000, 8055.500000, 7972.500000
3236, 7354888.000000, 1662.625000, 8122.000000, 8181.500000, 8124.000000
3237, 7355048.000000, 1560.625000, 8177.000000, 8234.000000, 8229.500000
3238, 7355208.000000, 1473.375000, 8188.500000, 8238.000000, 8242.500000
3239, 7355368.000000, 1406.625000, 8194.000000, 8242.500000, 8249.000000
3240, 7355528.000000, 1357.000000, 8200.500000, 8251.000000, 8261.500000
3241, 7355688.000000, 1318.625000, 8209.000000, 8264.500000, 8279.000000
3242, 7355848.000000, 1286.625000, 8219.500000, 8281.000000, 8300.500000
3243, 7356008.000000, 1261.375000, 8234.500000, 8305.000000, 8332.000000
3244, 7356168.000000, 1242.250000, 8252.000000, 8333.500000, 8368.500000
3245, 7356328.000000, 1226.625000, 8266.500000, 8349.500000, 8392.000000
3246, 7356488.000000, 1207.125000, 8265.000000, 8345.000000, 8385.000000
3247, 7356648.000000, 1190.625000, 8249.500000, 8302.500000, 8335.500000
3248, 7356808.000000, 1171.125000, 8211.500000, 8233.000000, 8247.000000
3249, 7356968.000000, 1155.250000, 8176.000000, 8177.500000, 8172.000000
3250, 7357128.000000, 1140.250000, 8158.000000, 8156.500000, 8139.500000
3251, 7357288.000000, 1125.875000, 8155.000000, 8154.000000, 8135.000000
3252, 7357448.000000, 1111.375000, 8155.000000, 8156.500000, 8137.500000
3253, 7357608.000000, 1098.250000, 8159.000000, 8158.500000, 8142.000000
3254, 7357768.000000, 1084.000000, 8162.500000, 8159.500000, 8147.000000
3255, 7357928.000000, 1058.875000, 8163.000000, 8159.500000, 8145.500000
3256, 7358088.000000, 1023.875000, 8166.000000, 8158.500000, 8146.500000
3257, 7358248.000000, 1040.000000, 8166.000000, 8156.500000, 8142.500000
3258, 7358408.000000, 1221.000000, 8164.500000, 8153.500000, 8137.500000
3259, 7358568.000000, 1653.125000, 8165.000000, 8153.000000, 8138.000000
3260, 7358728.000000, 2229.125000, 8165.000000, 8154.500000, 8139.500000
3261, 7358888.000000, 2740.625000, 8167.000000, 8156.000000, 8141.000000
3262, 7359048.000000, 3044.875000, 8167.500000, 8157.500000, 8143.500000
3263, 7359208.000000, 3115.875000, 8169.500000, 8157.000000, 8143.500000
3264, 7359368.000000, 3035.500000, 8170.000000, 8158.000000, 8145.000000
3265, 7359528.000000, 2901.875000, 8170.000000, 8160.500000, 8147.500000
3266, 7359688.000000, 2783.250000, 8170.000000, 8163.000000, 8150.000000
3267, 7359848.000000, 2696.625000, 8173.500000, 8163.500000, 8153.500000
3268, 7360008.000000, 2612.500000, 8176.000000, 8164.000000, 8155.000000
3269, 7360168.000000, 2485.125000, 8169.500000, 8161.000000, 8147.500000
3270, 7360328.000000, 2319.375000, 8182.000000, 8181.500000, 8169.500000
3271, 7360488.000000, 2160.625000, 8183.000000, 8170.500000, 8161.500000
3272, 7360648.000000, 2063.125000, 8187.000000, 8171.000000, 8165.000000
3273, 7360808.000000, 2024.000000, 8177.000000, 8168.500000, 8158.000000
3274, 7360968.000000, 2015.500000, 8178.000000, 8170.500000, 8162.500000
3275, 7361128.000000, 1996.500000, 8177.500000, 8173.000000, 8166.500000
3276, 7361288.000000, 1950.500000, 8166.500000, 8207.500000, 8207.500000
3277, 7361448.000000, 1871.500000, 8454.500000, 8180.000000, 8309.000000
3278, 7361608.000000, 1769.500000, 8312.000000, 7973.500000, 8063.500000
3279, 7361768.000000, 1657.250000, 8056.500000, 8060.000000, 7964.000000
3280, 7361928.000000, 1549.125000, 8140.500000, 8201.500000, 8162.500000
3281, 7362088.000000, 1460.000000, 8180.000000, 8236.500000, 8234.000000
3282, 7362248.000000, 1392.375000, 8189.500000, 8239.500000, 8242.000000
3283, 7362408.000000, 1346.000000, 8196.500000, 8244.000000, 8251.000000
3284, 7362568.000000, 1312.625000, 8204.000000, 8253.000000, 8264.000000
3285, 7362728.000000, 1286.750000, 8212.000000, 8267.000000, 8283.000000
3286, 7362888.000000, 1264.000000, 8224.000000, 8286.000000, 8308.000000
3287, 7363048.000000, 1244.000000, 8239.500000, 8310.000000, 8339.000000
3288, 7363208.000000, 1226.125000, 8257.000000, 8335.500000, 8372.000000
3289, 7363368.000000, 1207.000000, 8267.500000, 8348.000000, 8389.500000
3290, 7363528.000000, 1187.000000, 8267.000000, 8338.000000, 8379.000000
3291, 7363688.000000, 1167.000000, 8245.500000, 8289.500000, 8320.500000
3292, 7363848.000000, 1146.875000, 8205.500000, 8221.000000, 8233.000000
3293, 7364008.000000, 1124.375000, 8172.500000, 8171.500000, 8165.500000
3294, 7364168.000000, 1105.125000, 8158.000000, 8154.000000, 8137.000000
3295, 7364328.000000, 1089.875000, 8156.000000, 8153.500000, 8136.500000
3296, 7364488.000000, 1078.500000, 8158.000000, 8158.000000, 8141.000000
3297, 7364648.000000, 1070.125000, 8161.000000, 8159.500000, 8144.500000
3298, 7364808.000000, 1060.125000, 8165.000000, 8158.000000, 8145.000000
3299, 7364968.000000, 1036.500000, 8168.000000, 8157.500000, 8147.000000
3300, 7365128.000000, 1006.625000, 8167.000000, 8156.500000, 8143.500000
3301, 7365288.000000, 1030.500000, 8168.000000, 8154.000000, 8141.000000
3302, 7365448.000000, 1224.875000, 8168.000000, 8152.500000, 8138.000000
3303, 7365608.000000, 1653.375000, 8168.000000, 8150.500000, 8136.000000
3304, 7365768.000000, 2213.750000, 8170.000000, 8152.000000, 8139.000000
3305, 7365928.000000, 2707.625000, 8172.000000, 8154.500000, 8142.500000
3306, 7366088.000000, 2989.625000, 8170.000000, 8155.500000, 8142.500000
3307, 7366248.000000, 3044.500000, 8171.000000, 8156.500000, 8145.500000
3308, 7366408.000000, 2958.375000, 8171.000000, 8157.000000, 8146.000000
3309, 7366568.000000, 2822.250000, 8173.500000, 8158.000000, 8148.000000
3310, 7366728.000000, 2708.500000, 8175.500000, 8160.000000, 8150.500000
3311, 7366888.000000, 2624.000000, 8174.500000, 8162.000000, 8151.500000
3312, 7367048.000000, 2532.250000, 8170.500000, 8158.000000, 8146.000000
3313, 7367208.000000, 2398.250000, 8180.000000, 8171.500000, 8157.000000
3314, 7367368.000000, 2235.125000, 8186.000000, 8167.000000, 8157.500000
3315, 7367528.000000, 2097.500000, 8190.000000, 8166.500000, 8161.500000
3316, 7367688.000000, 2020.375000, 8180.500000, 8168.000000, 8160.500000
3317, 7367848.000000, 2001.125000, 8181.000000, 8168.500000, 8162.500000
3318, 7368008.000000, 1992.250000, 8182.500000, 8168.500000, 8162.500000
3319, 7368168.000000, 1967.000000, 8174.500000, 8189.000000, 8190.000000
3320, 7368328.000000, 1908.000000, 8415.500000, 8219.000000, 8322.000000
3321, 7368488.000000, 1819.000000, 8359.000000, 8078.000000, 8187.500000
3322, 7368648.000000, 1712.500000, 8066.500000, 8102.500000, 8036.500000
3323, 7368808.000000, 1606.000000, 8123.500000, 8164.000000, 8104.500000
3324, 7368968.000000, 1512.875000, 8184.500000, 8214.500000, 8211.000000
3325, 7369128.000000, 1436.125000, 8195.000000, 8221.500000, 8225.500000
3326, 7369288.000000, 1378.750000, 8202.000000, 8226.500000, 8232.500000
3327, 7369448.000000, 1338.875000, 8211.500000, 8231.000000, 8242.000000
3328, 7369608.000000, 1309.875000, 8222.000000, 8240.000000, 8256.000000
3329, 7369768.000000, 1288.000000, 8233.000000, 8254.500000, 8275.000000
3330, 7369928.000000, 1270.125000, 8249.000000, 8275.000000, 8302.000000
3331, 7370088.000000, 1251.625000, 8271.000000, 8296.000000, 8331.500000
3332, 7370248.000000, 1235.000000, 8286.000000, 8305.500000, 8345.500000
3333, 7370408.000000, 1215.625000, 8287.500000, 8300.000000, 8339.500000
3334, 7370568.000000, 1199.125000, 8265.000000, 8272.500000, 8305.000000
3335, 7370728.000000, 1182.625000, 8220.000000, 8228.000000, 8243.000000
3336, 7370888.000000, 1164.250000, 8179.000000, 8185.000000, 8180.500000
3337, 7371048.000000, 1149.250000, 8158.000000, 8164.000000, 8147.000000
3338, 7371208.000000, 1135.375000, 8153.000000, 8159.500000, 8140.500000
3339, 7371368.000000, 1124.500000, 8157.000000, 8161.000000, 8145.000000
3340, 7371528.000000, 1114.500000, 8159.000000, 8164.000000, 8151.000000
3341, 7371688.000000, 1101.625000, 8163.000000, 8166.000000, 8154.000000
3342, 7371848.000000, 1080.500000, 8165.000000, 8164.500000, 8154.000000
3343, 7372008.000000, 1050.500000, 8163.500000, 8162.000000, 8150.500000
3344, 7372168.000000, 1034.000000, 8162.500000, 8160.000000, 8147.500000
3345, 7372328.000000, 1113.250000, 8162.000000, 8160.500000, 8147.500000
3346, 7372488.000000, 1391.250000, 8160.500000, 8160.000000, 8145.500000
3347, 7372648.000000, 1874.000000, 8163.000000, 8160.000000, 8146.000000
3348, 7372808.000000, 2397.750000, 8162.000000, 8159.000000, 8144.000000
3349, 7372968.000000, 2765.250000, 8165.000000, 8160.500000, 8147.500000
3350, 7373128.000000, 2914.250000, 8164.500000, 8163.500000, 8149.500000
3351, 7373288.000000, 2871.000000, 8164.000000, 8165.000000, 8150.000000
3352, 7373448.000000, 2736.250000, 8165.000000, 8165.500000, 8152.500000
3353, 7373608.000000, 2587.625000, 8159.000000, 8164.000000, 8141.500000
3354, 7373768.000000, 2461.250000, 8169.000000, 8174.000000, 8150.000000
3355, 7373928.000000, 2338.875000, 8177.000000, 8171.500000, 8160.500000
3356, 7374088.000000, 2193.000000, 8174.500000, 8174.000000, 8165.500000
3357, 7374248.000000, 2035.500000, 8165.500000, 8171.000000, 8157.500000
3358, 7374408.000000, 1921.000000, 8167.000000, 8172.500000, 8161.500000
3359, 7374568.000000, 1886.375000, 8169.000000, 8174.500000, 8165.500000
3360, 7374728.000000, 1906.750000, 8174.500000, 8250.000000, 8255.500000
3361, 7374888.000000, 1937.000000, 8600.000000, 8134.000000, 8334.000000
3362, 7375048.000000, 1942.000000, 8067.500000, 8096.500000, 8077.500000
3363, 7375208.000000, 1903.000000, 8072.000000, 8113.000000, 8025.500000
3364, 7375368.000000, 1828.375000, 8151.000000, 8206.500000, 8179.500000
3365, 7375528.000000, 1730.375000, 8179.000000, 8227.500000, 8224.000000
3366, 7375688.000000, 1625.875000, 8187.000000, 8232.000000, 8232.000000
3367, 7375848.000000, 1526.875000, 8196.000000, 8236.500000, 8242.000000
3368, 7376008.000000, 1448.625000, 8203.500000, 8244.500000, 8253.000000
3369, 7376168.000000, 1389.500000, 8214.000000, 8257.500000, 8271.500000
3370, 7376328.000000, 1348.375000, 8227.000000, 8277.500000, 8298.000000
3371, 7376488.000000, 1321.375000, 8247.000000, 8300.000000, 8329.500000
3372, 7376648.000000, 1300.125000, 8267.000000, 8319.000000, 8356.000000
3373, 7376808.000000, 1284.250000, 8274.000000, 8321.500000, 8361.500000
3374, 7376968.000000, 1270.375000, 8267.000000, 8304.500000, 8340.500000
3375, 7377128.000000, 1256.875000, 8230.500000, 8260.500000, 8283.000000
3376, 7377288.000000, 1246.375000, 8184.000000, 8208.500000, 8210.000000
3377, 7377448.000000, 1232.875000, 8157.500000, 8174.500000, 8161.000000
3378, 7377608.000000, 1219.250000, 8150.000000, 8163.000000, 8144.000000
3379, 7377768.000000, 1204.250000, 8150.000000, 8164.500000, 8145.500000
3380, 7377928.000000, 1186.875000, 8154.500000, 8169.500000, 8154.000000
3381, 7378088.000000, 1162.125000, 8158.000000, 8172.000000, 8158.500000
3382, 7378248.000000, 1131.250000, 8162.500000, 8172.000000, 8160.500000
3383, 7378408.000000, 1093.375000, 8166.000000, 8170.000000, 8160.000000
3384, 7378568.000000, 1052.500000, 8166.500000, 8169.000000, 8159.500000
3385, 7378728.000000, 1050.875000, 8164.000000, 8167.500000, 8154.500000
3386, 7378888.000000, 1174.875000, 8164.000000, 8168.000000, 8155.000000
3387, 7379048.000000, 1522.250000, 8161.000000, 8165.500000, 8150.000000
3388, 7379208.000000, 2023.125000, 8163.000000, 8167.000000, 8153.000000
3389, 7379368.000000, 2511.375000, 8163.000000, 8168.500000, 8154.500000
3390, 7379528.000000, 2827.125000, 8164.000000, 8170.500000, 8155.500000
3391, 7379688.000000, 2922.500000, 8166.000000, 8173.000000, 8159.000000
3392, 7379848.000000, 2857.000000, 8167.500000, 8173.500000, 8160.500000
3393, 7380008.000000, 2726.625000, 8169.500000, 8175.000000, 8163.500000
3394, 7380168.000000, 2596.500000, 8170.000000, 8177.000000, 8166.000000
3395, 7380328.000000, 2490.375000, 8163.500000, 8175.500000, 8160.000000
3396, 7380488.000000, 2376.750000, 8174.500000, 8193.000000, 8177.500000
3397, 7380648.000000, 2220.125000, 8175.000000, 8184.500000, 8170.500000
3398, 7380808.000000, 2052.625000, 8182.000000, 8183.500000, 8176.000000
3399, 7380968.000000, 1927.875000, 8174.000000, 8185.500000, 8176.500000
3400, 7381128.000000, 1876.500000, 8173.500000, 8187.500000, 8179.500000
3401, 7381288.000000, 1879.125000, 8173.000000, 8189.500000, 8180.500000
3402, 7381448.000000, 1890.875000, 8166.000000, 8207.500000, 8203.500000
3403, 7381608.000000, 1876.125000, 8380.500000, 8240.500000, 8335.500000
3404, 7381768.000000, 1829.500000, 8421.000000, 8011.500000, 8149.000000
3405, 7381928.000000, 1749.500000, 8052.500000, 8084.000000, 8000.000000
3406, 7382088.000000, 1652.875000, 8121.500000, 8199.500000, 8142.500000
3407, 7382248.000000, 1554.250000, 8173.500000, 8246.000000, 8240.000000
3408, 7382408.000000, 1469.250000, 8186.000000, 8250.500000, 8253.500000
3409, 7382568.000000, 1401.000000, 8192.000000, 8257.000000, 8262.000000
3410, 7382728.000000, 1349.875000, 8198.500000, 8266.000000, 8273.500000
3411, 7382888.000000, 1312.875000, 8207.000000, 8278.500000, 8290.500000
3412, 7383048.000000, 1283.750000, 8217.000000, 8294.500000, 8312.000000
3413, 7383208.000000, 1258.750000, 8232.500000, 8318.000000, 8343.000000
3414, 7383368.000000, 1233.875000, 8251.500000, 8345.500000, 8380.500000
3415, 7383528.000000, 1213.625000, 8267.000000, 8360.500000, 8401.500000
3416, 7383688.000000, 1199.375000, 8266.000000, 8352.500000, 8392.500000
3417, 7383848.000000, 1187.875000, 8249.000000, 8309.500000, 8342.500000
3418, 7384008.000000, 1174.500000, 8208.000000, 8244.000000, 8258.500000
3419, 7384168.000000, 1162.250000, 8172.500000, 8195.500000, 8190.000000
3420, 7384328.000000, 1147.375000, 8156.000000, 8175.000000, 8158.500000
3421, 7384488.000000, 1136.500000, 8153.000000, 8172.000000, 8153.000000
3422, 7384648.000000, 1126.500000, 8157.000000, 8172.500000, 8155.500000
3423, 7384808.000000, 1116.500000, 8160.000000, 8176.000000, 8162.000000
3424, 7384968.000000, 1103.250000, 8164.000000, 8179.500000, 8166.500000
3425, 7385128.000000, 1083.750000, 8167.000000, 8178.000000, 8167.000000
3426, 7385288.000000, 1052.375000, 8167.500000, 8176.500000, 8164.500000
3427, 7385448.000000, 1040.125000, 8167.000000, 8171.500000, 8158.500000
3428, 7385608.000000, 1123.625000, 8165.500000, 8170.500000, 8156.000000
3429, 7385768.000000, 1437.250000, 8165.000000, 8171.000000, 8158.000000
3430, 7385928.000000, 1945.875000, 8165.500000, 8171.500000, 8157.000000
3431, 7386088.000000, 2499.500000, 8166.000000, 8172.000000, 8158.000000
3432, 7386248.000000, 2892.625000, 8167.000000, 8172.000000, 8158.500000
3433, 7386408.000000, 3058.000000, 8169.000000, 8172.000000, 8160.000000
3434, 7386568.000000, 3031.875000, 8169.000000, 8174.500000, 8161.500000
3435, 7386728.000000, 2911.250000, 8170.000000, 8177.000000, 8164.000000
3436, 7386888.000000, 2760.000000, 8172.500000, 8177.500000, 8166.000000
3437, 7387048.000000, 2649.000000, 8172.500000, 8178.000000, 8166.500000
3438, 7387208.000000, 2537.625000, 8175.000000, 8178.000000, 8168.000000
3439, 7387368.000000, 2334.250000, 8176.000000, 8181.500000, 8172.500000
3440, 7387528.000000, 2130.125000, 8170.500000, 8178.500000, 8166.500000
3441, 7387688.000000, 2009.125000, 8179.500000, 8194.000000, 8181.000000
3442, 7387848.000000, 1968.250000, 8182.500000, 8185.000000, 8175.000000
3443, 7388008.000000, 1959.125000, 8189.500000, 8184.000000, 8179.500000
3444, 7388168.000000, 1937.750000, 8181.500000, 8186.000000, 8180.500000
3445, 7388328.000000, 1881.125000, 8180.000000, 8186.500000, 8181.500000
3446, 7388488.000000, 1798.000000, 8180.000000, 8188.000000, 8183.000000
3447, 7388648.000000, 1694.125000, 8173.500000, 8197.500000, 8194.500000
3448, 7388808.000000, 1586.000000, 8338.000000, 8250.500000, 8327.000000
3449, 7388968.000000, 1492.125000, 8496.000000, 7976.000000, 8150.000000
3450, 7389128.000000, 1417.000000, 8053.500000, 8062.000000, 7976.000000
3451, 7389288.000000, 1363.125000, 8123.500000, 8195.000000, 8138.000000
3452, 7389448.000000, 1323.375000, 8178.000000, 8245.000000, 8242.000000
3453, 7389608.000000, 1293.125000, 8188.000000, 8249.000000, 8253.000000
3454, 7389768.000000, 1268.875000, 8196.000000, 8255.500000, 8263.500000
3455, 7389928.000000, 1248.000000, 8202.000000, 8264.000000, 8274.000000
3456, 7390088.000000, 1228.125000, 8209.500000, 8274.000000, 8288.500000
3457, 7390248.000000, 1211.250000, 8221.000000, 8289.500000, 8310.000000
3458, 7390408.000000, 1196.250000, 8236.500000, 8314.500000, 8343.500000
3459, 7390568.000000, 1181.250000, 8252.500000, 8343.000000, 8379.500000
3460, 7390728.000000, 1166.250000, 8267.500000, 8359.500000, 8403.000000
3461, 7390888.000000, 1150.625000, 8268.000000, 8354.000000, 8396.000000
3462, 7391048.000000, 1131.000000, 8253.500000, 8314.500000, 8350.500000
3463, 7391208.000000, 1111.000000, 8217.500000, 8245.000000, 8264.000000
3464, 7391368.000000, 1092.375000, 8180.500000, 8190.500000, 8189.000000
3465, 7391528.000000, 1081.125000, 8160.500000, 8167.500000, 8152.000000
3466, 7391688.000000, 1075.750000, 8156.000000, 8163.000000, 8144.000000
3467, 7391848.000000, 1070.750000, 8159.000000, 8163.000000, 8146.000000
3468, 7392008.000000, 1063.125000, 8160.000000, 8165.500000, 8149.500000
3469, 7392168.000000, 1042.750000, 8164.000000, 8168.500000, 8155.500000
3470, 7392328.000000, 1016.125000, 8166.000000, 8169.000000, 8157.000000
3471, 7392488.000000, 1027.625000, 8167.000000, 8165.500000, 8152.500000
3472, 7392648.000000, 1212.125000, 8169.000000, 8160.500000, 8147.500000
3473, 7392808.000000, 1625.750000, 8168.000000, 8158.000000, 8143.000000
3474, 7392968.000000, 2191.250000, 8167.000000, 8159.500000, 8144.500000
3475, 7393128.000000, 2693.000000, 8166.500000, 8160.000000, 8144.500000
3476, 7393288.000000, 2994.250000, 8168.000000, 8159.500000, 8144.500000
3477, 7393448.000000, 3052.250000, 8169.500000, 8158.000000, 8142.500000
3478, 7393608.000000, 2967.250000, 8169.500000, 8158.500000, 8145.000000
3479, 7393768.000000, 2830.250000, 8169.000000, 8159.500000, 8145.500000
3480, 7393928.000000, 2714.500000, 8170.500000, 8163.000000, 8149.000000
3481, 7394088.000000, 2633.250000, 8171.500000, 8163.000000, 8150.500000
3482, 7394248.000000, 2552.625000, 8173.500000, 8163.000000, 8150.000000
3483, 7394408.000000, 2423.250000, 8176.500000, 8164.500000, 8154.500000
3484, 7394568.000000, 2251.250000, 8176.500000, 8167.500000, 8155.500000
3485, 7394728.000000, 2087.750000, 8176.500000, 8169.500000, 8159.500000
3486, 7394888.000000, 1980.750000, 8176.500000, 8166.500000, 8156.500000
3487, 7395048.000000, 1935.375000, 8179.000000, 8174.000000, 8158.500000
3488, 7395208.000000, 1921.375000, 8182.000000, 8172.500000, 8158.000000
3489, 7395368.000000, 1901.875000, 8192.000000, 8172.500000, 8167.500000
3490, 7395528.000000, 1853.625000, 8185.000000, 8174.000000, 8168.500000
3491, 7395688.000000, 1774.500000, 8181.000000, 8173.500000, 8166.500000
3492, 7395848.000000, 1672.500000, 8183.000000, 8173.000000, 8166.500000
3493, 7396008.000000, 1564.750000, 8181.000000, 8178.000000, 8174.000000
3494, 7396168.000000, 1464.500000, 8279.000000, 8258.500000, 8301.500000
3495, 7396328.000000, 1381.250000, 8567.000000, 8058.000000, 8248.000000
3496, 7396488.000000, 1318.500000, 8064.000000, 8086.000000, 8031.000000
3497, 7396648.000000, 1272.375000, 8109.500000, 8151.000000, 8077.500000
3498, 7396808.000000, 1232.250000, 8179.000000, 8220.500000, 8214.000000
3499, 7396968.000000, 1200.125000, 8192.500000, 8229.000000, 8231.500000
3500, 7397128.000000, 1173.750000, 8201.000000, 8234.000000, 8241.000000
3501, 7397288.000000, 1149.375000, 8208.000000, 8239.000000, 8249.000000
3502, 7397448.000000, 1130.125000, 8219.000000, 8247.000000, 8262.000000
3503, 7397608.000000, 1111.000000, 8227.000000, 8261.000000, 8279.500000
3504, 7397768.000000, 1094.125000, 8241.000000, 8282.500000, 8308.000000
3505, 7397928.000000, 1075.000000, 8256.500000, 8306.000000, 8338.000000
3506, 7398088.000000, 1058.125000, 8275.500000, 8322.000000, 8362.500000
3507, 7398248.000000, 1039.000000, 8282.000000, 8321.500000, 8362.500000
3508, 7398408.000000, 1022.125000, 8271.000000, 8298.000000, 8335.500000
3509, 7398568.000000, 1005.250000, 8236.000000, 8245.500000, 8269.000000
3510, 7398728.000000, 991.500000, 8194.000000, 8193.500000, 8195.000000
