1906, 15175896.000000, 1216.375000, 8251.500000, 8332.000000, 8368.500000
1907, 15176056.000000, 1199.750000, 8239.000000, 8291.500000, 8322.000000
1908, 15176216.000000, 1185.750000, 8207.000000, 8230.500000, 8246.500000
1909, 15176376.000000, 1171.625000, 8178.500000, 8180.000000, 8178.000000
1910, 15176536.000000, 1156.750000, 8165.500000, 8160.000000, 8149.500000
1911, 15176696.000000, 1141.750000, 8162.000000, 8156.500000, 8143.500000
1912, 15176856.000000, 1129.875000, 8166.000000, 8159.000000, 8149.000000
1913, 15177016.000000, 1122.375000, 8166.000000, 8158.000000, 8146.000000
1914, 15177176.000000, 1111.750000, 8168.000000, 8156.000000, 8145.500000
1915, 15177336.000000, 1086.625000, 8170.500000, 8155.500000, 8145.500000
1916, 15177496.000000, 1050.125000, 8168.500000, 8152.500000, 8140.000000
1917, 15177656.000000, 1040.250000, 8168.000000, 8151.000000, 8138.000000
1918, 15177816.000000, 1170.375000, 8167.500000, 8150.500000, 8136.500000
1919, 15177976.000000, 1498.875000, 8168.000000, 8150.000000, 8137.000000
1920, 15178136.000000, 1976.500000, 8169.000000, 8151.500000, 8138.500000
1921, 15178296.000000, 2408.500000, 8171.000000, 8153.000000, 8142.000000
1922, 15178456.000000, 2643.500000, 8169.000000, 8155.000000, 8143.000000
1923, 15178616.000000, 2656.875000, 8172.500000, 8156.000000, 8144.500000
1924, 15178776.000000, 2520.000000, 8172.000000, 8157.000000, 8147.000000
1925, 15178936.000000, 2334.250000, 8173.500000, 8160.000000, 8152.000000
1926, 15179096.000000, 2173.375000, 8175.500000, 8168.500000, 8149.000000
1927, 15179256.000000, 2050.625000, 8187.000000, 8163.000000, 8155.000000
1928, 15179416.000000, 1938.750000, 8182.500000, 8164.500000, 8157.500000
1929, 15179576.000000, 1824.500000, 8178.000000, 8162.000000, 8153.000000
1930, 15179736.000000, 1738.375000, 8178.000000, 8165.500000, 8156.500000
1931, 15179896.000000, 1709.375000, 8177.500000, 8170.500000, 8165.000000
1932, 15180056.000000, 1722.375000, 8289.500000, 8254.500000, 8299.500000
1933, 15180216.000000, 1744.000000, 8521.000000, 8066.000000, 8245.500000
1934, 15180376.000000, 1736.500000, 8053.000000, 8060.000000, 8003.500000
1935, 15180536.000000, 1688.250000, 8105.000000, 8137.500000, 8060.000000
1936, 15180696.000000, 1603.750000, 8175.500000, 8213.500000, 8203.500000
1937, 15180856.000000, 1503.125000, 8192.000000, 8222.000000, 8224.000000
1938, 15181016.000000, 1402.375000, 8200.500000, 8228.000000, 8234.500000
1939, 15181176.000000, 1314.000000, 8206.500000, 8236.500000, 8245.000000
1940, 15181336.000000, 1247.750000, 8216.000000, 8248.000000, 8261.000000
1941, 15181496.000000, 1202.875000, 8226.000000, 8264.000000, 8282.000000
1942, 15181656.000000, 1178.375000, 8237.000000, 8282.000000, 8306.000000
1943, 15181816.000000, 1163.625000, 8253.000000, 8302.500000, 8334.000000
1944, 15181976.000000, 1153.500000, 8263.500000, 8314.000000, 8349.500000
1945, 15182136.000000, 1139.875000, 8262.500000, 8308.500000, 8341.500000
1946, 15182296.000000, 1121.000000, 8253.500000, 8285.500000, 8315.500000
1947, 15182456.000000, 1101.875000, 8224.500000, 8241.500000, 8261.500000
1948, 15182616.000000, 1089.125000, 8186.000000, 8194.000000, 8196.000000
1949, 15182776.000000, 1078.375000, 8167.000000, 8165.000000, 8155.500000
1950, 15182936.000000, 1068.500000, 8166.000000, 8158.000000, 8148.000000
1951, 15183096.000000, 1061.250000, 8165.000000, 8160.000000, 8149.000000
1952, 15183256.000000, 1057.625000, 8168.000000, 8159.000000, 8148.500000
1953, 15183416.000000, 1053.375000, 8170.000000, 8158.000000, 8149.000000
1954, 15183576.000000, 1042.750000, 8170.500000, 8155.500000, 8145.500000
1955, 15183736.000000, 1022.250000, 8169.000000, 8155.000000, 8144.000000
1956, 15183896.000000, 998.250000, 8166.500000, 8153.000000, 8139.500000
1957, 15184056.000000, 1028.750000, 8163.000000, 8152.000000, 8138.000000
1958, 15184216.000000, 1227.875000, 8164.000000, 8152.000000, 8137.000000
1959, 15184376.000000, 1604.625000, 8162.500000, 8152.000000, 8136.500000
1960, 15184536.000000, 2043.875000, 8166.000000, 8154.000000, 8140.000000
1961, 15184696.000000, 2375.250000, 8165.500000, 8154.500000, 8141.000000
1962, 15184856.000000, 2503.375000, 8160.000000, 8154.000000, 8138.000000
1963, 15185016.000000, 2453.125000, 8170.500000, 8168.000000, 8152.000000
1964, 15185176.000000, 2306.250000, 8175.000000, 8160.500000, 8148.500000
1965, 15185336.000000, 2145.750000, 8177.500000, 8163.000000, 8151.500000
1966, 15185496.000000, 2008.500000, 8167.000000, 8161.000000, 8145.500000
1967, 15185656.000000, 1883.125000, 8165.000000, 8163.500000, 8148.500000
1968, 15185816.000000, 1759.750000, 8170.000000, 8164.500000, 8153.500000
1969, 15185976.000000, 1666.625000, 8167.000000, 8234.500000, 8232.000000
1970, 15186136.000000, 1641.625000, 8573.000000, 8135.500000, 8325.500000
1971, 15186296.000000, 1680.250000, 8071.000000, 8038.000000, 8022.500000
1972, 15186456.000000, 1738.125000, 8067.000000, 8087.000000, 7993.000000
1973, 15186616.000000, 1774.625000, 8150.500000, 8199.000000, 8169.500000
1974, 15186776.000000, 1767.500000, 8177.500000, 8220.000000, 8213.500000
1975, 15186936.000000, 1724.750000, 8189.000000, 8225.500000, 8225.500000
1976, 15187096.000000, 1654.375000, 8197.000000, 8235.000000, 8239.500000
1977, 15187256.000000, 1574.125000, 8204.500000, 8245.500000, 8254.000000
1978, 15187416.000000, 1493.375000, 8214.000000, 8260.000000, 8272.000000
1979, 15187576.000000, 1422.250000, 8225.000000, 8278.500000, 8296.500000
1980, 15187736.000000, 1371.000000, 8239.500000, 8304.500000, 8331.000000
1981, 15187896.000000, 1337.375000, 8250.500000, 8322.500000, 8353.500000
1982, 15188056.000000, 1319.125000, 8254.000000, 8323.500000, 8355.500000
1983, 15188216.000000, 1303.875000, 8250.000000, 8303.500000, 8333.000000
1984, 15188376.000000, 1286.750000, 8227.000000, 8260.500000, 8282.000000
1985, 15188536.000000, 1267.125000, 8191.500000, 8209.000000, 8214.000000
1986, 15188696.000000, 1246.375000, 8163.500000, 8173.000000, 8161.500000
1987, 15188856.000000, 1230.750000, 8159.000000, 8161.500000, 8146.500000
1988, 15189016.000000, 1220.875000, 8159.500000, 8160.500000, 8146.000000
1989, 15189176.000000, 1219.875000, 8162.500000, 8161.000000, 8148.500000
1990, 15189336.000000, 1220.375000, 8165.500000, 8162.000000, 8151.500000
1991, 15189496.000000, 1220.250000, 8167.500000, 8161.000000, 8151.000000
1992, 15189656.000000, 1202.875000, 8165.500000, 8158.000000, 8145.500000
1993, 15189816.000000, 1169.750000, 8164.000000, 8154.500000, 8141.000000
1994, 15189976.000000, 1155.125000, 8162.500000, 8154.000000, 8139.500000
1995, 15190136.000000, 1259.625000, 8162.000000, 8154.500000, 8139.500000
1996, 15190296.000000, 1546.625000, 8162.000000, 8154.500000, 8139.500000
1997, 15190456.000000, 1985.875000, 8162.000000, 8156.000000, 8139.500000
1998, 15190616.000000, 2403.500000, 8160.000000, 8156.500000, 8138.500000
1999, 15190776.000000, 2675.125000, 8162.500000, 8157.000000, 8140.500000
2000, 15190936.000000, 2736.625000, 8165.000000, 8159.500000, 8145.000000
2001, 15191096.000000, 2662.625000, 8164.500000, 8164.000000, 8152.000000
2002, 15191256.000000, 2524.625000, 8167.500000, 8172.500000, 8150.500000
2003, 15191416.000000, 2389.500000, 8178.000000, 8164.500000, 8152.500000
2004, 15191576.000000, 2266.250000, 8175.500000, 8165.500000, 8155.500000
2005, 15191736.000000, 2133.000000, 8169.000000, 8164.500000, 8150.500000
2006, 15191896.000000, 1996.250000, 8168.500000, 8167.000000, 8154.500000
2007, 15192056.000000, 1890.375000, 8167.500000, 8173.000000, 8162.000000
2008, 15192216.000000, 1855.000000, 8277.000000, 8261.500000, 8304.500000
2009, 15192376.000000, 1870.750000, 8529.500000, 8004.000000, 8192.000000
2010, 15192536.000000, 1901.125000, 8040.500000, 8026.500000, 7946.000000
2011, 15192696.000000, 1910.250000, 8101.000000, 8159.500000, 8083.000000
2012, 15192856.000000, 1884.875000, 8168.500000, 8229.000000, 8218.500000
2013, 15193016.000000, 1824.500000, 8181.500000, 8237.000000, 8236.000000
2014, 15193176.000000, 1744.875000, 8188.000000, 8242.500000, 8244.500000
2015, 15193336.000000, 1659.250000, 8196.000000, 8253.000000, 8259.000000
2016, 15193496.000000, 1580.750000, 8204.000000, 8267.000000, 8277.000000
2017, 15193656.000000, 1514.875000, 8213.500000, 8283.500000, 8299.000000
2018, 15193816.000000, 1468.000000, 8226.500000, 8305.000000, 8329.000000
2019, 15193976.000000, 1433.500000, 8240.000000, 8332.000000, 8362.000000
2020, 15194136.000000, 1410.375000, 8246.500000, 8348.000000, 8381.500000
2021, 15194296.000000, 1392.875000, 8248.000000, 8344.000000, 8378.000000
2022, 15194456.000000, 1373.000000, 8240.000000, 8310.000000, 8340.000000
2023, 15194616.000000, 1353.000000, 8211.500000, 8248.500000, 8264.500000
2024, 15194776.000000, 1333.000000, 8181.000000, 8192.500000, 8191.500000
2025, 15194936.000000, 1313.875000, 8163.000000, 8166.000000, 8154.000000
2026, 15195096.000000, 1301.500000, 8158.500000, 8160.500000, 8144.500000
2027, 15195256.000000, 1291.500000, 8160.500000, 8162.000000, 8146.500000
2028, 15195416.000000, 1281.500000, 8164.000000, 8163.000000, 8150.000000
2029, 15195576.000000, 1270.625000, 8166.000000, 8162.000000, 8150.000000
2030, 15195736.000000, 1250.875000, 8166.000000, 8160.000000, 8148.000000
2031, 15195896.000000, 1216.875000, 8165.500000, 8157.000000, 8144.500000
2032, 15196056.000000, 1189.875000, 8166.000000, 8155.000000, 8141.000000
2033, 15196216.000000, 1241.375000, 8163.000000, 8152.500000, 8136.500000
2034, 15196376.000000, 1480.625000, 8163.000000, 8152.000000, 8136.000000
2035, 15196536.000000, 1911.875000, 8163.000000, 8153.000000, 8137.000000
2036, 15196696.000000, 2389.375000, 8165.000000, 8156.000000, 8141.000000
2037, 15196856.000000, 2742.375000, 8166.000000, 8157.000000, 8142.000000
2038, 15197016.000000, 2883.875000, 8167.500000, 8157.500000, 8143.500000
2039, 15197176.000000, 2854.875000, 8169.000000, 8158.000000, 8146.000000
2040, 15197336.000000, 2734.375000, 8168.500000, 8164.500000, 8156.000000
2041, 15197496.000000, 2604.000000, 8171.000000, 8168.000000, 8148.000000
2042, 15197656.000000, 2502.500000, 8182.000000, 8162.500000, 8151.500000
2043, 15197816.000000, 2411.625000, 8176.500000, 8162.500000, 8152.500000
2044, 15197976.000000, 2304.000000, 8171.000000, 8162.000000, 8149.000000
2045, 15198136.000000, 2183.875000, 8173.000000, 8164.500000, 8153.500000
2046, 15198296.000000, 2092.625000, 8168.000000, 8174.500000, 8166.000000
2047, 15198456.000000, 2054.000000, 8333.000000, 8248.500000, 8319.500000
2048, 15198616.000000, 2047.625000, 8468.000000, 7952.500000, 8118.500000
2049, 15198776.000000, 2041.625000, 8044.500000, 8015.000000, 7921.000000
2050, 15198936.000000, 2012.625000, 8119.500000, 8172.000000, 8110.000000
2051, 15199096.000000, 1952.625000, 8172.500000, 8228.500000, 8221.000000
2052, 15199256.000000, 1870.500000, 8183.500000, 8235.500000, 8235.000000
2053, 15199416.000000, 1776.750000, 8191.500000, 8241.500000, 8245.000000
2054, 15199576.000000, 1687.250000, 8197.500000, 8251.000000, 8257.500000
2055, 15199736.000000, 1608.625000, 8207.500000, 8265.000000, 8276.500000
2056, 15199896.000000, 1550.875000, 8217.000000, 8284.500000, 8302.500000
2057, 15200056.000000, 1511.625000, 8230.500000, 8308.500000, 8334.000000
2058, 15200216.000000, 1481.875000, 8243.000000, 8333.000000, 8365.000000
2059, 15200376.000000, 1458.125000, 8251.000000, 8346.500000, 8382.500000
2060, 15200536.000000, 1438.375000, 8249.500000, 8340.500000, 8376.000000
2061, 15200696.000000, 1421.750000, 8240.000000, 8304.000000, 8336.000000
2062, 15200856.000000, 1409.875000, 8210.000000, 8239.500000, 8256.500000
2063, 15201016.000000, 1403.250000, 8178.500000, 8185.000000, 8183.000000
2064, 15201176.000000, 1398.250000, 8165.000000, 8160.500000, 8149.500000
2065, 15201336.000000, 1392.375000, 8161.000000, 8157.000000, 8142.000000
2066, 15201496.000000, 1381.125000, 8162.500000, 8158.000000, 8144.500000
2067, 15201656.000000, 1365.750000, 8166.500000, 8159.500000, 8148.000000
2068, 15201816.000000, 1345.625000, 8168.000000, 8157.500000, 8146.500000
2069, 15201976.000000, 1318.500000, 8170.000000, 8155.000000, 8145.500000
2070, 15202136.000000, 1278.625000, 8168.000000, 8153.500000, 8141.000000
2071, 15202296.000000, 1244.000000, 8165.000000, 8151.500000, 8137.000000
2072, 15202456.000000, 1304.625000, 8165.000000, 8150.000000, 8135.500000
2073, 15202616.000000, 1545.625000, 8163.500000, 8149.000000, 8133.500000
2074, 15202776.000000, 1974.750000, 8165.000000, 8149.500000, 8134.500000
2075, 15202936.000000, 2441.750000, 8165.000000, 8151.000000, 8136.000000
2076, 15203096.000000, 2780.625000, 8165.000000, 8153.500000, 8138.500000
2077, 15203256.000000, 2912.625000, 8166.000000, 8156.000000, 8142.000000
2078, 15203416.000000, 2873.000000, 8168.500000, 8156.500000, 8144.000000
2079, 15203576.000000, 2756.375000, 8168.500000, 8158.000000, 8147.500000
2080, 15203736.000000, 2643.750000, 8170.500000, 8166.000000, 8158.000000
2081, 15203896.000000, 2562.625000, 8170.500000, 8170.500000, 8151.500000
2082, 15204056.000000, 2490.250000, 8181.500000, 8164.500000, 8154.000000
2083, 15204216.000000, 2386.875000, 8176.500000, 8164.500000, 8153.500000
2084, 15204376.000000, 2258.125000, 8171.000000, 8164.000000, 8153.000000
2085, 15204536.000000, 2142.000000, 8172.500000, 8167.000000, 8155.500000
2086, 15204696.000000, 2079.000000, 8168.000000, 8180.500000, 8172.000000
2087, 15204856.000000, 2051.000000, 8343.000000, 8247.000000, 8321.500000
2088, 15205016.000000, 2029.250000, 8448.500000, 7950.000000, 8109.000000
2089, 15205176.000000, 1992.375000, 8044.000000, 8022.000000, 7927.500000
2090, 15205336.000000, 1926.000000, 8118.500000, 8175.000000, 8113.000000
2091, 15205496.000000, 1839.500000, 8170.500000, 8230.500000, 8222.500000
2092, 15205656.000000, 1744.375000, 8184.000000, 8237.000000, 8236.500000
2093, 15205816.000000, 1650.500000, 8191.000000, 8242.000000, 8246.000000
2094, 15205976.000000, 1567.750000, 8198.000000, 8252.500000, 8258.500000
2095, 15206136.000000, 1501.000000, 8205.500000, 8266.500000, 8277.500000
2096, 15206296.000000, 1454.000000, 8216.500000, 8285.000000, 8302.500000
2097, 15206456.000000, 1420.375000, 8229.000000, 8308.000000, 8332.000000
2098, 15206616.000000, 1395.625000, 8243.000000, 8331.500000, 8362.500000
2099, 15206776.000000, 1376.750000, 8251.000000, 8344.500000, 8380.500000
2100, 15206936.000000, 1363.750000, 8248.500000, 8338.000000, 8372.500000
2101, 15207096.000000, 1353.375000, 8241.500000, 8305.000000, 8336.000000
2102, 15207256.000000, 1344.500000, 8213.500000, 8242.500000, 8259.500000
2103, 15207416.000000, 1328.125000, 8182.000000, 8184.500000, 8183.000000
2104, 15207576.000000, 1301.125000, 8166.500000, 8158.500000, 8145.000000
2105, 15207736.000000, 1265.000000, 8162.500000, 8155.000000, 8140.500000
2106, 15207896.000000, 1224.750000, 8165.500000, 8157.000000, 8142.500000
2107, 15208056.000000, 1195.250000, 8168.000000, 8158.000000, 8145.500000
2108, 15208216.000000, 1177.500000, 8173.000000, 8155.500000, 8146.500000
2109, 15208376.000000, 1169.375000, 8173.500000, 8154.000000, 8144.000000
2110, 15208536.000000, 1158.125000, 8172.000000, 8151.000000, 8139.000000
2111, 15208696.000000, 1151.000000, 8169.000000, 8150.000000, 8136.000000
2112, 15208856.000000, 1222.000000, 8171.000000, 8148.500000, 8135.500000
2113, 15209016.000000, 1539.875000, 8169.000000, 8148.000000, 8134.000000
2114, 15209176.000000, 2089.375000, 8171.000000, 8149.000000, 8136.000000
2115, 15209336.000000, 2534.625000, 8170.000000, 8150.500000, 8135.500000
2116, 15209496.000000, 2821.125000, 8170.000000, 8152.500000, 8137.500000
2117, 15209656.000000, 2836.375000, 8172.500000, 8152.500000, 8139.000000
2118, 15209816.000000, 2708.500000, 8173.500000, 8154.000000, 8142.000000
2119, 15209976.000000, 2561.000000, 8172.000000, 8156.000000, 8143.000000
2120, 15210136.000000, 2425.875000, 8176.000000, 8167.000000, 8145.500000
2121, 15210296.000000, 2306.875000, 8188.500000, 8161.000000, 8151.000000
2122, 15210456.000000, 2174.000000, 8186.500000, 8161.500000, 8153.500000
2123, 15210616.000000, 2045.750000, 8177.000000, 8159.000000, 8148.000000
2124, 15210776.000000, 1969.000000, 8178.000000, 8160.000000, 8150.000000
2125, 15210936.000000, 1946.500000, 8180.000000, 8164.000000, 8156.000000
2126, 15211096.000000, 1947.375000, 8257.500000, 8249.500000, 8280.500000
2127, 15211256.000000, 1943.500000, 8561.000000, 8097.000000, 8285.000000
2128, 15211416.000000, 1912.250000, 8056.500000, 8071.000000, 8028.000000
2129, 15211576.000000, 1850.750000, 8100.000000, 8123.000000, 8041.000000
2130, 15211736.000000, 1761.000000, 8174.000000, 8205.500000, 8191.000000
2131, 15211896.000000, 1659.125000, 8191.000000, 8216.500000, 8215.000000
2132, 15212056.000000, 1562.875000, 8203.000000, 8222.000000, 8226.000000
2133, 15212216.000000, 1484.625000, 8207.500000, 8231.000000, 8239.500000
2134, 15212376.000000, 1426.875000, 8217.500000, 8241.000000, 8254.000000
2135, 15212536.000000, 1386.750000, 8227.500000, 8256.000000, 8274.500000
2136, 15212696.000000, 1359.625000, 8239.500000, 8274.500000, 8297.500000
2137, 15212856.000000, 1339.875000, 8255.000000, 8294.500000, 8324.500000
2138, 15213016.000000, 1324.750000, 8266.500000, 8306.000000, 8339.000000
2139, 15213176.000000, 1307.000000, 8269.000000, 8303.000000, 8337.500000
2140, 15213336.000000, 1288.625000, 8260.500000, 8284.500000, 8315.500000
2141, 15213496.000000, 1265.250000, 8230.000000, 8246.500000, 8268.000000
2142, 15213656.000000, 1239.625000, 8191.500000, 8199.500000, 8204.000000
2143, 15213816.000000, 1219.875000, 8171.000000, 8169.000000, 8162.500000
2144, 15213976.000000, 1206.125000, 8162.000000, 8160.000000, 8147.000000
2145, 15214136.000000, 1191.875000, 8164.500000, 8159.500000, 8147.500000
2146, 15214296.000000, 1169.125000, 8170.000000, 8161.000000, 8152.000000
2147, 15214456.000000, 1131.125000, 8170.000000, 8160.500000, 8151.500000
2148, 15214616.000000, 1087.625000, 8173.500000, 8157.500000, 8149.500000
2149, 15214776.000000, 1053.250000, 8170.500000, 8156.000000, 8146.000000
2150, 15214936.000000, 1102.500000, 8167.000000, 8154.000000, 8142.500000
2151, 15215096.000000, 1314.625000, 8164.500000, 8153.500000, 8139.500000
2152, 15215256.000000, 1724.500000, 8165.000000, 8152.000000, 8139.000000
2153, 15215416.000000, 2187.875000, 8165.500000, 8154.000000, 8140.500000
2154, 15215576.000000, 2537.375000, 8164.000000, 8154.000000, 8140.500000
2155, 15215736.000000, 2676.875000, 8162.500000, 8157.500000, 8142.000000
2156, 15215896.000000, 2635.750000, 8165.500000, 8158.000000, 8143.500000
2157, 15216056.000000, 2495.750000, 8160.000000, 8156.500000, 8140.500000
2158, 15216216.000000, 2340.250000, 8169.500000, 8171.000000, 8152.500000
2159, 15216376.000000, 2208.125000, 8177.500000, 8163.000000, 8151.500000
2160, 15216536.000000, 2086.250000, 8176.500000, 8166.000000, 8155.000000
2161, 15216696.000000, 1959.250000, 8169.000000, 8164.000000, 8150.000000
2162, 15216856.000000, 1850.250000, 8168.000000, 8166.000000, 8153.500000
2163, 15217016.000000, 1793.750000, 8170.000000, 8167.000000, 8156.000000
2164, 15217176.000000, 1790.625000, 8184.000000, 8248.000000, 8252.500000
2165, 15217336.000000, 1813.750000, 8596.000000, 8118.500000, 8321.000000
2166, 15217496.000000, 1822.250000, 8053.000000, 8052.000000, 8020.500000
2167, 15217656.000000, 1803.625000, 8072.000000, 8104.000000, 8010.500000
2168, 15217816.000000, 1747.875000, 8154.000000, 8207.500000, 8184.500000
2169, 15217976.000000, 1671.250000, 8178.000000, 8223.500000, 8218.500000
2170, 15218136.000000, 1583.875000, 8185.000000, 8229.500000, 8229.500000
2171, 15218296.000000, 1500.875000, 8193.000000, 8239.500000, 8243.000000
2172, 15218456.000000, 1434.000000, 8202.000000, 8249.000000, 8257.000000
2173, 15218616.000000, 1381.375000, 8211.500000, 8265.000000, 8279.000000
2174, 15218776.000000, 1337.000000, 8223.500000, 8285.500000, 8306.500000
2175, 15218936.000000, 1301.625000, 8239.000000, 8311.500000, 8340.000000
2176, 15219096.000000, 1272.250000, 8251.500000, 8329.000000, 8363.500000
2177, 15219256.000000, 1250.875000, 8254.000000, 8327.000000, 8361.000000
2178, 15219416.000000, 1233.375000, 8250.000000, 8306.500000, 8338.000000
2179, 15219576.000000, 1217.750000, 8225.000000, 8262.500000, 8284.500000
2180, 15219736.000000, 1205.500000, 8188.500000, 8208.500000, 8213.500000
2181, 15219896.000000, 1196.375000, 8163.000000, 8172.000000, 8162.000000
2182, 15220056.000000, 1186.875000, 8157.000000, 8161.500000, 8147.500000
2183, 15220216.000000, 1178.500000, 8158.500000, 8161.500000, 8148.500000
2184, 15220376.000000, 1168.125000, 8162.000000, 8165.000000, 8154.000000
2185, 15220536.000000, 1151.125000, 8164.500000, 8166.000000, 8156.000000
2186, 15220696.000000, 1121.000000, 8166.500000, 8164.000000, 8154.500000
2187, 15220856.000000, 1083.625000, 8165.000000, 8161.500000, 8150.500000
2188, 15221016.000000, 1097.500000, 8164.000000, 8158.000000, 8145.000000
2189, 15221176.000000, 1264.375000, 8162.500000, 8157.000000, 8144.500000
2190, 15221336.000000, 1639.750000, 8162.000000, 8157.000000, 8144.000000
2191, 15221496.000000, 2121.750000, 8161.500000, 8156.000000, 8142.000000
2192, 15221656.000000, 2516.500000, 8163.000000, 8156.500000, 8142.500000
2193, 15221816.000000, 2721.125000, 8162.500000, 8157.000000, 8142.500000
2194, 15221976.000000, 2724.000000, 8165.000000, 8158.000000, 8145.000000
2195, 15222136.000000, 2605.125000, 8163.000000, 8160.000000, 8147.000000
2196, 15222296.000000, 2456.625000, 8166.500000, 8168.500000, 8159.000000
2197, 15222456.000000, 2331.625000, 8168.000000, 8170.500000, 8151.000000
2198, 15222616.000000, 2224.875000, 8180.000000, 8164.000000, 8153.000000
2199, 15222776.000000, 2108.250000, 8172.500000, 8165.500000, 8154.000000
2200, 15222936.000000, 1978.625000, 8168.500000, 8166.000000, 8153.500000
2201, 15223096.000000, 1877.875000, 8169.000000, 8167.500000, 8155.500000
2202, 15223256.000000, 1837.500000, 8165.500000, 8184.000000, 8176.000000
2203, 15223416.000000, 1837.625000, 8358.000000, 8239.000000, 8322.500000
2204, 15223576.000000, 1845.000000, 8429.500000, 7954.000000, 8099.500000
2205, 15223736.000000, 1834.875000, 8041.500000, 8032.500000, 7935.500000
2206, 15223896.000000, 1794.375000, 8121.500000, 8183.000000, 8125.000000
2207, 15224056.000000, 1727.750000, 8172.500000, 8232.500000, 8225.000000
2208, 15224216.000000, 1643.875000, 8184.000000, 8238.500000, 8238.500000
2209, 15224376.000000, 1555.375000, 8189.000000, 8246.500000, 8248.500000
2210, 15224536.000000, 1478.500000, 8199.000000, 8257.000000, 8265.000000
2211, 15224696.000000, 1415.875000, 8206.000000, 8271.000000, 8283.500000
2212, 15224856.000000, 1371.375000, 8217.500000, 8290.000000, 8309.000000
2213, 15225016.000000, 1336.625000, 8231.500000, 8315.000000, 8342.000000
2214, 15225176.000000, 1310.250000, 8244.000000, 8342.500000, 8376.000000
2215, 15225336.000000, 1285.250000, 8253.500000, 8355.000000, 8393.000000
2216, 15225496.000000, 1261.625000, 8251.000000, 8346.500000, 8381.000000
2217, 15225656.000000, 1238.125000, 8241.000000, 8306.500000, 8338.000000
2218, 15225816.000000, 1219.750000, 8212.000000, 8241.000000, 8257.500000
2219, 15225976.000000, 1205.625000, 8181.000000, 8186.000000, 8185.500000
2220, 15226136.000000, 1194.125000, 8164.000000, 8161.500000, 8148.500000
2221, 15226296.000000, 1183.500000, 8160.000000, 8157.500000, 8141.500000
2222, 15226456.000000, 1174.875000, 8164.000000, 8158.000000, 8145.500000
2223, 15226616.000000, 1166.500000, 8168.000000, 8160.000000, 8149.000000
2224, 15226776.000000, 1146.875000, 8170.000000, 8160.000000, 8149.000000
2225, 15226936.000000, 1112.875000, 8169.000000, 8158.000000, 8146.000000
2226, 15227096.000000, 1088.250000, 8171.000000, 8155.000000, 8144.000000
2227, 15227256.000000, 1183.875000, 8170.500000, 8152.000000, 8140.000000
2228, 15227416.000000, 1489.625000, 8169.000000, 8150.500000, 8137.500000
2229, 15227576.000000, 1982.750000, 8169.000000, 8151.000000, 8137.000000
2230, 15227736.000000, 2461.375000, 8167.000000, 8153.000000, 8138.000000
2231, 15227896.000000, 2773.500000, 8170.000000, 8153.000000, 8140.000000
2232, 15228056.000000, 2841.125000, 8171.000000, 8153.500000, 8140.500000
2233, 15228216.000000, 2748.750000, 8173.500000, 8154.000000, 8142.000000
2234, 15228376.000000, 2593.500000, 8173.000000, 8156.500000, 8143.500000
2235, 15228536.000000, 2464.625000, 8169.000000, 8156.500000, 8143.500000
2236, 15228696.000000, 2373.875000, 8178.000000, 8172.500000, 8166.500000
2237, 15228856.000000, 2280.875000, 8179.000000, 8165.000000, 8152.500000
2238, 15229016.000000, 2152.875000, 8188.000000, 8164.000000, 8155.000000
2239, 15229176.000000, 2002.375000, 8177.000000, 8162.500000, 8151.500000
2240, 15229336.000000, 1892.000000, 8174.000000, 8166.000000, 8155.000000
2241, 15229496.000000, 1839.500000, 8177.000000, 8168.000000, 8159.000000
2242, 15229656.000000, 1832.000000, 8167.000000, 8219.500000, 8220.500000
2243, 15229816.000000, 1829.250000, 8522.500000, 8149.500000, 8313.500000
2244, 15229976.000000, 1807.000000, 8177.000000, 7942.000000, 7966.000000
2245, 15230136.000000, 1753.250000, 8062.000000, 8060.000000, 7953.500000
2246, 15230296.000000, 1674.250000, 8153.500000, 8212.500000, 8183.500000
2247, 15230456.000000, 1584.625000, 8181.000000, 8236.000000, 8233.000000
2248, 15230616.000000, 1496.625000, 8192.000000, 8240.500000, 8243.500000
2249, 15230776.000000, 1420.500000, 8200.000000, 8248.500000, 8256.500000
2250, 15230936.000000, 1361.125000, 8204.000000, 8259.000000, 8269.000000
2251, 15231096.000000, 1311.250000, 8213.500000, 8274.500000, 8290.000000
2252, 15231256.000000, 1272.375000, 8224.500000, 8295.000000, 8317.500000
2253, 15231416.000000, 1236.750000, 8238.000000, 8321.500000, 8351.000000
2254, 15231576.000000, 1203.500000, 8249.000000, 8346.000000, 8381.000000
2255, 15231736.000000, 1178.125000, 8254.000000, 8354.000000, 8392.000000
2256, 15231896.000000, 1159.750000, 8252.000000, 8341.500000, 8378.500000
2257, 15232056.000000, 1146.625000, 8236.000000, 8291.500000, 8320.000000
2258, 15232216.000000, 1133.125000, 8204.000000, 8223.000000, 8235.000000
2259, 15232376.000000, 1117.750000, 8177.000000, 8174.500000, 8169.500000
2260, 15232536.000000, 1103.125000, 8164.500000, 8158.000000, 8144.000000
2261, 15232696.000000, 1092.375000, 8164.000000, 8156.000000, 8141.000000
2262, 15232856.000000, 1084.500000, 8167.000000, 8157.000000, 8144.000000
2263, 15233016.000000, 1070.875000, 8169.000000, 8158.000000, 8146.000000
2264, 15233176.000000, 1040.000000, 8172.000000, 8157.000000, 8146.000000
2265, 15233336.000000, 998.000000, 8173.000000, 8155.000000, 8144.000000
2266, 15233496.000000, 993.625000, 8172.000000, 8153.000000, 8141.000000
2267, 15233656.000000, 1149.375000, 8171.500000, 8150.500000, 8137.000000
2268, 15233816.000000, 1529.250000, 8171.000000, 8149.500000, 8136.500000
2269, 15233976.000000, 2059.750000, 8170.000000, 8149.500000, 8134.500000
2270, 15234136.000000, 2517.875000, 8169.500000, 8150.500000, 8135.000000
2271, 15234296.000000, 2769.875000, 8169.000000, 8151.000000, 8135.000000
2272, 15234456.000000, 2784.125000, 8170.000000, 8153.000000, 8138.000000
2273, 15234616.000000, 2668.125000, 8172.500000, 8154.500000, 8139.000000
2274, 15234776.000000, 2524.500000, 8171.000000, 8157.500000, 8142.500000
2275, 15234936.000000, 2415.625000, 8173.000000, 8160.000000, 8145.000000
2276, 15235096.000000, 2339.000000, 8175.000000, 8160.000000, 8146.000000
2277, 15235256.000000, 2245.250000, 8172.500000, 8158.500000, 8143.000000
2278, 15235416.000000, 2110.500000, 8180.500000, 8173.000000, 8159.500000
2279, 15235576.000000, 1964.875000, 8185.000000, 8165.500000, 8152.500000
2280, 15235736.000000, 1864.875000, 8189.000000, 8165.500000, 8154.500000
2281, 15235896.000000, 1822.250000, 8178.000000, 8164.000000, 8150.000000
2282, 15236056.000000, 1810.875000, 8178.000000, 8166.500000, 8152.500000
2283, 15236216.000000, 1791.500000, 8181.000000, 8167.000000, 8155.000000
2284, 15236376.000000, 1747.625000, 8176.000000, 8235.500000, 8236.500000
2285, 15236536.000000, 1674.000000, 8588.500000, 8123.500000, 8314.000000
2286, 15236696.000000, 1584.750000, 8094.000000, 8012.000000, 7994.000000
2287, 15236856.000000, 1489.750000, 8075.500000, 8088.000000, 7989.500000
2288, 15237016.000000, 1401.375000, 8161.500000, 8207.000000, 8180.000000
2289, 15237176.000000, 1328.375000, 8187.500000, 8228.500000, 8223.000000
2290, 15237336.000000, 1278.000000, 8197.500000, 8235.000000, 8235.500000
2291, 15237496.000000, 1246.375000, 8205.000000, 8242.000000, 8246.000000
2292, 15237656.000000, 1227.125000, 8212.500000, 8252.000000, 8261.500000
2293, 15237816.000000, 1211.875000, 8222.000000, 8266.000000, 8280.000000
2294, 15237976.000000, 1194.625000, 8232.500000, 8285.500000, 8304.500000
2295, 15238136.000000, 1174.000000, 8248.000000, 8310.500000, 8338.500000
2296, 15238296.000000, 1151.375000, 8260.000000, 8329.000000, 8361.500000
2297, 15238456.000000, 1135.875000, 8265.000000, 8332.500000, 8366.000000
2298, 15238616.000000, 1124.500000, 8263.000000, 8319.000000, 8351.500000
2299, 15238776.000000, 1112.625000, 8246.000000, 8280.500000, 8305.500000
2300, 15238936.000000, 1096.000000, 8212.000000, 8224.000000, 8233.500000
2301, 15239096.000000, 1073.250000, 8180.500000, 8177.500000, 8171.000000
2302, 15239256.000000, 1049.000000, 8170.500000, 8161.500000, 8149.500000
2303, 15239416.000000, 1032.625000, 8170.000000, 8159.000000, 8145.500000
2304, 15239576.000000, 1020.125000, 8175.000000, 8161.000000, 8150.000000
2305, 15239736.000000, 1008.750000, 8175.000000, 8161.000000, 8150.000000
2306, 15239896.000000, 988.500000, 8178.500000, 8159.000000, 8149.500000
2307, 15240056.000000, 954.750000, 8179.000000, 8157.000000, 8146.000000
2308, 15240216.000000, 946.875000, 8178.000000, 8154.000000, 8142.000000
2309, 15240376.000000, 1072.500000, 8176.500000, 8153.000000, 8141.000000
2310, 15240536.000000, 1438.500000, 8173.500000, 8153.000000, 8138.000000
2311, 15240696.000000, 1966.500000, 8172.000000, 8153.000000, 8137.000000
2312, 15240856.000000, 2445.875000, 8176.000000, 8152.000000, 8138.500000
2313, 15241016.000000, 2718.500000, 8175.000000, 8154.000000, 8140.000000
2314, 15241176.000000, 2741.625000, 8177.000000, 8155.500000, 8142.500000
2315, 15241336.000000, 2606.500000, 8177.000000, 8158.000000, 8145.000000
2316, 15241496.000000, 2428.875000, 8178.500000, 8159.000000, 8147.500000
2317, 15241656.000000, 2280.625000, 8175.000000, 8157.000000, 8143.000000
2318, 15241816.000000, 2171.000000, 8181.000000, 8168.000000, 8153.000000
2319, 15241976.000000, 2064.750000, 8187.500000, 8166.000000, 8156.500000
2320, 15242136.000000, 1931.375000, 8188.000000, 8165.500000, 8156.000000
2321, 15242296.000000, 1808.375000, 8178.500000, 8165.000000, 8153.500000
2322, 15242456.000000, 1743.250000, 8178.000000, 8167.500000, 8157.500000
2323, 15242616.000000, 1740.375000, 8181.000000, 8169.000000, 8162.000000
2324, 15242776.000000, 1761.625000, 8174.500000, 8238.000000, 8237.500000
2325, 15242936.000000, 1769.000000, 8579.500000, 8145.500000, 8333.500000
2326, 15243096.000000, 1741.500000, 8082.500000, 8071.500000, 8064.000000
2327, 15243256.000000, 1681.500000, 8071.000000, 8094.500000, 8006.500000
2328, 15243416.000000, 1598.500000, 8145.500000, 8192.500000, 8154.500000
2329, 15243576.000000, 1503.875000, 8180.000000, 8222.500000, 8217.500000
2330, 15243736.000000, 1412.625000, 8190.000000, 8229.000000, 8231.000000
2331, 15243896.000000, 1339.250000, 8199.000000, 8236.000000, 8241.500000
2332, 15244056.000000, 1289.750000, 8205.500000, 8245.500000, 8254.500000
2333, 15244216.000000, 1263.125000, 8215.000000, 8259.000000, 8273.000000
2334, 15244376.000000, 1244.750000, 8224.500000, 8276.500000, 8295.000000
2335, 15244536.000000, 1229.750000, 8238.500000, 8299.000000, 8325.000000
2336, 15244696.000000, 1213.375000, 8252.000000, 8317.000000, 8349.000000
2337, 15244856.000000, 1194.125000, 8257.500000, 8318.000000, 8350.500000
2338, 15245016.000000, 1170.250000, 8253.500000, 8303.500000, 8334.500000
2339, 15245176.000000, 1148.875000, 8233.000000, 8267.500000, 8291.000000
2340, 15245336.000000, 1128.375000, 8196.500000, 8221.000000, 8230.000000
2341, 15245496.000000, 1110.750000, 8165.500000, 8181.000000, 8174.500000
2342, 15245656.000000, 1102.625000, 8156.000000, 8164.500000, 8150.000000
2343, 15245816.000000, 1102.875000, 8154.500000, 8162.000000, 8146.500000
2344, 15245976.000000, 1103.625000, 8160.000000, 8164.500000, 8152.500000
2345, 15246136.000000, 1097.500000, 8161.000000, 8164.000000, 8153.000000
2346, 15246296.000000, 1079.250000, 8165.500000, 8162.500000, 8153.000000
2347, 15246456.000000, 1046.000000, 8164.000000, 8160.000000, 8149.000000
2348, 15246616.000000, 1015.375000, 8163.000000, 8157.000000, 8145.000000
2349, 15246776.000000, 1062.500000, 8160.500000, 8156.000000, 8142.500000
2350, 15246936.000000, 1308.250000, 8161.000000, 8155.500000, 8142.500000
2351, 15247096.000000, 1752.125000, 8160.000000, 8155.500000, 8141.500000
2352, 15247256.000000, 2249.625000, 8161.000000, 8155.000000, 8140.000000
2353, 15247416.000000, 2606.750000, 8163.000000, 8156.500000, 8143.500000
2354, 15247576.000000, 2727.000000, 8163.000000, 8158.000000, 8144.000000
2355, 15247736.000000, 2647.750000, 8163.500000, 8160.000000, 8146.500000
2356, 15247896.000000, 2468.125000, 8164.500000, 8161.500000, 8148.500000
2357, 15248056.000000, 2280.000000, 8165.500000, 8162.000000, 8149.500000
2358, 15248216.000000, 2125.000000, 8163.500000, 8161.500000, 8148.000000
2359, 15248376.000000, 1986.875000, 8170.500000, 8178.500000, 8165.500000
2360, 15248536.000000, 1843.625000, 8174.500000, 8168.500000, 8157.000000
2361, 15248696.000000, 1717.375000, 8177.000000, 8169.500000, 8160.500000
2362, 15248856.000000, 1648.875000, 8166.000000, 8167.000000, 8153.000000
2363, 15249016.000000, 1653.625000, 8168.000000, 8169.000000, 8158.000000
2364, 15249176.000000, 1695.625000, 8169.000000, 8170.500000, 8159.500000
2365, 15249336.000000, 1728.625000, 8175.000000, 8251.000000, 8256.500000
2366, 15249496.000000, 1723.875000, 8601.000000, 8107.500000, 8314.000000
2367, 15249656.000000, 1684.625000, 8060.000000, 8008.500000, 7971.000000
2368, 15249816.000000, 1614.000000, 8070.500000, 8103.500000, 8006.500000
2369, 15249976.000000, 1528.500000, 8157.500000, 8217.500000, 8198.500000
2370, 15250136.000000, 1440.250000, 8176.500000, 8233.500000, 8229.500000
2371, 15250296.000000, 1358.000000, 8186.000000, 8239.500000, 8239.500000
2372, 15250456.000000, 1291.750000, 8194.000000, 8247.500000, 8252.000000
2373, 15250616.000000, 1245.000000, 8200.000000, 8258.000000, 8266.000000
2374, 15250776.000000, 1211.875000, 8209.500000, 8275.000000, 8289.500000
2375, 15250936.000000, 1190.875000, 8220.000000, 8298.000000, 8318.000000
2376, 15251096.000000, 1173.375000, 8234.500000, 8326.000000, 8355.000000
2377, 15251256.000000, 1159.625000, 8247.000000, 8345.500000, 8379.500000
2378, 15251416.000000, 1149.500000, 8250.500000, 8350.000000, 8385.000000
2379, 15251576.000000, 1140.375000, 8246.500000, 8332.500000, 8365.500000
2380, 15251736.000000, 1129.125000, 8229.000000, 8281.000000, 8306.500000
2381, 15251896.000000, 1113.875000, 8196.500000, 8216.000000, 8224.000000
2382, 15252056.000000, 1094.625000, 8170.500000, 8172.500000, 8164.500000
2383, 15252216.000000, 1074.000000, 8162.000000, 8158.000000, 8145.000000
2384, 15252376.000000, 1056.750000, 8160.000000, 8158.000000, 8142.000000
2385, 15252536.000000, 1044.500000, 8160.500000, 8161.000000, 8145.500000
2386, 15252696.000000, 1036.500000, 8167.500000, 8162.000000, 8151.000000
2387, 15252856.000000, 1021.875000, 8167.000000, 8159.500000, 8146.500000
2388, 15253016.000000, 999.250000, 8169.500000, 8156.000000, 8144.500000
2389, 15253176.000000, 985.000000, 8168.500000, 8154.000000, 8141.500000
2390, 15253336.000000, 1097.500000, 8167.000000, 8153.000000, 8140.000000
2391, 15253496.000000, 1430.625000, 8165.000000, 8153.000000, 8138.000000
2392, 15253656.000000, 1974.000000, 8165.000000, 8152.000000, 8137.000000
2393, 15253816.000000, 2508.125000, 8164.500000, 8154.000000, 8138.000000
2394, 15253976.000000, 2845.000000, 8166.000000, 8155.500000, 8139.500000
2395, 15254136.000000, 2925.375000, 8168.000000, 8158.000000, 8143.500000
2396, 15254296.000000, 2824.000000, 8169.500000, 8159.000000, 8145.500000
2397, 15254456.000000, 2647.250000, 8171.000000, 8162.000000, 8149.000000
2398, 15254616.000000, 2485.375000, 8172.000000, 8162.500000, 8149.500000
2399, 15254776.000000, 2364.375000, 8170.000000, 8162.000000, 8150.500000
2400, 15254936.000000, 2261.125000, 8178.500000, 8179.000000, 8174.000000
2401, 15255096.000000, 2133.000000, 8181.000000, 8171.500000, 8160.500000
2402, 15255256.000000, 1997.000000, 8187.000000, 8168.000000, 8159.000000
2403, 15255416.000000, 1904.500000, 8175.500000, 8167.000000, 8154.500000
2404, 15255576.000000, 1871.250000, 8176.000000, 8169.500000, 8158.500000
2405, 15255736.000000, 1878.250000, 8177.000000, 8172.000000, 8163.000000
2406, 15255896.000000, 1887.625000, 8167.500000, 8227.500000, 8228.500000
2407, 15256056.000000, 1874.250000, 8532.500000, 8146.500000, 8315.500000
2408, 15256216.000000, 1826.375000, 8168.500000, 7947.000000, 7965.500000
2409, 15256376.000000, 1753.250000, 8062.000000, 8065.000000, 7958.500000
2410, 15256536.000000, 1659.750000, 8156.500000, 8216.500000, 8191.000000
2411, 15256696.000000, 1563.750000, 8181.500000, 8238.000000, 8234.500000
2412, 15256856.000000, 1479.750000, 8193.000000, 8244.000000, 8247.500000
2413, 15257016.000000, 1413.000000, 8198.500000, 8252.500000, 8258.000000
2414, 15257176.000000, 1364.625000, 8206.000000, 8262.500000, 8272.500000
2415, 15257336.000000, 1324.750000, 8213.500000, 8278.000000, 8292.500000
2416, 15257496.000000, 1294.875000, 8224.500000, 8298.500000, 8319.000000
2417, 15257656.000000, 1269.125000, 8237.000000, 8326.000000, 8354.000000
2418, 15257816.000000, 1250.750000, 8249.000000, 8351.000000, 8386.000000
2419, 15257976.000000, 1236.625000, 8254.000000, 8359.000000, 8397.000000
2420, 15258136.000000, 1223.750000, 8251.000000, 8347.000000, 8383.000000
2421, 15258296.000000, 1207.875000, 8236.000000, 8298.500000, 8326.500000
2422, 15258456.000000, 1191.125000, 8206.500000, 8229.500000, 8240.500000
2423, 15258616.000000, 1176.750000, 8181.000000, 8179.500000, 8174.500000
2424, 15258776.000000, 1165.875000, 8167.500000, 8161.000000, 8147.000000
2425, 15258936.000000, 1160.250000, 8167.000000, 8158.000000, 8143.500000
2426, 15259096.000000, 1159.000000, 8171.000000, 8160.000000, 8149.000000
2427, 15259256.000000, 1158.125000, 8173.500000, 8159.500000, 8149.500000
2428, 15259416.000000, 1149.375000, 8174.000000, 8158.000000, 8149.000000
2429, 15259576.000000, 1124.625000, 8175.000000, 8156.000000, 8146.000000
2430, 15259736.000000, 1093.500000, 8175.000000, 8155.000000, 8145.000000
2431, 15259896.000000, 1137.000000, 8172.500000, 8152.500000, 8139.000000
2432, 15260056.000000, 1419.875000, 8172.000000, 8149.500000, 8135.500000
2433, 15260216.000000, 1930.250000, 8171.500000, 8150.000000, 8135.500000
2434, 15260376.000000, 2516.125000, 8170.000000, 8151.500000, 8136.000000
2435, 15260536.000000, 2925.250000, 8171.500000, 8152.500000, 8138.000000
2436, 15260696.000000, 3067.125000, 8171.500000, 8154.000000, 8139.500000
2437, 15260856.000000, 2975.375000, 8172.000000, 8155.500000, 8140.500000
2438, 15261016.000000, 2772.750000, 8172.500000, 8157.000000, 8141.500000
2439, 15261176.000000, 2574.000000, 8171.000000, 8158.500000, 8143.500000
2440, 15261336.000000, 2440.250000, 8172.500000, 8160.000000, 8147.500000
2441, 15261496.000000, 2345.500000, 8173.500000, 8168.000000, 8159.000000
2442, 15261656.000000, 2244.625000, 8175.000000, 8173.000000, 8153.000000
2443, 15261816.000000, 2110.875000, 8185.000000, 8166.000000, 8153.000000
2444, 15261976.000000, 1987.750000, 8178.500000, 8167.500000, 8155.500000
2445, 15262136.000000, 1916.625000, 8174.500000, 8166.000000, 8153.500000
2446, 15262296.000000, 1894.250000, 8174.500000, 8169.000000, 8156.500000
2447, 15262456.000000, 1889.375000, 8172.500000, 8179.000000, 8171.000000
2448, 15262616.000000, 1873.875000, 8337.500000, 8242.500000, 8311.500000
2449, 15262776.000000, 1832.750000, 8463.500000, 7941.500000, 8102.500000
2450, 15262936.000000, 1766.000000, 8042.500000, 8017.000000, 7916.500000
2451, 15263096.000000, 1679.500000, 8121.000000, 8179.500000, 8118.500000
2452, 15263256.000000, 1583.750000, 8175.000000, 8232.500000, 8225.500000
2453, 15263416.000000, 1493.250000, 8186.000000, 8238.500000, 8239.500000
2454, 15263576.000000, 1416.500000, 8195.000000, 8245.500000, 8250.500000
2455, 15263736.000000, 1352.875000, 8200.500000, 8255.500000, 8264.000000
2456, 15263896.000000, 1301.250000, 8208.500000, 8268.500000, 8280.500000
2457, 15264056.000000, 1259.875000, 8219.000000, 8286.000000, 8305.000000
2458, 15264216.000000, 1229.500000, 8230.000000, 8310.500000, 8336.500000
2459, 15264376.000000, 1205.875000, 8242.000000, 8338.000000, 8370.500000
2460, 15264536.000000, 1195.250000, 8249.500000, 8353.000000, 8389.500000
2461, 15264696.000000, 1193.000000, 8251.000000, 8347.500000, 8383.500000
2462, 15264856.000000, 1193.000000, 8239.000000, 8312.000000, 8342.500000
2463, 15265016.000000, 1193.000000, 8216.000000, 8246.500000, 8264.500000
2464, 15265176.000000, 1185.500000, 8183.500000, 8186.000000, 8187.000000
2465, 15265336.000000, 1170.000000, 8166.000000, 8158.500000, 8146.500000
2466, 15265496.000000, 1148.250000, 8164.000000, 8153.000000, 8138.000000
2467, 15265656.000000, 1126.875000, 8167.000000, 8153.000000, 8140.000000
2468, 15265816.000000, 1112.125000, 8170.500000, 8154.500000, 8143.500000
2469, 15265976.000000, 1104.375000, 8170.000000, 8152.000000, 8139.000000
2470, 15266136.000000, 1086.250000, 8170.500000, 8151.000000, 8139.000000
2471, 15266296.000000, 1053.000000, 8169.000000, 8147.500000, 8133.500000
2472, 15266456.000000, 1041.875000, 8169.000000, 8145.000000, 8131.000000
2473, 15266616.000000, 1167.250000, 8168.000000, 8144.500000, 8129.500000
2474, 15266776.000000, 1545.125000, 8169.000000, 8146.000000, 8132.000000
2475, 15266936.000000, 2102.625000, 8168.500000, 8148.000000, 8133.500000
2476, 15267096.000000, 2623.750000, 8170.000000, 8148.000000, 8133.000000
2477, 15267256.000000, 2922.375000, 8172.000000, 8150.000000, 8136.000000
2478, 15267416.000000, 2955.250000, 8173.000000, 8152.000000, 8137.000000
2479, 15267576.000000, 2813.250000, 8173.000000, 8154.000000, 8140.500000
2480, 15267736.000000, 2606.250000, 8171.000000, 8155.000000, 8140.500000
2481, 15267896.000000, 2422.250000, 8178.500000, 8166.000000, 8155.500000
2482, 15268056.000000, 2285.000000, 8183.500000, 8164.500000, 8152.500000
2483, 15268216.000000, 2164.125000, 8188.000000, 8160.500000, 8151.000000
2484, 15268376.000000, 2029.000000, 8176.000000, 8162.000000, 8148.500000
2485, 15268536.000000, 1897.125000, 8175.000000, 8164.000000, 8152.000000
2486, 15268696.000000, 1814.875000, 8177.500000, 8165.500000, 8155.000000
2487, 15268856.000000, 1790.375000, 8171.500000, 8217.500000, 8216.000000
2488, 15269016.000000, 1790.000000, 8536.000000, 8164.500000, 8327.000000
2489, 15269176.000000, 1781.750000, 8126.000000, 8060.500000, 8075.500000
2490, 15269336.000000, 1747.125000, 8063.500000, 8082.000000, 7994.500000
2491, 15269496.000000, 1681.750000, 8138.500000, 8178.500000, 8129.500000
2492, 15269656.000000, 1600.625000, 8183.500000, 8214.500000, 8208.000000
2493, 15269816.000000, 1514.375000, 8191.000000, 8221.500000, 8218.500000
2494, 15269976.000000, 1426.625000, 8201.000000, 8228.500000, 8231.500000
2495, 15270136.000000, 1346.750000, 8209.500000, 8238.500000, 8247.000000
2496, 15270296.000000, 1284.750000, 8218.000000, 8250.500000, 8263.000000
2497, 15270456.000000, 1237.125000, 8231.000000, 8267.500000, 8286.500000
2498, 15270616.000000, 1205.250000, 8244.500000, 8289.500000, 8314.500000
2499, 15270776.000000, 1183.000000, 8256.000000, 8308.500000, 8338.500000
2500, 15270936.000000, 1168.125000, 8261.500000, 8315.000000, 8346.500000
2501, 15271096.000000, 1155.625000, 8261.500000, 8302.500000, 8334.000000
2502, 15271256.000000, 1145.125000, 8244.000000, 8270.000000, 8295.500000
2503, 15271416.000000, 1131.625000, 8206.500000, 8222.500000, 8233.000000
2504, 15271576.000000, 1121.125000, 8174.000000, 8183.000000, 8178.500000
2505, 15271736.000000, 1106.750000, 8161.500000, 8163.500000, 8151.500000
2506, 15271896.000000, 1094.875000, 8162.000000, 8160.000000, 8147.500000
2507, 15272056.000000, 1090.125000, 8166.000000, 8160.500000, 8148.500000
2508, 15272216.000000, 1085.625000, 8166.500000, 8161.000000, 8149.500000
2509, 15272376.000000, 1085.000000, 8166.500000, 8161.500000, 8150.000000
2510, 15272536.000000, 1078.125000, 8166.000000, 8160.000000, 8148.000000
2511, 15272696.000000, 1062.000000, 8165.000000, 8157.500000, 8144.500000
2512, 15272856.000000, 1062.125000, 8164.000000, 8155.500000, 8140.500000
2513, 15273016.000000, 1164.250000, 8163.000000, 8154.500000, 8139.500000
2514, 15273176.000000, 1477.875000, 8161.000000, 8155.000000, 8138.000000
2515, 15273336.000000, 1969.500000, 8161.500000, 8156.000000, 8140.000000
2516, 15273496.000000, 2460.625000, 8163.000000, 8157.000000, 8141.000000
2517, 15273656.000000, 2762.750000, 8161.500000, 8158.000000, 8144.000000
2518, 15273816.000000, 2820.375000, 8166.000000, 8170.500000, 8147.500000
2519, 15273976.000000, 2704.125000, 8176.000000, 8162.000000, 8148.500000
2520, 15274136.000000, 2499.875000, 8173.000000, 8165.500000, 8152.000000
2521, 15274296.000000, 2300.500000, 8163.500000, 8162.000000, 8144.500000
2522, 15274456.000000, 2131.125000, 8163.000000, 8164.000000, 8148.000000
2523, 15274616.000000, 1987.000000, 8166.000000, 8165.500000, 8151.500000
2524, 15274776.000000, 1860.250000, 8200.500000, 8250.000000, 8259.000000
2525, 15274936.000000, 1777.250000, 8573.000000, 8109.000000, 8305.000000
2526, 15275096.000000, 1760.625000, 8040.500000, 8056.500000, 8010.500000
2527, 15275256.000000, 1794.750000, 8079.000000, 8117.500000, 8025.500000
2528, 15275416.000000, 1837.250000, 8160.000000, 8210.000000, 8189.000000
2529, 15275576.000000, 1859.500000, 8181.000000, 8222.500000, 8216.500000
2530, 15275736.000000, 1851.250000, 8189.000000, 8227.500000, 8225.000000
2531, 15275896.000000, 1813.375000, 8199.500000, 8236.500000, 8239.500000
2532, 15276056.000000, 1750.500000, 8206.000000, 8248.500000, 8254.500000
2533, 15276216.000000, 1675.875000, 8217.500000, 8264.500000, 8277.500000
2534, 15276376.000000, 1598.125000, 8229.000000, 8286.500000, 8304.500000
2535, 15276536.000000, 1528.250000, 8243.000000, 8311.500000, 8337.500000
2536, 15276696.000000, 1468.750000, 8255.500000, 8327.000000, 8357.500000
2537, 15276856.000000, 1421.125000, 8258.000000, 8324.000000, 8354.000000
2538, 15277016.000000, 1387.500000, 8250.500000, 8300.000000, 8328.000000
2539, 15277176.000000, 1363.000000, 8222.000000, 8251.000000, 8268.000000
2540, 15277336.000000, 1347.125000, 8186.000000, 8198.000000, 8198.000000
2541, 15277496.000000, 1335.500000, 8165.000000, 8167.000000, 8154.500000
2542, 15277656.000000, 1328.250000, 8159.500000, 8157.500000, 8141.000000
2543, 15277816.000000, 1326.000000, 8161.000000, 8157.000000, 8141.500000
2544, 15277976.000000, 1328.000000, 8164.500000, 8158.000000, 8143.000000
2545, 15278136.000000, 1325.250000, 8166.000000, 8157.000000, 8143.000000
2546, 15278296.000000, 1312.625000, 8167.000000, 8155.500000, 8140.500000
2547, 15278456.000000, 1277.375000, 8167.000000, 8154.000000, 8139.000000
2548, 15278616.000000, 1217.625000, 8166.000000, 8151.000000, 8135.000000
2549, 15278776.000000, 1174.125000, 8164.500000, 8151.000000, 8135.000000
2550, 15278936.000000, 1272.000000, 8164.000000, 8151.000000, 8134.000000
2551, 15279096.000000, 1589.875000, 8166.500000, 8151.500000, 8136.000000
2552, 15279256.000000, 2082.625000, 8167.000000, 8154.000000, 8138.500000
2553, 15279416.000000, 2544.875000, 8167.000000, 8155.000000, 8140.000000
2554, 15279576.000000, 2819.125000, 8173.500000, 8166.000000, 8160.000000
2555, 15279736.000000, 2866.250000, 8172.000000, 8165.000000, 8147.000000
2556, 15279896.000000, 2757.625000, 8180.000000, 8159.500000, 8146.500000
2557, 15280056.000000, 2579.375000, 8172.500000, 8160.500000, 8145.000000
2558, 15280216.000000, 2393.750000, 8169.000000, 8161.500000, 8145.500000
2559, 15280376.000000, 2225.250000, 8171.000000, 8164.500000, 8149.500000
2560, 15280536.000000, 2056.250000, 8165.000000, 8185.000000, 8173.500000
2561, 15280696.000000, 1901.125000, 8387.000000, 8223.500000, 8315.500000
2562, 15280856.000000, 1800.375000, 8367.500000, 7973.500000, 8089.500000
2563, 15281016.000000, 1780.500000, 8046.000000, 8036.000000, 7937.000000
2564, 15281176.000000, 1816.875000, 8126.500000, 8180.000000, 8122.000000
2565, 15281336.000000, 1866.625000, 8177.000000, 8224.500000, 8216.000000
2566, 15281496.000000, 1890.000000, 8188.000000, 8231.000000, 8229.500000
2567, 15281656.000000, 1874.500000, 8195.500000, 8236.500000, 8238.000000
2568, 15281816.000000, 1813.375000, 8203.000000, 8247.500000, 8253.500000
2569, 15281976.000000, 1722.000000, 8210.000000, 8263.500000, 8273.500000
2570, 15282136.000000, 1612.500000, 8218.500000, 8284.000000, 8300.500000
2571, 15282296.000000, 1504.375000, 8232.000000, 8310.000000, 8333.500000
2572, 15282456.000000, 1412.000000, 8244.500000, 8336.000000, 8366.000000
2573, 15282616.000000, 1340.250000, 8250.000000, 8347.000000, 8379.000000
2574, 15282776.000000, 1291.375000, 8248.000000, 8338.000000, 8370.000000
2575, 15282936.000000, 1261.125000, 8235.500000, 8295.500000, 8321.500000
2576, 15283096.000000, 1246.500000, 8205.500000, 8230.500000, 8240.500000
2577, 15283256.000000, 1239.250000, 8175.500000, 8179.000000, 8173.000000
2578, 15283416.000000, 1238.375000, 8163.000000, 8159.000000, 8145.000000
2579, 15283576.000000, 1241.750000, 8159.000000, 8156.500000, 8139.500000
2580, 15283736.000000, 1250.500000, 8162.000000, 8156.500000, 8141.500000
2581, 15283896.000000, 1261.500000, 8164.000000, 8157.000000, 8142.000000
2582, 15284056.000000, 1267.375000, 8167.000000, 8154.500000, 8141.500000
2583, 15284216.000000, 1264.375000, 8166.000000, 8154.000000, 8140.000000
2584, 15284376.000000, 1237.000000, 8165.000000, 8152.000000, 8137.000000
2585, 15284536.000000, 1202.125000, 8164.000000, 8151.000000, 8134.000000
2586, 15284696.000000, 1246.375000, 8163.000000, 8149.500000, 8131.500000
2587, 15284856.000000, 1512.875000, 8164.000000, 8149.000000, 8132.000000
2588, 15285016.000000, 2002.625000, 8164.000000, 8150.500000, 8133.500000
2589, 15285176.000000, 2546.875000, 8166.500000, 8151.500000, 8136.000000
2590, 15285336.000000, 2920.250000, 8163.500000, 8150.500000, 8135.000000
2591, 15285496.000000, 3049.125000, 8174.000000, 8169.000000, 8156.000000
2592, 15285656.000000, 2959.625000, 8178.000000, 8157.500000, 8144.500000
2593, 15285816.000000, 2768.375000, 8182.500000, 8160.000000, 8150.000000
2594, 15285976.000000, 2570.000000, 8169.000000, 8158.000000, 8142.000000
2595, 15286136.000000, 2406.500000, 8172.000000, 8161.000000, 8148.000000
2596, 15286296.000000, 2268.625000, 8173.500000, 8161.000000, 8149.000000
2597, 15286456.000000, 2125.125000, 8177.000000, 8238.000000, 8240.000000
2598, 15286616.000000, 1998.000000, 8590.500000, 8099.500000, 8301.000000
2599, 15286776.000000, 1926.250000, 8060.500000, 7987.000000, 7946.500000
2600, 15286936.000000, 1926.375000, 8075.500000, 8100.500000, 7999.500000
2601, 15287096.000000, 1955.375000, 8167.000000, 8215.500000, 8198.000000
2602, 15287256.000000, 1978.750000, 8185.000000, 8227.500000, 8224.000000
2603, 15287416.000000, 1967.250000, 8195.500000, 8233.500000, 8236.000000
2604, 15287576.000000, 1919.500000, 8202.000000, 8242.500000, 8248.500000
2605, 15287736.000000, 1839.375000, 8208.500000, 8254.000000, 8263.000000
2606, 15287896.000000, 1742.625000, 8218.500000, 8271.000000, 8285.500000
2607, 15288056.000000, 1642.875000, 8229.500000, 8294.500000, 8315.500000
2608, 15288216.000000, 1555.375000, 8243.000000, 8323.500000, 8352.500000
2609, 15288376.000000, 1487.000000, 8254.000000, 8346.500000, 8381.000000
2610, 15288536.000000, 1444.750000, 8255.000000, 8349.000000, 8384.000000
2611, 15288696.000000, 1415.250000, 8250.000000, 8326.500000, 8358.000000
2612, 15288856.000000, 1394.000000, 8230.000000, 8269.500000, 8292.000000
2613, 15289016.000000, 1373.125000, 8197.500000, 8205.500000, 8210.500000
2614, 15289176.000000, 1353.375000, 8173.500000, 8169.000000, 8160.000000
2615, 15289336.000000, 1339.625000, 8168.500000, 8160.000000, 8147.500000
2616, 15289496.000000, 1333.625000, 8171.000000, 8159.000000, 8148.000000
2617, 15289656.000000, 1329.375000, 8173.000000, 8161.000000, 8150.000000
2618, 15289816.000000, 1325.250000, 8173.000000, 8159.000000, 8148.000000
2619, 15289976.000000, 1315.625000, 8175.000000, 8158.000000, 8148.000000
2620, 15290136.000000, 1290.000000, 8173.000000, 8156.000000, 8145.000000
2621, 15290296.000000, 1244.375000, 8172.000000, 8152.500000, 8140.500000
2622, 15290456.000000, 1230.750000, 8169.000000, 8150.000000, 8136.000000
2623, 15290616.000000, 1361.250000, 8168.000000, 8149.500000, 8135.000000
2624, 15290776.000000, 1760.875000, 8168.000000, 8150.000000, 8135.500000
2625, 15290936.000000, 2321.000000, 8169.500000, 8151.500000, 8138.000000
2626, 15291096.000000, 2837.125000, 8170.000000, 8152.000000, 8139.000000
2627, 15291256.000000, 3113.250000, 8168.000000, 8152.500000, 8141.000000
2628, 15291416.000000, 3116.000000, 8175.500000, 8169.000000, 8152.500000
2629, 15291576.000000, 2892.500000, 8179.500000, 8159.000000, 8148.000000
2630, 15291736.000000, 2692.625000, 8182.000000, 8162.000000, 8155.000000
2631, 15291896.000000, 2534.625000, 8172.000000, 8158.000000, 8146.000000
2632, 15292056.000000, 2384.250000, 8173.000000, 8160.000000, 8149.000000
2633, 15292216.000000, 2216.375000, 8173.500000, 8163.500000, 8154.500000
2634, 15292376.000000, 2107.375000, 8197.500000, 8249.000000, 8259.500000
2635, 15292536.000000, 2070.250000, 8594.500000, 8053.000000, 8263.500000
2636, 15292696.000000, 2077.500000, 8042.000000, 7987.000000, 7923.500000
2637, 15292856.000000, 2083.000000, 8088.500000, 8130.500000, 8042.000000
2638, 15293016.000000, 2056.500000, 8167.500000, 8222.500000, 8211.500000
2639, 15293176.000000, 1992.750000, 8179.500000, 8233.500000, 8231.500000
2640, 15293336.000000, 1901.375000, 8190.500000, 8240.500000, 8244.500000
2641, 15293496.000000, 1802.000000, 8197.000000, 8247.000000, 8253.500000
2642, 15293656.000000, 1708.250000, 8203.500000, 8258.500000, 8269.000000
2643, 15293816.000000, 1631.500000, 8213.500000, 8275.500000, 8293.000000
2644, 15293976.000000, 1571.500000, 8225.500000, 8300.500000, 8326.000000
2645, 15294136.000000, 1525.125000, 8238.000000, 8328.500000, 8360.500000
2646, 15294296.000000, 1493.250000, 8248.000000, 8345.000000, 8381.500000
2647, 15294456.000000, 1470.125000, 8246.500000, 8345.000000, 8380.500000
2648, 15294616.000000, 1451.375000, 8238.500000, 8319.000000, 8351.000000
2649, 15294776.000000, 1435.750000, 8216.000000, 8259.000000, 8281.000000
2650, 15294936.000000, 1422.125000, 8183.500000, 8198.500000, 8202.000000
2651, 15295096.000000, 1412.375000, 8164.500000, 8166.500000, 8156.500000
2652, 15295256.000000, 1404.500000, 8162.000000, 8159.000000, 8148.000000
2653, 15295416.000000, 1394.500000, 8164.000000, 8160.000000, 8149.000000
2654, 15295576.000000, 1382.750000, 8165.000000, 8161.000000, 8152.000000
2655, 15295736.000000, 1361.375000, 8170.500000, 8159.000000, 8153.000000
2656, 15295896.000000, 1319.500000, 8169.000000, 8157.500000, 8149.500000
2657, 15296056.000000, 1283.750000, 8168.500000, 8153.500000, 8145.000000
2658, 15296216.000000, 1352.625000, 8166.500000, 8151.000000, 8139.500000
2659, 15296376.000000, 1657.875000, 8164.000000, 8150.000000, 8137.000000
2660, 15296536.000000, 2176.250000, 8162.500000, 8151.000000, 8136.500000
2661, 15296696.000000, 2729.875000, 8165.000000, 8151.500000, 8138.500000
2662, 15296856.000000, 3084.375000, 8166.000000, 8152.000000, 8138.000000
2663, 15297016.000000, 3181.750000, 8165.000000, 8154.000000, 8139.000000
2664, 15297176.000000, 3068.125000, 8166.500000, 8156.500000, 8142.000000
2665, 15297336.000000, 2880.625000, 8169.500000, 8157.000000, 8144.500000
2666, 15297496.000000, 2712.625000, 8166.500000, 8158.500000, 8147.000000
2667, 15297656.000000, 2586.750000, 8173.500000, 8171.500000, 8153.500000
2668, 15297816.000000, 2465.375000, 8181.000000, 8162.500000, 8152.500000
2669, 15297976.000000, 2316.875000, 8178.000000, 8165.500000, 8156.500000
2670, 15298136.000000, 2176.375000, 8170.500000, 8163.000000, 8151.000000
2671, 15298296.000000, 2089.875000, 8172.500000, 8165.000000, 8155.500000
2672, 15298456.000000, 2076.500000, 8172.500000, 8167.000000, 8158.500000
2673, 15298616.000000, 2090.375000, 8245.500000, 8255.500000, 8285.000000
2674, 15298776.000000, 2089.000000, 8561.500000, 8044.500000, 8240.000000
2675, 15298936.000000, 2047.875000, 8044.500000, 8030.500000, 7965.500000
2676, 15299096.000000, 1967.000000, 8097.000000, 8145.000000, 8064.000000
2677, 15299256.000000, 1861.500000, 8171.500000, 8222.000000, 8212.000000
2678, 15299416.000000, 1750.875000, 8185.500000, 8230.500000, 8231.000000
2679, 15299576.000000, 1649.750000, 8194.000000, 8237.500000, 8243.500000
2680, 15299736.000000, 1565.750000, 8199.500000, 8245.500000, 8253.500000
2681, 15299896.000000, 1500.875000, 8209.000000, 8257.000000, 8269.500000
2682, 15300056.000000, 1454.750000, 8219.000000, 8270.500000, 8288.500000
2683, 15300216.000000, 1427.125000, 8231.000000, 8292.000000, 8316.000000
2684, 15300376.000000, 1407.750000, 8243.000000, 8316.000000, 8346.000000
2685, 15300536.000000, 1396.500000, 8253.000000, 8330.000000, 8364.000000
2686, 15300696.000000, 1385.125000, 8253.000000, 8326.500000, 8358.500000
2687, 15300856.000000, 1368.875000, 8248.500000, 8303.000000, 8333.500000
2688, 15301016.000000, 1349.375000, 8223.000000, 8254.000000, 8276.500000
2689, 15301176.000000, 1334.750000, 8185.500000, 8201.000000, 8205.500000
2690, 15301336.000000, 1323.250000, 8168.000000, 8170.000000, 8163.000000
2691, 15301496.000000, 1321.000000, 8163.000000, 8161.500000, 8151.500000
2692, 15301656.000000, 1317.125000, 8167.000000, 8160.500000, 8151.500000
2693, 15301816.000000, 1300.000000, 8167.000000, 8160.000000, 8151.000000
2694, 15301976.000000, 1264.875000, 8168.000000, 8159.000000, 8150.000000
2695, 15302136.000000, 1210.125000, 8170.000000, 8157.500000, 8148.500000
2696, 15302296.000000, 1160.250000, 8167.000000, 8153.500000, 8142.500000
2697, 15302456.000000, 1213.375000, 8166.000000, 8152.000000, 8140.000000
2698, 15302616.000000, 1498.750000, 8164.000000, 8152.000000, 8139.000000
2699, 15302776.000000, 2006.875000, 8162.000000, 8152.000000, 8137.000000
2700, 15302936.000000, 2548.250000, 8162.500000, 8152.000000, 8136.500000
2701, 15303096.000000, 2903.375000, 8163.000000, 8152.500000, 8137.500000
2702, 15303256.000000, 2984.750000, 8164.500000, 8154.000000, 8140.000000
2703, 15303416.000000, 2860.875000, 8161.500000, 8157.500000, 8141.500000
2704, 15303576.000000, 2641.500000, 8165.000000, 8165.500000, 8139.500000
2705, 15303736.000000, 2430.625000, 8176.500000, 8160.500000, 8147.500000
2706, 15303896.000000, 2267.250000, 8173.500000, 8164.000000, 8153.000000
2707, 15304056.000000, 2117.625000, 8168.000000, 8161.000000, 8148.000000
2708, 15304216.000000, 1961.500000, 8169.000000, 8163.500000, 8153.500000
2709, 15304376.000000, 1830.625000, 8168.000000, 8167.000000, 8156.500000
2710, 15304536.000000, 1778.875000, 8260.500000, 8250.500000, 8283.000000
2711, 15304696.000000, 1795.375000, 8518.500000, 8105.500000, 8282.000000
2712, 15304856.000000, 1829.125000, 8042.500000, 8080.000000, 8032.500000
2713, 15305016.000000, 1841.125000, 8090.500000, 8131.000000, 8047.500000
2714, 15305176.000000, 1811.500000, 8165.500000, 8208.500000, 8192.500000
2715, 15305336.000000, 1745.875000, 8185.000000, 8217.500000, 8214.500000
2716, 15305496.000000, 1654.625000, 8194.000000, 8225.000000, 8227.500000
2717, 15305656.000000, 1551.125000, 8201.000000, 8231.500000, 8236.500000
2718, 15305816.000000, 1454.500000, 8210.500000, 8244.000000, 8253.500000
2719, 15305976.000000, 1380.000000, 8219.000000, 8260.000000, 8275.000000
2720, 15306136.000000, 1337.500000, 8231.500000, 8279.000000, 8300.500000
2721, 15306296.000000, 1316.750000, 8247.000000, 8300.000000, 8327.500000
2722, 15306456.000000, 1305.500000, 8256.000000, 8310.000000, 8341.500000
2723, 15306616.000000, 1291.875000, 8254.500000, 8304.000000, 8332.500000
2724, 15306776.000000, 1271.250000, 8246.500000, 8281.500000, 8308.500000
2725, 15306936.000000, 1243.500000, 8214.500000, 8241.500000, 8258.500000
2726, 15307096.000000, 1218.250000, 8177.000000, 8198.000000, 8198.000000
2727, 15307256.000000, 1196.875000, 8159.000000, 8171.000000, 8160.000000
2728, 15307416.000000, 1184.250000, 8155.500000, 8164.000000, 8149.000000
2729, 15307576.000000, 1181.125000, 8159.000000, 8165.500000, 8152.500000
2730, 15307736.000000, 1178.875000, 8163.000000, 8166.000000, 8155.000000
2731, 15307896.000000, 1167.750000, 8164.500000, 8163.500000, 8152.500000
2732, 15308056.000000, 1140.750000, 8165.500000, 8161.000000, 8150.500000
2733, 15308216.000000, 1103.750000, 8160.500000, 8158.000000, 8143.500000
2734, 15308376.000000, 1122.750000, 8161.000000, 8157.000000, 8141.500000
2735, 15308536.000000, 1291.500000, 8160.000000, 8155.000000, 8139.000000
2736, 15308696.000000, 1704.500000, 8162.000000, 8155.000000, 8140.000000
2737, 15308856.000000, 2234.625000, 8160.000000, 8155.500000, 8139.500000
2738, 15309016.000000, 2678.125000, 8161.000000, 8157.500000, 8140.500000
2739, 15309176.000000, 2877.875000, 8161.000000, 8159.000000, 8142.000000
2740, 15309336.000000, 2838.625000, 8158.000000, 8158.000000, 8142.500000
2741, 15309496.000000, 2652.750000, 8166.500000, 8174.000000, 8161.500000
2742, 15309656.000000, 2431.125000, 8168.000000, 8163.000000, 8145.500000
2743, 15309816.000000, 2231.375000, 8175.500000, 8164.500000, 8152.000000
2744, 15309976.000000, 2052.750000, 8162.000000, 8165.500000, 8150.500000
2745, 15310136.000000, 1882.250000, 8163.000000, 8167.000000, 8153.000000
2746, 15310296.000000, 1744.625000, 8164.500000, 8168.500000, 8156.500000
2747, 15310456.000000, 1687.250000, 8155.500000, 8215.500000, 8210.500000
2748, 15310616.000000, 1708.875000, 8499.000000, 8167.000000, 8317.500000
2749, 15310776.000000, 1767.875000, 8158.000000, 8008.500000, 8036.000000
2750, 15310936.000000, 1813.750000, 8048.500000, 8069.000000, 7971.500000
2751, 15311096.000000, 1821.375000, 8132.000000, 8193.000000, 8150.500000
2752, 15311256.000000, 1784.125000, 8170.500000, 8225.500000, 8217.500000
2753, 15311416.000000, 1719.750000, 8181.000000, 8231.500000, 8229.500000
2754, 15311576.000000, 1640.250000, 8186.000000, 8238.500000, 8238.500000
2755, 15311736.000000, 1560.750000, 8196.000000, 8250.500000, 8256.500000
2756, 15311896.000000, 1487.875000, 8204.000000, 8264.500000, 8275.500000
2757, 15312056.000000, 1427.750000, 8216.000000, 8284.000000, 8302.000000
2758, 15312216.000000, 1377.250000, 8227.000000, 8309.500000, 8333.500000
2759, 15312376.000000, 1335.000000, 8238.500000, 8332.000000, 8361.000000
2760, 15312536.000000, 1296.375000, 8245.000000, 8337.500000, 8369.500000
2761, 15312696.000000, 1264.375000, 8245.000000, 8323.500000, 8354.000000
2762, 15312856.000000, 1242.375000, 8228.000000, 8279.500000, 8303.500000
2763, 15313016.000000, 1227.625000, 8195.500000, 8222.500000, 8232.500000
2764, 15313176.000000, 1222.000000, 8164.500000, 8179.000000, 8171.000000
2765, 15313336.000000, 1223.875000, 8155.500000, 8162.000000, 8148.000000
2766, 15313496.000000, 1227.750000, 8158.000000, 8159.000000, 8146.000000
2767, 15313656.000000, 1231.000000, 8161.000000, 8160.000000, 8149.000000
2768, 15313816.000000, 1221.125000, 8162.000000, 8160.000000, 8149.000000
2769, 15313976.000000, 1197.625000, 8162.000000, 8159.000000, 8148.000000
2770, 15314136.000000, 1152.125000, 8164.500000, 8156.000000, 8146.000000
2771, 15314296.000000, 1127.875000, 8163.000000, 8153.000000, 8141.000000
2772, 15314456.000000, 1248.875000, 8162.000000, 8151.500000, 8139.000000
2773, 15314616.000000, 1636.250000, 8162.000000, 8151.000000, 8138.000000
2774, 15314776.000000, 2229.125000, 8160.000000, 8152.000000, 8137.000000
2775, 15314936.000000, 2805.125000, 8161.000000, 8152.000000, 8137.000000
2776, 15315096.000000, 3127.625000, 8163.000000, 8153.000000, 8139.000000
2777, 15315256.000000, 3177.500000, 8162.500000, 8154.000000, 8140.500000
2778, 15315416.000000, 3020.750000, 8163.500000, 8156.000000, 8143.500000
2779, 15315576.000000, 2794.500000, 8165.000000, 8167.500000, 8155.000000
2780, 15315736.000000, 2588.000000, 8164.500000, 8163.000000, 8141.000000
2781, 15315896.000000, 2424.625000, 8176.000000, 8161.500000, 8148.500000
2782, 15316056.000000, 2268.250000, 8168.500000, 8162.500000, 8148.500000
2783, 15316216.000000, 2103.250000, 8166.000000, 8161.500000, 8147.500000
2784, 15316376.000000, 1967.250000, 8166.000000, 8166.000000, 8154.000000
2785, 15316536.000000, 1903.500000, 8159.000000, 8187.000000, 8178.500000
2786, 15316696.000000, 1914.250000, 8386.500000, 8224.500000, 8323.000000
2787, 15316856.000000, 1949.375000, 8378.000000, 7936.500000, 8060.500000
2788, 15317016.000000, 1964.875000, 8039.500000, 8028.000000, 7926.500000
2789, 15317176.000000, 1940.000000, 8124.000000, 8187.500000, 8134.500000
2790, 15317336.000000, 1873.250000, 8171.000000, 8229.500000, 8223.000000
2791, 15317496.000000, 1780.000000, 8181.000000, 8236.000000, 8236.000000
2792, 15317656.000000, 1670.500000, 8188.000000, 8242.000000, 8244.500000
2793, 15317816.000000, 1564.125000, 8196.500000, 8252.500000, 8259.500000
2794, 15317976.000000, 1477.125000, 8204.000000, 8266.500000, 8277.500000
2795, 15318136.000000, 1418.500000, 8212.000000, 8286.000000, 8302.500000
2796, 15318296.000000, 1383.250000, 8226.500000, 8312.000000, 8337.000000
2797, 15318456.000000, 1362.000000, 8239.000000, 8338.500000, 8370.500000
2798, 15318616.000000, 1342.000000, 8244.500000, 8350.500000, 8385.500000
2799, 15318776.000000, 1322.000000, 8241.000000, 8342.000000, 8376.000000
2800, 15318936.000000, 1302.375000, 8229.500000, 8301.000000, 8328.000000
2801, 15319096.000000, 1287.625000, 8202.500000, 8232.500000, 8246.500000
2802, 15319256.000000, 1277.500000, 8173.500000, 8179.000000, 8174.000000
2803, 15319416.000000, 1264.750000, 8160.000000, 8159.000000, 8144.000000
2804, 15319576.000000, 1251.750000, 8158.500000, 8156.000000, 8140.000000
2805, 15319736.000000, 1238.625000, 8161.000000, 8157.000000, 8144.000000
2806, 15319896.000000, 1219.625000, 8165.500000, 8157.000000, 8146.500000
2807, 15320056.000000, 1193.500000, 8167.500000, 8156.000000, 8146.000000
2808, 15320216.000000, 1150.250000, 8167.000000, 8154.000000, 8143.000000
2809, 15320376.000000, 1125.875000, 8166.000000, 8151.500000, 8138.500000
2810, 15320536.000000, 1222.750000, 8162.500000, 8149.500000, 8133.000000
2811, 15320696.000000, 1590.250000, 8164.000000, 8148.000000, 8133.000000
2812, 15320856.000000, 2185.750000, 8163.000000, 8147.000000, 8131.000000
2813, 15321016.000000, 2796.500000, 8163.000000, 8148.500000, 8132.500000
2814, 15321176.000000, 3172.750000, 8164.000000, 8150.000000, 8135.000000
2815, 15321336.000000, 3263.375000, 8165.000000, 8152.500000, 8137.500000
2816, 15321496.000000, 3132.500000, 8165.000000, 8154.000000, 8139.000000
2817, 15321656.000000, 2929.250000, 8165.500000, 8154.000000, 8140.500000
2818, 15321816.000000, 2748.500000, 8171.000000, 8166.500000, 8160.000000
2819, 15321976.000000, 2620.625000, 8171.500000, 8164.000000, 8147.500000
2820, 15322136.000000, 2508.125000, 8180.500000, 8161.000000, 8148.500000
2821, 15322296.000000, 2363.625000, 8171.500000, 8162.500000, 8149.000000
2822, 15322456.000000, 2206.250000, 8172.000000, 8161.500000, 8149.500000
2823, 15322616.000000, 2085.875000, 8172.000000, 8164.000000, 8152.000000
2824, 15322776.000000, 2036.000000, 8163.000000, 8194.500000, 8189.500000
2825, 15322936.000000, 2026.250000, 8432.500000, 8197.500000, 8315.000000
2826, 15323096.000000, 2021.750000, 8303.500000, 7930.500000, 8019.000000
2827, 15323256.000000, 1991.000000, 8047.000000, 8032.000000, 7926.000000
2828, 15323416.000000, 1927.625000, 8139.000000, 8193.500000, 8150.500000
2829, 15323576.000000, 1832.250000, 8177.000000, 8229.500000, 8224.500000
2830, 15323736.000000, 1718.750000, 8187.000000, 8236.000000, 8236.000000
2831, 15323896.000000, 1607.375000, 8196.000000, 8242.000000, 8246.000000
2832, 15324056.000000, 1510.875000, 8204.000000, 8251.500000, 8259.500000
2833, 15324216.000000, 1435.375000, 8211.000000, 8267.000000, 8279.000000
2834, 15324376.000000, 1377.500000, 8220.500000, 8287.500000, 8306.500000
2835, 15324536.000000, 1334.000000, 8233.000000, 8313.000000, 8339.500000
2836, 15324696.000000, 1304.000000, 8247.000000, 8337.000000, 8369.000000
2837, 15324856.000000, 1285.875000, 8253.000000, 8347.000000, 8383.000000
2838, 15325016.000000, 1276.875000, 8250.500000, 8337.000000, 8371.000000
2839, 15325176.000000, 1271.250000, 8238.500000, 8297.000000, 8327.000000
2840, 15325336.000000, 1266.625000, 8209.000000, 8230.500000, 8245.000000
2841, 15325496.000000, 1261.375000, 8179.000000, 8176.000000, 8172.500000
2842, 15325656.000000, 1250.750000, 8169.000000, 8155.500000, 8144.500000
2843, 15325816.000000, 1231.125000, 8165.000000, 8153.000000, 8140.000000
2844, 15325976.000000, 1203.875000, 8167.000000, 8154.000000, 8141.000000
2845, 15326136.000000, 1175.500000, 8169.000000, 8156.000000, 8145.000000
2846, 15326296.000000, 1144.125000, 8173.000000, 8152.500000, 8143.500000
2847, 15326456.000000, 1107.000000, 8172.500000, 8150.000000, 8139.500000
2848, 15326616.000000, 1081.750000, 8171.000000, 8148.000000, 8135.500000
2849, 15326776.000000, 1171.250000, 8167.500000, 8147.000000, 8134.000000
2850, 15326936.000000, 1516.625000, 8170.000000, 8145.000000, 8132.000000
2851, 15327096.000000, 2101.875000, 8171.000000, 8144.500000, 8133.500000
2852, 15327256.000000, 2709.125000, 8172.000000, 8146.000000, 8134.000000
2853, 15327416.000000, 3103.000000, 8172.000000, 8148.000000, 8136.000000
2854, 15327576.000000, 3193.750000, 8172.500000, 8150.000000, 8138.500000
2855, 15327736.000000, 3069.875000, 8172.000000, 8151.000000, 8139.000000
2856, 15327896.000000, 2857.750000, 8172.000000, 8154.000000, 8142.000000
2857, 15328056.000000, 2666.500000, 8172.500000, 8152.500000, 8142.000000
2858, 15328216.000000, 2530.000000, 8178.000000, 8164.000000, 8155.000000
2859, 15328376.000000, 2403.625000, 8181.500000, 8162.500000, 8153.000000
2860, 15328536.000000, 2250.875000, 8186.000000, 8159.500000, 8152.500000
2861, 15328696.000000, 2086.000000, 8176.000000, 8159.000000, 8148.000000
2862, 15328856.000000, 1969.750000, 8174.500000, 8160.000000, 8149.500000
2863, 15329016.000000, 1924.125000, 8177.000000, 8163.500000, 8154.500000
2864, 15329176.000000, 1926.875000, 8170.000000, 8220.000000, 8219.500000
2865, 15329336.000000, 1929.375000, 8549.000000, 8153.000000, 8324.000000
2866, 15329496.000000, 1903.875000, 8114.500000, 8064.000000, 8076.500000
2867, 15329656.000000, 1838.875000, 8068.000000, 8083.500000, 7999.000000
2868, 15329816.000000, 1746.250000, 8140.000000, 8177.000000, 8131.500000
2869, 15329976.000000, 1638.500000, 8182.000000, 8212.500000, 8207.000000
2870, 15330136.000000, 1528.250000, 8194.500000, 8219.000000, 8221.500000
2871, 15330296.000000, 1433.250000, 8202.500000, 8225.500000, 8231.500000
2872, 15330456.000000, 1361.375000, 8211.000000, 8234.000000, 8242.000000
2873, 15330616.000000, 1313.125000, 8219.000000, 8246.000000, 8259.000000
2874, 15330776.000000, 1281.250000, 8230.500000, 8263.000000, 8282.500000
2875, 15330936.000000, 1256.250000, 8245.000000, 8284.000000, 8310.500000
2876, 15331096.000000, 1234.000000, 8258.500000, 8302.500000, 8334.000000
2877, 15331256.000000, 1214.000000, 8263.500000, 8305.000000, 8337.500000
2878, 15331416.000000, 1195.750000, 8261.500000, 8295.000000, 8326.500000
2879, 15331576.000000, 1182.625000, 8242.000000, 8267.000000, 8292.500000
2880, 15331736.000000, 1166.375000, 8206.000000, 8223.000000, 8234.500000
2881, 15331896.000000, 1148.875000, 8174.000000, 8183.500000, 8179.000000
2882, 15332056.000000, 1134.500000, 8164.500000, 8165.000000, 8156.000000
2883, 15332216.000000, 1126.375000, 8162.500000, 8162.500000, 8152.000000
2884, 15332376.000000, 1118.250000, 8166.000000, 8163.000000, 8153.000000
2885, 15332536.000000, 1109.625000, 8169.500000, 8164.000000, 8156.500000
2886, 15332696.000000, 1091.875000, 8170.000000, 8161.500000, 8154.000000
2887, 15332856.000000, 1059.000000, 8169.500000, 8159.000000, 8149.500000
2888, 15333016.000000, 1021.000000, 8165.500000, 8157.000000, 8145.500000
2889, 15333176.000000, 1069.125000, 8164.000000, 8156.000000, 8143.000000
2890, 15333336.000000, 1343.500000, 8162.000000, 8155.000000, 8142.000000
2891, 15333496.000000, 1880.500000, 8163.000000, 8154.500000, 8140.500000
2892, 15333656.000000, 2487.625000, 8162.500000, 8156.500000, 8142.000000
2893, 15333816.000000, 2928.125000, 8163.000000, 8157.500000, 8143.500000
2894, 15333976.000000, 3071.875000, 8162.500000, 8159.000000, 8144.500000
2895, 15334136.000000, 2979.875000, 8161.000000, 8158.500000, 8143.500000
2896, 15334296.000000, 2767.875000, 8169.500000, 8171.000000, 8160.500000
2897, 15334456.000000, 2553.000000, 8172.500000, 8164.500000, 8151.000000
2898, 15334616.000000, 2381.750000, 8175.000000, 8165.000000, 8153.000000
2899, 15334776.000000, 2227.750000, 8165.500000, 8164.500000, 8149.000000
2900, 15334936.000000, 2070.125000, 8164.000000, 8167.000000, 8152.000000
2901, 15335096.000000, 1933.000000, 8168.500000, 8167.500000, 8157.000000
2902, 15335256.000000, 1866.625000, 8161.500000, 8226.000000, 8223.000000
2903, 15335416.000000, 1870.875000, 8537.000000, 8149.000000, 8319.000000
2904, 15335576.000000, 1897.000000, 8103.500000, 8025.000000, 8024.500000
2905, 15335736.000000, 1900.625000, 8055.500000, 8079.500000, 7984.000000
2906, 15335896.000000, 1865.375000, 8140.500000, 8195.000000, 8158.000000
2907, 15336056.000000, 1792.250000, 8174.000000, 8221.500000, 8215.000000
2908, 15336216.000000, 1699.000000, 8185.000000, 8228.500000, 8228.500000
2909, 15336376.000000, 1600.750000, 8189.000000, 8236.500000, 8237.500000
2910, 15336536.000000, 1513.375000, 8199.500000, 8247.500000, 8254.500000
2911, 15336696.000000, 1448.625000, 8207.500000, 8261.500000, 8273.000000
2912, 15336856.000000, 1409.875000, 8219.500000, 8281.500000, 8300.000000
2913, 15337016.000000, 1391.625000, 8231.500000, 8307.500000, 8331.000000
2914, 15337176.000000, 1383.250000, 8244.500000, 8330.000000, 8361.000000
2915, 15337336.000000, 1378.250000, 8248.000000, 8333.500000, 8365.500000
2916, 15337496.000000, 1371.125000, 8246.000000, 8318.000000, 8347.000000
2917, 15337656.000000, 1354.875000, 8229.000000, 8275.000000, 8298.500000
2918, 15337816.000000, 1332.250000, 8193.500000, 8218.500000, 8226.500000
2919, 15337976.000000, 1309.125000, 8165.500000, 8178.000000, 8170.000000
2920, 15338136.000000, 1283.625000, 8158.000000, 8162.500000, 8149.500000
2921, 15338296.000000, 1259.250000, 8158.500000, 8160.500000, 8146.500000
2922, 15338456.000000, 1234.625000, 8160.000000, 8161.000000, 8148.000000
2923, 15338616.000000, 1214.000000, 8164.000000, 8161.000000, 8150.000000
2924, 15338776.000000, 1191.125000, 8167.000000, 8160.500000, 8149.500000
2925, 15338936.000000, 1153.125000, 8167.000000, 8157.000000, 8146.000000
2926, 15339096.000000, 1109.875000, 8163.000000, 8154.500000, 8140.500000
2927, 15339256.000000, 1135.000000, 8162.000000, 8153.000000, 8138.000000
2928, 15339416.000000, 1391.500000, 8161.000000, 8153.000000, 8138.000000
2929, 15339576.000000, 1892.125000, 8162.000000, 8155.000000, 8140.000000
2930, 15339736.000000, 2495.625000, 8164.000000, 8155.500000, 8140.500000
2931, 15339896.000000, 2943.125000, 8164.000000, 8156.000000, 8141.000000
2932, 15340056.000000, 3127.375000, 8165.000000, 8156.500000, 8141.500000
2933, 15340216.000000, 3067.875000, 8166.000000, 8159.500000, 8145.500000
2934, 15340376.000000, 2883.875000, 8167.000000, 8162.000000, 8149.000000
2935, 15340536.000000, 2682.500000, 8165.500000, 8165.000000, 8153.000000
2936, 15340696.000000, 2521.250000, 8169.500000, 8173.000000, 8151.500000
2937, 15340856.000000, 2378.250000, 8180.500000, 8165.000000, 8153.500000
2938, 15341016.000000, 2221.625000, 8177.000000, 8168.000000, 8157.500000
2939, 15341176.000000, 2071.000000, 8169.500000, 8166.000000, 8152.500000
2940, 15341336.000000, 1976.875000, 8171.500000, 8166.500000, 8155.000000
2941, 15341496.000000, 1958.875000, 8172.500000, 8172.500000, 8164.000000
2942, 15341656.000000, 1983.500000, 8284.000000, 8260.500000, 8306.000000
2943, 15341816.000000, 2000.750000, 8528.000000, 7981.000000, 8167.000000
2944, 15341976.000000, 1974.875000, 8043.000000, 8019.000000, 7933.000000
2945, 15342136.000000, 1904.500000, 8110.000000, 8166.500000, 8096.000000
2946, 15342296.000000, 1793.625000, 8172.000000, 8228.000000, 8219.000000
2947, 15342456.000000, 1665.625000, 8186.000000, 8235.500000, 8234.500000
2948, 15342616.000000, 1540.375000, 8193.500000, 8241.500000, 8245.500000
2949, 15342776.000000, 1436.625000, 8198.000000, 8251.500000, 8258.500000
2950, 15342936.000000, 1365.750000, 8206.000000, 8265.500000, 8277.500000
2951, 15343096.000000, 1320.750000, 8214.500000, 8283.500000, 8300.500000
2952, 15343256.000000, 1296.375000, 8228.500000, 8307.500000, 8332.500000
2953, 15343416.000000, 1280.625000, 8241.000000, 8336.000000, 8367.500000
2954, 15343576.000000, 1269.500000, 8249.000000, 8353.000000, 8390.000000
2955, 15343736.000000, 1259.500000, 8249.000000, 8349.000000, 8384.000000
2956, 15343896.000000, 1251.875000, 8240.000000, 8315.500000, 8345.500000
2957, 15344056.000000, 1242.500000, 8215.000000, 8250.500000, 8269.000000
2958, 15344216.000000, 1228.750000, 8186.000000, 8191.000000, 8193.000000
2959, 15344376.000000, 1213.750000, 8167.000000, 8161.500000, 8150.500000
2960, 15344536.000000, 1201.500000, 8162.500000, 8156.000000, 8141.500000
2961, 15344696.000000, 1191.500000, 8166.500000, 8157.000000, 8145.500000
2962, 15344856.000000, 1181.875000, 8168.000000, 8157.000000, 8146.000000
2963, 15345016.000000, 1170.750000, 8170.000000, 8157.000000, 8146.000000
2964, 15345176.000000, 1141.250000, 8169.000000, 8156.000000, 8144.000000
2965, 15345336.000000, 1092.500000, 8170.000000, 8153.000000, 8141.500000
2966, 15345496.000000, 1088.125000, 8170.000000, 8149.500000, 8136.500000
2967, 15345656.000000, 1254.750000, 8168.000000, 8147.000000, 8132.000000
2968, 15345816.000000, 1736.125000, 8169.500000, 8149.000000, 8136.500000
2969, 15345976.000000, 2386.750000, 8168.500000, 8150.000000, 8137.500000
2970, 15346136.000000, 2966.125000, 8168.000000, 8152.000000, 8139.000000
2971, 15346296.000000, 3262.875000, 8170.000000, 8152.000000, 8139.000000
2972, 15346456.000000, 3274.750000, 8171.000000, 8154.000000, 8141.000000
2973, 15346616.000000, 3109.875000, 8171.000000, 8157.000000, 8144.000000
2974, 15346776.000000, 2907.250000, 8172.000000, 8158.000000, 8146.000000
2975, 15346936.000000, 2746.875000, 8167.500000, 8157.000000, 8143.000000
2976, 15347096.000000, 2631.875000, 8178.000000, 8174.000000, 8166.000000
2977, 15347256.000000, 2511.750000, 8181.500000, 8164.000000, 8153.500000
2978, 15347416.000000, 2358.625000, 8184.000000, 8165.000000, 8154.000000
2979, 15347576.000000, 2207.875000, 8172.000000, 8163.500000, 8148.500000
2980, 15347736.000000, 2113.750000, 8174.000000, 8166.000000, 8155.000000
2981, 15347896.000000, 2083.625000, 8174.000000, 8167.500000, 8156.500000
2982, 15348056.000000, 2082.250000, 8168.000000, 8238.500000, 8239.500000
2983, 15348216.000000, 2066.375000, 8573.000000, 8116.500000, 8310.500000
2984, 15348376.000000, 2012.125000, 8097.500000, 7962.000000, 7942.500000
2985, 15348536.000000, 1921.250000, 8070.000000, 8089.500000, 7985.500000
2986, 15348696.000000, 1803.250000, 8159.500000, 8220.000000, 8198.500000
2987, 15348856.000000, 1677.250000, 8180.000000, 8235.500000, 8231.000000
2988, 15349016.000000, 1560.875000, 8188.000000, 8242.000000, 8242.000000
2989, 15349176.000000, 1462.500000, 8194.500000, 8250.500000, 8254.000000
2990, 15349336.000000, 1392.750000, 8200.500000, 8261.500000, 8268.500000
2991, 15349496.000000, 1347.875000, 8209.500000, 8276.000000, 8288.500000
2992, 15349656.000000, 1316.625000, 8220.000000, 8299.000000, 8317.000000
2993, 15349816.000000, 1297.875000, 8233.000000, 8327.500000, 8354.000000
2994, 15349976.000000, 1285.500000, 8244.000000, 8353.000000, 8385.500000
2995, 15350136.000000, 1276.375000, 8247.500000, 8357.500000, 8391.500000
2996, 15350296.000000, 1270.250000, 8244.000000, 8341.000000, 8372.500000
2997, 15350456.000000, 1262.500000, 8226.500000, 8287.000000, 8309.000000
2998, 15350616.000000, 1249.750000, 8196.500000, 8218.500000, 8224.500000
2999, 15350776.000000, 1229.250000, 8170.500000, 8173.500000, 8163.500000
3000, 15350936.000000, 1203.250000, 8161.500000, 8158.500000, 8142.500000
3001, 15351096.000000, 1181.000000, 8162.500000, 8156.500000, 8140.000000
3002, 15351256.000000, 1164.125000, 8165.500000, 8158.000000, 8143.500000
3003, 15351416.000000, 1151.625000, 8168.500000, 8158.000000, 8145.500000
3004, 15351576.000000, 1138.625000, 8168.500000, 8158.000000, 8145.500000
3005, 15351736.000000, 1107.875000, 8169.000000, 8154.500000, 8140.500000
3006, 15351896.000000, 1076.875000, 8169.500000, 8152.500000, 8139.000000
3007, 15352056.000000, 1136.625000, 8166.500000, 8150.000000, 8134.500000
3008, 15352216.000000, 1463.875000, 8165.000000, 8150.000000, 8133.500000
3009, 15352376.000000, 2043.375000, 8165.500000, 8152.000000, 8135.500000
3010, 15352536.000000, 2697.750000, 8165.000000, 8153.000000, 8134.500000
3011, 15352696.000000, 3153.375000, 8165.500000, 8154.000000, 8135.500000
3012, 15352856.000000, 3315.250000, 8167.000000, 8156.500000, 8139.500000
3013, 15353016.000000, 3226.250000, 8168.500000, 8158.000000, 8141.500000
3014, 15353176.000000, 3032.875000, 8168.000000, 8160.000000, 8143.000000
3015, 15353336.000000, 2843.500000, 8169.000000, 8160.000000, 8144.000000
3016, 15353496.000000, 2714.250000, 8170.000000, 8161.500000, 8144.500000
3017, 15353656.000000, 2610.375000, 8167.500000, 8160.500000, 8143.500000
3018, 15353816.000000, 2484.125000, 8176.500000, 8179.000000, 8166.000000
3019, 15353976.000000, 2322.250000, 8178.000000, 8169.000000, 8153.000000
3020, 15354136.000000, 2181.625000, 8183.500000, 8169.000000, 8155.500000
3021, 15354296.000000, 2109.375000, 8173.000000, 8166.000000, 8149.000000
3022, 15354456.000000, 2094.000000, 8173.500000, 8169.500000, 8154.500000
3023, 15354616.000000, 2090.500000, 8175.000000, 8172.000000, 8158.000000
3024, 15354776.000000, 2057.500000, 8166.000000, 8232.000000, 8229.000000
3025, 15354936.000000, 1988.250000, 8551.500000, 8136.000000, 8310.500000
3026, 15355096.000000, 1890.250000, 8120.500000, 7970.000000, 7964.500000
3027, 15355256.000000, 1780.625000, 8066.000000, 8078.000000, 7971.500000
3028, 15355416.000000, 1674.375000, 8155.500000, 8215.500000, 8186.500000
3029, 15355576.000000, 1584.125000, 8180.500000, 8235.500000, 8229.000000
3030, 15355736.000000, 1514.000000, 8191.000000, 8241.500000, 8240.000000
3031, 15355896.000000, 1464.125000, 8197.500000, 8247.000000, 8249.500000
3032, 15356056.000000, 1426.500000, 8201.000000, 8257.000000, 8262.000000
3033, 15356216.000000, 1395.625000, 8212.500000, 8272.000000, 8282.500000
3034, 15356376.000000, 1362.125000, 8222.000000, 8292.500000, 8308.500000
3035, 15356536.000000, 1327.750000, 8235.500000, 8317.000000, 8340.000000
3036, 15356696.000000, 1299.250000, 8248.000000, 8338.500000, 8368.500000
3037, 15356856.000000, 1276.000000, 8252.000000, 8345.500000, 8376.500000
3038, 15357016.000000, 1259.000000, 8248.000000, 8333.000000, 8362.500000
3039, 15357176.000000, 1240.875000, 8234.500000, 8291.000000, 8314.000000
3040, 15357336.000000, 1221.000000, 8206.000000, 8226.000000, 8233.500000
3041, 15357496.000000, 1200.125000, 8177.500000, 8174.500000, 8166.500000
3042, 15357656.000000, 1177.625000, 8169.000000, 8157.500000, 8143.500000
3043, 15357816.000000, 1154.125000, 8166.500000, 8156.000000, 8140.500000
3044, 15357976.000000, 1135.375000, 8169.000000, 8156.000000, 8142.000000
3045, 15358136.000000, 1120.625000, 8173.500000, 8155.500000, 8144.500000
3046, 15358296.000000, 1104.375000, 8174.000000, 8154.000000, 8145.000000
3047, 15358456.000000, 1079.625000, 8175.000000, 8151.000000, 8141.000000
3048, 15358616.000000, 1035.375000, 8174.000000, 8149.000000, 8138.000000
3049, 15358776.000000, 1047.500000, 8171.500000, 8148.000000, 8135.500000
3050, 15358936.000000, 1258.500000, 8169.000000, 8146.000000, 8132.000000
3051, 15359096.000000, 1763.000000, 8170.000000, 8146.000000, 8131.000000
3052, 15359256.000000, 2410.625000, 8171.500000, 8148.000000, 8135.500000
3053, 15359416.000000, 2941.375000, 8172.500000, 8148.500000, 8135.000000
3054, 15359576.000000, 3166.875000, 8171.000000, 8151.000000, 8138.000000
3055, 15359736.000000, 3123.125000, 8174.000000, 8152.000000, 8139.500000
3056, 15359896.000000, 2921.125000, 8175.000000, 8154.000000, 8142.000000
3057, 15360056.000000, 2700.375000, 8175.000000, 8155.500000, 8143.500000
3058, 15360216.000000, 2527.625000, 8178.000000, 8158.500000, 8148.500000
3059, 15360376.000000, 2392.500000, 8174.000000, 8157.000000, 8144.000000
3060, 15360536.000000, 2249.625000, 8182.500000, 8169.500000, 8152.500000
3061, 15360696.000000, 2084.250000, 8190.000000, 8164.000000, 8156.000000
3062, 15360856.000000, 1950.750000, 8193.500000, 8166.000000, 8161.500000
3063, 15361016.000000, 1886.000000, 8182.500000, 8164.500000, 8155.500000
3064, 15361176.000000, 1880.500000, 8183.000000, 8167.500000, 8160.500000
3065, 15361336.000000, 1886.000000, 8185.000000, 8167.500000, 8162.000000
3066, 15361496.000000, 1873.500000, 8193.000000, 8243.000000, 8250.500000
3067, 15361656.000000, 1827.875000, 8605.000000, 8134.500000, 8336.000000
3068, 15361816.000000, 1752.875000, 8074.000000, 8078.500000, 8063.500000
3069, 15361976.000000, 1658.000000, 8088.000000, 8103.000000, 8021.000000
3070, 15362136.000000, 1556.625000, 8164.000000, 8195.000000, 8169.500000
3071, 15362296.000000, 1461.500000, 8192.500000, 8215.500000, 8215.000000
3072, 15362456.000000, 1384.250000, 8204.000000, 8221.000000, 8227.000000
3073, 15362616.000000, 1327.500000, 8209.500000, 8228.000000, 8236.500000
3074, 15362776.000000, 1288.125000, 8219.500000, 8239.000000, 8252.500000
3075, 15362936.000000, 1257.375000, 8229.000000, 8251.500000, 8271.000000
3076, 15363096.000000, 1235.625000, 8240.000000, 8267.500000, 8291.500000
3077, 15363256.000000, 1216.750000, 8253.000000, 8289.000000, 8318.500000
3078, 15363416.000000, 1203.750000, 8263.500000, 8307.000000, 8341.500000
3079, 15363576.000000, 1192.375000, 8266.500000, 8308.000000, 8342.500000
3080, 15363736.000000, 1184.875000, 8264.000000, 8294.500000, 8327.500000
3081, 15363896.000000, 1177.500000, 8244.500000, 8261.500000, 8288.500000
3082, 15364056.000000, 1166.750000, 8208.000000, 8217.000000, 8229.500000
3083, 15364216.000000, 1147.125000, 8179.000000, 8182.000000, 8180.500000
3084, 15364376.000000, 1124.250000, 8170.000000, 8166.500000, 8159.500000
3085, 15364536.000000, 1101.125000, 8170.500000, 8163.500000, 8155.500000
3086, 15364696.000000, 1083.125000, 8174.000000, 8162.000000, 8157.000000
3087, 15364856.000000, 1073.375000, 8177.000000, 8162.000000, 8157.000000
3088, 15365016.000000, 1069.250000, 8178.000000, 8162.000000, 8156.000000
3089, 15365176.000000, 1057.000000, 8173.500000, 8159.500000, 8151.500000
3090, 15365336.000000, 1030.875000, 8173.000000, 8156.500000, 8147.500000
3091, 15365496.000000, 1028.875000, 8171.000000, 8154.000000, 8145.000000
3092, 15365656.000000, 1169.500000, 8172.000000, 8154.500000, 8144.500000
3093, 15365816.000000, 1573.500000, 8170.500000, 8155.500000, 8144.500000
3094, 15365976.000000, 2172.750000, 8171.000000, 8156.000000, 8145.500000
3095, 15366136.000000, 2734.375000, 8172.500000, 8158.000000, 8148.500000
3096, 15366296.000000, 3029.875000, 8172.000000, 8158.000000, 8148.000000
3097, 15366456.000000, 3053.750000, 8175.000000, 8158.500000, 8150.500000
3098, 15366616.000000, 2879.500000, 8175.000000, 8163.000000, 8155.000000
3099, 15366776.000000, 2638.250000, 8171.000000, 8161.000000, 8150.500000
3100, 15366936.000000, 2412.625000, 8179.000000, 8173.500000, 8157.500000
3101, 15367096.000000, 2223.000000, 8186.500000, 8164.500000, 8156.500000
3102, 15367256.000000, 2048.500000, 8186.500000, 8168.500000, 8165.000000
3103, 15367416.000000, 1891.125000, 8176.000000, 8167.500000, 8158.500000
3104, 15367576.000000, 1796.125000, 8177.000000, 8168.500000, 8161.500000
3105, 15367736.000000, 1783.250000, 8180.000000, 8170.000000, 8167.000000
3106, 15367896.000000, 1824.875000, 8216.000000, 8255.000000, 8275.000000
3107, 15368056.000000, 1868.250000, 8597.000000, 8093.000000, 8302.000000
3108, 15368216.000000, 1880.125000, 8056.000000, 8044.000000, 8002.500000
3109, 15368376.000000, 1853.000000, 8093.000000, 8127.000000, 8044.000000
3110, 15368536.000000, 1790.000000, 8173.500000, 8217.000000, 8208.000000
3111, 15368696.000000, 1699.875000, 8191.000000, 8228.000000, 8232.000000
3112, 15368856.000000, 1597.250000, 8199.000000, 8233.000000, 8240.500000
3113, 15369016.000000, 1498.625000, 8205.500000, 8242.500000, 8253.500000
3114, 15369176.000000, 1417.500000, 8213.000000, 8254.000000, 8269.000000
3115, 15369336.000000, 1358.500000, 8222.500000, 8269.500000, 8290.500000
3116, 15369496.000000, 1315.000000, 8234.000000, 8291.000000, 8317.000000
3117, 15369656.000000, 1277.750000, 8247.000000, 8317.500000, 8349.500000
3118, 15369816.000000, 1246.875000, 8258.000000, 8336.500000, 8375.500000
3119, 15369976.000000, 1223.000000, 8258.000000, 8334.500000, 8373.500000
3120, 15370136.000000, 1209.500000, 8252.000000, 8311.500000, 8345.500000
3121, 15370296.000000, 1201.375000, 8229.500000, 8260.000000, 8285.000000
3122, 15370456.000000, 1192.500000, 8195.500000, 8202.500000, 8211.500000
3123, 15370616.000000, 1180.625000, 8172.000000, 8167.000000, 8162.000000
3124, 15370776.000000, 1164.375000, 8164.000000, 8157.500000, 8146.500000
3125, 15370936.000000, 1145.000000, 8164.000000, 8157.000000, 8146.000000
3126, 15371096.000000, 1125.000000, 8169.500000, 8158.000000, 8149.500000
3127, 15371256.000000, 1105.875000, 8170.000000, 8158.000000, 8149.000000
3128, 15371416.000000, 1088.625000, 8171.000000, 8156.000000, 8147.500000
3129, 15371576.000000, 1061.625000, 8170.000000, 8156.000000, 8147.000000
3130, 15371736.000000, 1018.625000, 8168.000000, 8152.500000, 8141.500000
3131, 15371896.000000, 1012.625000, 8167.500000, 8152.000000, 8140.000000
3132, 15372056.000000, 1173.125000, 8165.500000, 8152.000000, 8138.500000
3133, 15372216.000000, 1615.750000, 8166.500000, 8153.500000, 8140.000000
3134, 15372376.000000, 2227.625000, 8166.500000, 8156.000000, 8142.500000
3135, 15372536.000000, 2776.250000, 8169.000000, 8156.500000, 8143.500000
3136, 15372696.000000, 3047.125000, 8169.500000, 8156.500000, 8145.000000
3137, 15372856.000000, 3057.125000, 8171.500000, 8158.500000, 8148.000000
3138, 15373016.000000, 2882.625000, 8171.000000, 8162.000000, 8151.500000
3139, 15373176.000000, 2655.375000, 8166.500000, 8162.000000, 8146.500000
3140, 15373336.000000, 2451.000000, 8176.000000, 8176.500000, 8159.000000
3141, 15373496.000000, 2288.500000, 8182.500000, 8164.500000, 8153.500000
3142, 15373656.000000, 2137.750000, 8183.500000, 8170.000000, 8163.500000
3143, 15373816.000000, 1984.500000, 8173.500000, 8168.000000, 8156.000000
3144, 15373976.000000, 1867.625000, 8175.500000, 8172.000000, 8162.500000
3145, 15374136.000000, 1821.875000, 8176.000000, 8174.000000, 8165.000000
3146, 15374296.000000, 1843.500000, 8203.000000, 8263.500000, 8278.500000
3147, 15374456.000000, 1877.750000, 8607.500000, 8067.000000, 8283.000000
3148, 15374616.000000, 1869.500000, 8052.500000, 8003.500000, 7946.000000
3149, 15374776.000000, 1808.625000, 8092.000000, 8141.500000, 8054.000000
3150, 15374936.000000, 1715.125000, 8172.000000, 8234.000000, 8225.000000
3151, 15375096.000000, 1596.375000, 8185.500000, 8244.500000, 8246.000000
3152, 15375256.000000, 1451.375000, 8193.000000, 8251.500000, 8255.500000
3153, 15375416.000000, 1349.750000, 8199.000000, 8259.500000, 8267.500000
3154, 15375576.000000, 1293.000000, 8207.000000, 8272.500000, 8284.500000
3155, 15375736.000000, 1260.375000, 8215.500000, 8291.000000, 8308.500000
3156, 15375896.000000, 1241.125000, 8228.500000, 8314.500000, 8339.000000
3157, 15376056.000000, 1227.625000, 8239.500000, 8343.500000, 8374.000000
3158, 15376216.000000, 1215.750000, 8248.500000, 8365.500000, 8402.000000
3159, 15376376.000000, 1203.500000, 8251.000000, 8368.500000, 8406.500000
3160, 15376536.000000, 1188.375000, 8245.000000, 8345.000000, 8379.000000
3161, 15376696.000000, 1169.000000, 8225.000000, 8284.000000, 8308.000000
3162, 15376856.000000, 1150.750000, 8194.500000, 8216.500000, 8221.500000
3163, 15377016.000000, 1135.750000, 8174.000000, 8179.500000, 8172.500000
3164, 15377176.000000, 1124.875000, 8166.000000, 8171.000000, 8157.000000
3165, 15377336.000000, 1119.250000, 8169.500000, 8171.000000, 8159.500000
3166, 15377496.000000, 1118.625000, 8172.000000, 8172.000000, 8162.000000
3167, 15377656.000000, 1111.625000, 8171.500000, 8172.000000, 8161.500000
3168, 15377816.000000, 1081.625000, 8175.000000, 8172.000000, 8164.000000
3169, 15377976.000000, 1051.500000, 8173.000000, 8170.000000, 8159.000000
3170, 15378136.000000, 1130.000000, 8175.000000, 8168.000000, 8158.000000
3171, 15378296.000000, 1475.250000, 8172.000000, 8166.000000, 8154.000000
3172, 15378456.000000, 2064.125000, 8171.000000, 8167.000000, 8154.000000
3173, 15378616.000000, 2683.750000, 8172.500000, 8168.000000, 8156.500000
3174, 15378776.000000, 3078.125000, 8172.000000, 8169.000000, 8156.000000
3175, 15378936.000000, 3189.500000, 8174.000000, 8170.000000, 8157.500000
3176, 15379096.000000, 3065.125000, 8174.000000, 8171.000000, 8158.000000
3177, 15379256.000000, 2851.250000, 8175.000000, 8172.000000, 8160.000000
3178, 15379416.000000, 2645.375000, 8176.000000, 8174.000000, 8163.000000
3179, 15379576.000000, 2493.750000, 8174.500000, 8173.500000, 8163.000000
3180, 15379736.000000, 2369.875000, 8183.500000, 8189.000000, 8185.500000
3181, 15379896.000000, 2235.000000, 8184.500000, 8179.500000, 8169.500000
3182, 15380056.000000, 2096.625000, 8190.000000, 8178.000000, 8170.000000
3183, 15380216.000000, 1999.625000, 8176.500000, 8176.000000, 8163.000000
3184, 15380376.000000, 1973.375000, 8178.000000, 8179.000000, 8169.000000
3185, 15380536.000000, 1985.125000, 8181.000000, 8181.000000, 8173.000000
3186, 15380696.000000, 2000.750000, 8170.500000, 8234.500000, 8235.500000
3187, 15380856.000000, 1985.500000, 8528.500000, 8160.000000, 8329.500000
3188, 15381016.000000, 1927.250000, 8159.500000, 7958.500000, 7976.000000
3189, 15381176.000000, 1828.375000, 8064.500000, 8077.000000, 7971.500000
3190, 15381336.000000, 1713.750000, 8160.500000, 8226.000000, 8201.500000
3191, 15381496.000000, 1604.250000, 8185.500000, 8246.500000, 8245.500000
3192, 15381656.000000, 1512.000000, 8195.000000, 8251.500000, 8257.500000
3193, 15381816.000000, 1446.750000, 8202.500000, 8260.500000, 8269.500000
3194, 15381976.000000, 1401.750000, 8208.000000, 8269.500000, 8281.500000
3195, 15382136.000000, 1369.500000, 8217.000000, 8285.000000, 8302.500000
3196, 15382296.000000, 1347.750000, 8227.500000, 8304.500000, 8329.000000
3197, 15382456.000000, 1335.500000, 8238.000000, 8332.500000, 8362.500000
3198, 15382616.000000, 1325.500000, 8248.000000, 8358.000000, 8394.000000
3199, 15382776.000000, 1315.500000, 8254.000000, 8364.500000, 8403.000000
3200, 15382936.000000, 1305.500000, 8250.000000, 8350.500000, 8386.500000
3201, 15383096.000000, 1295.500000, 8235.000000, 8299.500000, 8329.000000
3202, 15383256.000000, 1285.125000, 8207.500000, 8231.000000, 8246.500000
3203, 15383416.000000, 1269.750000, 8178.000000, 8181.500000, 8178.500000
3204, 15383576.000000, 1253.000000, 8167.000000, 8164.500000, 8151.500000
3205, 15383736.000000, 1235.750000, 8169.000000, 8163.000000, 8152.000000
3206, 15383896.000000, 1218.750000, 8172.000000, 8162.500000, 8152.500000
3207, 15384056.000000, 1200.125000, 8173.000000, 8162.500000, 8153.500000
3208, 15384216.000000, 1165.250000, 8175.500000, 8161.000000, 8153.500000
3209, 15384376.000000, 1118.125000, 8174.500000, 8159.000000, 8150.500000
3210, 15384536.000000, 1121.750000, 8173.500000, 8156.000000, 8144.000000
3211, 15384696.000000, 1335.250000, 8173.000000, 8154.500000, 8143.500000
3212, 15384856.000000, 1818.375000, 8170.000000, 8154.000000, 8141.000000
3213, 15385016.000000, 2446.500000, 8170.000000, 8155.500000, 8142.500000
3214, 15385176.000000, 2945.000000, 8170.500000, 8156.000000, 8144.000000
3215, 15385336.000000, 3181.625000, 8171.000000, 8157.000000, 8144.000000
3216, 15385496.000000, 3139.000000, 8171.000000, 8158.000000, 8145.000000
3217, 15385656.000000, 2950.875000, 8173.000000, 8160.000000, 8147.000000
3218, 15385816.000000, 2727.250000, 8173.000000, 8162.000000, 8149.000000
3219, 15385976.000000, 2552.500000, 8173.500000, 8164.000000, 8154.000000
3220, 15386136.000000, 2426.375000, 8173.500000, 8168.000000, 8157.000000
3221, 15386296.000000, 2305.250000, 8174.500000, 8173.000000, 8151.500000
3222, 15386456.000000, 2164.625000, 8189.000000, 8166.000000, 8159.000000
3223, 15386616.000000, 2040.375000, 8183.500000, 8169.500000, 8163.500000
3224, 15386776.000000, 1979.500000, 8177.000000, 8167.000000, 8156.500000
3225, 15386936.000000, 1968.875000, 8178.000000, 8168.000000, 8160.000000
3226, 15387096.000000, 1972.625000, 8178.500000, 8171.500000, 8165.000000
3227, 15387256.000000, 1956.375000, 8270.000000, 8258.000000, 8298.000000
3228, 15387416.000000, 1908.875000, 8544.500000, 8003.000000, 8198.000000
3229, 15387576.000000, 1828.375000, 8049.000000, 8017.000000, 7940.000000
3230, 15387736.000000, 1727.875000, 8111.000000, 8158.500000, 8085.000000
3231, 15387896.000000, 1620.375000, 8178.500000, 8228.500000, 8222.500000
3232, 15388056.000000, 1526.250000, 8191.500000, 8236.000000, 8238.500000
3233, 15388216.000000, 1451.375000, 8200.000000, 8241.500000, 8249.500000
3234, 15388376.000000, 1397.250000, 8205.000000, 8250.500000, 8260.000000
3235, 15388536.000000, 1357.750000, 8214.000000, 8260.500000, 8274.000000
3236, 15388696.000000, 1325.125000, 8223.000000, 8277.000000, 8296.500000
3237, 15388856.000000, 1296.375000, 8235.500000, 8299.500000, 8325.500000
3238, 15389016.000000, 1274.000000, 8247.500000, 8324.500000, 8357.500000
3239, 15389176.000000, 1256.750000, 8255.000000, 8340.500000, 8377.500000
3240, 15389336.000000, 1247.875000, 8257.000000, 8337.500000, 8373.500000
3241, 15389496.000000, 1241.250000, 8250.000000, 8311.000000, 8344.500000
3242, 15389656.000000, 1232.500000, 8226.000000, 8255.500000, 8278.000000
3243, 15389816.000000, 1220.625000, 8193.000000, 8195.500000, 8202.000000
3244, 15389976.000000, 1204.375000, 8174.000000, 8165.500000, 8159.000000
3245, 15390136.000000, 1188.625000, 8169.000000, 8157.500000, 8147.500000
3246, 15390296.000000, 1177.500000, 8172.000000, 8157.000000, 8147.000000
3247, 15390456.000000, 1167.500000, 8174.000000, 8156.000000, 8147.000000
3248, 15390616.000000, 1149.625000, 8176.000000, 8156.000000, 8148.500000
3249, 15390776.000000, 1116.125000, 8175.500000, 8155.000000, 8146.500000
3250, 15390936.000000, 1072.250000, 8176.500000, 8151.000000, 8142.000000
3251, 15391096.000000, 1116.750000, 8175.000000, 8149.500000, 8139.500000
3252, 15391256.000000, 1384.875000, 8171.000000, 8148.500000, 8135.500000
3253, 15391416.000000, 1909.750000, 8171.500000, 8149.000000, 8136.500000
3254, 15391576.000000, 2490.625000, 8172.000000, 8149.000000, 8137.000000
3255, 15391736.000000, 2907.000000, 8174.000000, 8150.500000, 8138.000000
3256, 15391896.000000, 3023.500000, 8173.500000, 8151.000000, 8139.000000
3257, 15392056.000000, 2926.125000, 8176.000000, 8153.000000, 8142.000000
3258, 15392216.000000, 2708.125000, 8169.500000, 8148.000000, 8132.500000
3259, 15392376.000000, 2481.875000, 8177.500000, 8163.500000, 8146.000000
3260, 15392536.000000, 2292.500000, 8179.500000, 8157.500000, 8141.500000
3261, 15392696.000000, 2133.625000, 8189.000000, 8158.000000, 8151.000000
3262, 15392856.000000, 1982.250000, 8178.000000, 8160.000000, 8149.000000
3263, 15393016.000000, 1851.750000, 8178.500000, 8163.000000, 8153.500000
3264, 15393176.000000, 1786.250000, 8178.000000, 8164.000000, 8155.000000
3265, 15393336.000000, 1789.875000, 8171.500000, 8191.000000, 8186.500000
3266, 15393496.000000, 1822.875000, 8455.500000, 8214.000000, 8335.000000
3267, 15393656.000000, 1841.625000, 8241.500000, 8088.500000, 8158.500000
3268, 15393816.000000, 1825.000000, 8062.500000, 8085.000000, 8013.000000
3269, 15393976.000000, 1768.500000, 8125.000000, 8163.000000, 8102.500000
3270, 15394136.000000, 1680.000000, 8184.000000, 8211.500000, 8204.500000
3271, 15394296.000000, 1576.250000, 8198.500000, 8217.000000, 8218.500000
3272, 15394456.000000, 1474.750000, 8206.000000, 8223.500000, 8229.500000
3273, 15394616.000000, 1390.750000, 8214.500000, 8232.500000, 8241.500000
3274, 15394776.000000, 1330.125000, 8222.000000, 8243.500000, 8256.500000
3275, 15394936.000000, 1285.000000, 8234.000000, 8258.500000, 8275.500000
3276, 15395096.000000, 1252.875000, 8247.000000, 8278.000000, 8301.500000
3277, 15395256.000000, 1227.125000, 8259.500000, 8297.000000, 8326.000000
3278, 15395416.000000, 1206.000000, 8269.000000, 8305.000000, 8337.000000
3279, 15395576.000000, 1188.750000, 8269.000000, 8296.500000, 8328.500000
3280, 15395736.000000, 1179.250000, 8253.000000, 8270.000000, 8295.500000
3281, 15395896.000000, 1174.250000, 8216.000000, 8228.500000, 8241.500000
3282, 15396056.000000, 1173.000000, 8179.500000, 8188.500000, 8185.500000
3283, 15396216.000000, 1173.000000, 8167.000000, 8167.500000, 8156.500000
3284, 15396376.000000, 1173.000000, 8164.500000, 8162.000000, 8149.000000
3285, 15396536.000000, 1170.250000, 8168.500000, 8163.000000, 8150.500000
3286, 15396696.000000, 1159.750000, 8171.500000, 8160.000000, 8149.500000
3287, 15396856.000000, 1140.250000, 8174.000000, 8161.000000, 8150.500000
3288, 15397016.000000, 1097.125000, 8171.000000, 8159.000000, 8148.000000
3289, 15397176.000000, 1043.375000, 8168.500000, 8156.000000, 8143.500000
3290, 15397336.000000, 1043.625000, 8169.000000, 8154.500000, 8142.500000
3291, 15397496.000000, 1236.875000, 8168.000000, 8154.000000, 8141.000000
3292, 15397656.000000, 1664.125000, 8167.000000, 8154.500000, 8139.500000
3293, 15397816.000000, 2205.125000, 8168.000000, 8155.000000, 8142.000000
3294, 15397976.000000, 2617.750000, 8170.000000, 8157.000000, 8144.000000
3295, 15398136.000000, 2795.875000, 8164.000000, 8152.500000, 8137.500000
3296, 15398296.000000, 2732.250000, 8171.500000, 8168.000000, 8150.500000
3297, 15398456.000000, 2547.500000, 8171.000000, 8159.500000, 8140.000000
3298, 15398616.000000, 2325.375000, 8180.000000, 8162.000000, 8151.000000
3299, 15398776.000000, 2119.875000, 8171.000000, 8162.500000, 8149.500000
3300, 15398936.000000, 1932.000000, 8170.000000, 8163.000000, 8152.000000
3301, 15399096.000000, 1759.250000, 8173.500000, 8165.000000, 8157.000000
3302, 15399256.000000, 1634.625000, 8165.000000, 8189.500000, 8183.000000
3303, 15399416.000000, 1590.500000, 8418.000000, 8219.500000, 8327.000000
3304, 15399576.000000, 1629.375000, 8301.000000, 8036.000000, 8131.000000
3305, 15399736.000000, 1693.875000, 8051.000000, 8064.500000, 7981.000000
3306, 15399896.000000, 1742.125000, 8121.500000, 8168.500000, 8108.000000
3307, 15400056.000000, 1748.500000, 8177.000000, 8217.500000, 8211.000000
3308, 15400216.000000, 1710.625000, 8185.500000, 8224.000000, 8222.000000
3309, 15400376.000000, 1638.000000, 8195.000000, 8232.000000, 8235.000000
3310, 15400536.000000, 1547.750000, 8201.500000, 8240.000000, 8245.500000
3311, 15400696.000000, 1456.375000, 8210.500000, 8252.000000, 8261.500000
3312, 15400856.000000, 1378.875000, 8222.500000, 8271.000000, 8288.500000
3313, 15401016.000000, 1320.500000, 8236.000000, 8295.500000, 8319.500000
3314, 15401176.000000, 1283.500000, 8249.000000, 8318.500000, 8348.500000
3315, 15401336.000000, 1258.125000, 8256.000000, 8325.000000, 8357.000000
3316, 15401496.000000, 1235.875000, 8253.000000, 8315.000000, 8345.000000
3317, 15401656.000000, 1211.125000, 8239.000000, 8281.000000, 8305.500000
3318, 15401816.000000, 1194.125000, 8205.500000, 8227.500000, 8239.500000
3319, 15401976.000000, 1184.375000, 8173.000000, 8180.500000, 8175.000000
3320, 15402136.000000, 1178.875000, 8161.500000, 8161.000000, 8147.000000
3321, 15402296.000000, 1170.500000, 8160.000000, 8156.000000, 8142.000000
3322, 15402456.000000, 1159.125000, 8164.000000, 8157.500000, 8144.500000
3323, 15402616.000000, 1144.750000, 8166.000000, 8157.500000, 8145.500000
3324, 15402776.000000, 1122.750000, 8167.500000, 8156.500000, 8144.500000
3325, 15402936.000000, 1078.500000, 8165.000000, 8154.000000, 8139.500000
3326, 15403096.000000, 1025.625000, 8166.000000, 8151.500000, 8137.500000
3327, 15403256.000000, 1029.375000, 8165.000000, 8150.000000, 8135.500000
3328, 15403416.000000, 1239.875000, 8163.000000, 8150.500000, 8134.500000
3329, 15403576.000000, 1680.125000, 8161.000000, 8151.000000, 8132.000000
3330, 15403736.000000, 2226.875000, 8162.500000, 8151.000000, 8134.500000
3331, 15403896.000000, 2642.250000, 8165.000000, 8152.000000, 8137.000000
3332, 15404056.000000, 2813.750000, 8162.000000, 8151.000000, 8134.500000
3333, 15404216.000000, 2763.250000, 8161.500000, 8160.500000, 8137.500000
3334, 15404376.000000, 2589.625000, 8166.000000, 8159.500000, 8135.500000
3335, 15404536.000000, 2388.875000, 8179.000000, 8159.000000, 8146.000000
3336, 15404696.000000, 2214.375000, 8171.000000, 8159.500000, 8146.500000
3337, 15404856.000000, 2061.625000, 8166.500000, 8160.000000, 8146.500000
3338, 15405016.000000, 1911.875000, 8169.500000, 8162.500000, 8151.000000
3339, 15405176.000000, 1784.500000, 8169.000000, 8169.000000, 8161.000000
3340, 15405336.000000, 1721.500000, 8298.000000, 8253.000000, 8306.000000
3341, 15405496.000000, 1741.875000, 8495.000000, 7990.000000, 8166.000000
3342, 15405656.000000, 1803.375000, 8042.000000, 8027.000000, 7943.000000
3343, 15405816.000000, 1855.125000, 8110.000000, 8162.500000, 8094.000000
3344, 15405976.000000, 1855.625000, 8172.500000, 8223.000000, 8215.500000
3345, 15406136.000000, 1809.250000, 8186.000000, 8228.000000, 8228.000000
3346, 15406296.000000, 1723.000000, 8192.500000, 8234.000000, 8237.500000
3347, 15406456.000000, 1616.500000, 8200.000000, 8243.500000, 8251.500000
3348, 15406616.000000, 1504.750000, 8206.000000, 8258.000000, 8268.500000
3349, 15406776.000000, 1396.125000, 8217.500000, 8276.000000, 8294.000000
3350, 15406936.000000, 1310.875000, 8229.500000, 8300.000000, 8323.000000
3351, 15407096.000000, 1255.250000, 8243.000000, 8327.000000, 8357.000000
3352, 15407256.000000, 1224.625000, 8250.500000, 8341.500000, 8375.500000
3353, 15407416.000000, 1207.750000, 8248.000000, 8335.000000, 8367.500000
3354, 15407576.000000, 1193.750000, 8238.500000, 8300.500000, 8328.500000
3355, 15407736.000000, 1177.750000, 8210.000000, 8237.500000, 8251.500000
3356, 15407896.000000, 1165.875000, 8180.000000, 8181.500000, 8179.000000
3357, 15408056.000000, 1159.250000, 8163.000000, 8157.500000, 8144.500000
3358, 15408216.000000, 1160.000000, 8159.500000, 8153.000000, 8137.500000
3359, 15408376.000000, 1161.875000, 8162.500000, 8153.000000, 8139.500000
3360, 15408536.000000, 1160.625000, 8166.000000, 8154.000000, 8142.000000
3361, 15408696.000000, 1149.875000, 8166.000000, 8153.000000, 8141.000000
3362, 15408856.000000, 1118.250000, 8166.500000, 8152.000000, 8139.500000
3363, 15409016.000000, 1070.375000, 8164.000000, 8149.500000, 8134.500000
3364, 15409176.000000, 1077.375000, 8164.000000, 8148.000000, 8133.000000
3365, 15409336.000000, 1272.500000, 8163.000000, 8146.000000, 8130.000000
3366, 15409496.000000, 1714.375000, 8160.500000, 8146.500000, 8129.000000
3367, 15409656.000000, 2262.000000, 8161.500000, 8147.000000, 8129.000000
3368, 15409816.000000, 2671.250000, 8162.000000, 8149.000000, 8132.000000
3369, 15409976.000000, 2843.500000, 8164.000000, 8150.500000, 8135.500000
3370, 15410136.000000, 2787.375000, 8158.000000, 8149.000000, 8124.000000
3371, 15410296.000000, 2617.500000, 8164.500000, 8159.000000, 8132.000000
3372, 15410456.000000, 2433.250000, 8177.000000, 8154.500000, 8141.000000
3373, 15410616.000000, 2289.375000, 8175.000000, 8160.000000, 8149.000000
3374, 15410776.000000, 2174.375000, 8165.000000, 8157.000000, 8142.000000
3375, 15410936.000000, 2047.000000, 8168.000000, 8159.000000, 8146.000000
3376, 15411096.000000, 1902.375000, 8172.000000, 8160.500000, 8150.500000
3377, 15411256.000000, 1789.375000, 8187.000000, 8247.000000, 8254.500000
3378, 15411416.000000, 1745.125000, 8600.000000, 8064.000000, 8277.000000
3379, 15411576.000000, 1749.250000, 8048.000000, 7985.500000, 7930.000000
3380, 15411736.000000, 1764.750000, 8085.000000, 8122.000000, 8031.000000
3381, 15411896.000000, 1756.000000, 8168.000000, 8220.500000, 8208.000000
3382, 15412056.000000, 1711.250000, 8183.500000, 8230.500000, 8229.000000
3383, 15412216.000000, 1637.125000, 8192.000000, 8237.000000, 8240.000000
3384, 15412376.000000, 1547.125000, 8200.500000, 8244.500000, 8251.000000
3385, 15412536.000000, 1456.375000, 8207.000000, 8256.500000, 8266.500000
3386, 15412696.000000, 1376.500000, 8216.500000, 8273.500000, 8289.000000
3387, 15412856.000000, 1312.875000, 8227.000000, 8296.500000, 8318.500000
3388, 15413016.000000, 1261.625000, 8240.000000, 8324.500000, 8352.500000
3389, 15413176.000000, 1225.625000, 8251.500000, 8343.000000, 8377.500000
3390, 15413336.000000, 1197.250000, 8253.000000, 8342.500000, 8376.500000
3391, 15413496.000000, 1177.750000, 8245.000000, 8317.500000, 8348.000000
3392, 15413656.000000, 1165.500000, 8218.500000, 8258.000000, 8276.500000
3393, 15413816.000000, 1156.375000, 8186.500000, 8196.000000, 8197.000000
3394, 15413976.000000, 1152.625000, 8164.500000, 8163.000000, 8149.000000
3395, 15414136.000000, 1149.125000, 8158.000000, 8153.500000, 8134.500000
3396, 15414296.000000, 1149.000000, 8161.500000, 8154.500000, 8138.500000
3397, 15414456.000000, 1149.000000, 8161.000000, 8156.000000, 8139.000000
3398, 15414616.000000, 1141.750000, 8164.500000, 8156.000000, 8142.000000
3399, 15414776.000000, 1119.500000, 8166.500000, 8154.000000, 8140.500000
3400, 15414936.000000, 1074.500000, 8165.000000, 8151.500000, 8136.500000
3401, 15415096.000000, 1051.375000, 8164.500000, 8149.000000, 8133.000000
3402, 15415256.000000, 1167.000000, 8162.000000, 8148.500000, 8131.500000
3403, 15415416.000000, 1528.500000, 8162.500000, 8148.000000, 8129.500000
3404, 15415576.000000, 2049.125000, 8165.000000, 8148.000000, 8131.000000
3405, 15415736.000000, 2527.625000, 8165.000000, 8148.500000, 8131.500000
3406, 15415896.000000, 2786.000000, 8166.000000, 8150.500000, 8134.500000
3407, 15416056.000000, 2817.125000, 8160.500000, 8147.500000, 8126.000000
3408, 15416216.000000, 2692.000000, 8170.000000, 8168.500000, 8146.500000
3409, 15416376.000000, 2529.000000, 8173.000000, 8156.000000, 8138.500000
3410, 15416536.000000, 2392.500000, 8181.000000, 8159.500000, 8149.500000
3411, 15416696.000000, 2293.625000, 8170.000000, 8157.500000, 8142.500000
3412, 15416856.000000, 2188.500000, 8169.500000, 8160.500000, 8147.000000
3413, 15417016.000000, 2045.500000, 8170.500000, 8163.000000, 8151.000000
3414, 15417176.000000, 1910.125000, 8161.500000, 8217.000000, 8214.000000
3415, 15417336.000000, 1821.250000, 8527.500000, 8143.000000, 8309.500000
3416, 15417496.000000, 1797.250000, 8130.000000, 7951.000000, 7957.000000
3417, 15417656.000000, 1797.875000, 8057.500000, 8063.500000, 7957.500000
3418, 15417816.000000, 1790.625000, 8152.000000, 8209.000000, 8182.500000
3419, 15417976.000000, 1751.625000, 8179.000000, 8229.500000, 8226.000000
3420, 15418136.000000, 1682.875000, 8186.500000, 8235.000000, 8234.500000
3421, 15418296.000000, 1588.875000, 8193.000000, 8240.500000, 8242.500000
3422, 15418456.000000, 1487.000000, 8199.000000, 8250.000000, 8256.000000
3423, 15418616.000000, 1397.125000, 8209.000000, 8265.000000, 8275.500000
3424, 15418776.000000, 1327.000000, 8220.000000, 8285.000000, 8301.000000
3425, 15418936.000000, 1276.250000, 8235.000000, 8311.500000, 8337.000000
3426, 15419096.000000, 1239.125000, 8246.500000, 8333.000000, 8364.500000
3427, 15419256.000000, 1210.375000, 8255.000000, 8340.000000, 8375.000000
3428, 15419416.000000, 1186.250000, 8246.500000, 8325.000000, 8354.500000
3429, 15419576.000000, 1162.125000, 8230.500000, 8275.500000, 8298.500000
3430, 15419736.000000, 1142.375000, 8194.500000, 8210.500000, 8215.500000
3431, 15419896.000000, 1125.750000, 8169.000000, 8168.000000, 8158.000000
3432, 15420056.000000, 1116.875000, 8158.000000, 8154.000000, 8136.500000
3433, 15420216.000000, 1116.750000, 8161.000000, 8153.000000, 8136.000000
3434, 15420376.000000, 1124.125000, 8163.000000, 8154.000000, 8138.000000
3435, 15420536.000000, 1127.875000, 8166.000000, 8153.500000, 8139.500000
3436, 15420696.000000, 1121.375000, 8168.500000, 8151.000000, 8138.500000
3437, 15420856.000000, 1097.500000, 8167.000000, 8150.500000, 8137.000000
3438, 15421016.000000, 1073.000000, 8169.000000, 8148.000000, 8134.000000
3439, 15421176.000000, 1122.000000, 8168.000000, 8145.500000, 8130.500000
3440, 15421336.000000, 1379.875000, 8169.000000, 8145.000000, 8129.000000
3441, 15421496.000000, 1836.500000, 8168.000000, 8146.500000, 8130.000000
3442, 15421656.000000, 2347.625000, 8168.000000, 8147.000000, 8130.000000
3443, 15421816.000000, 2695.875000, 8169.500000, 8148.000000, 8132.500000
3444, 15421976.000000, 2809.750000, 8161.500000, 8144.500000, 8118.500000
3445, 15422136.000000, 2733.875000, 8170.500000, 8154.000000, 8124.000000
3446, 15422296.000000, 2576.250000, 8181.500000, 8153.000000, 8139.500000
3447, 15422456.000000, 2426.750000, 8180.500000, 8158.000000, 8147.500000
3448, 15422616.000000, 2317.375000, 8173.000000, 8154.500000, 8141.000000
3449, 15422776.000000, 2211.875000, 8175.000000, 8156.000000, 8144.000000
3450, 15422936.000000, 2071.375000, 8178.000000, 8158.000000, 8148.000000
3451, 15423096.000000, 1919.250000, 8197.000000, 8236.500000, 8243.000000
3452, 15423256.000000, 1811.875000, 8601.500000, 8115.000000, 8315.000000
3453, 15423416.000000, 1772.000000, 8057.000000, 8061.000000, 8033.000000
3454, 15423576.000000, 1770.375000, 8088.500000, 8102.500000, 8015.000000
3455, 15423736.000000, 1767.500000, 8169.000000, 8196.500000, 8174.500000
3456, 15423896.000000, 1729.000000, 8191.000000, 8211.500000, 8206.500000
3457, 15424056.000000, 1653.375000, 8200.000000, 8218.500000, 8220.500000
3458, 15424216.000000, 1553.500000, 8208.000000, 8226.500000, 8230.500000
3459, 15424376.000000, 1446.250000, 8216.000000, 8235.500000, 8243.500000
3460, 15424536.000000, 1347.500000, 8225.000000, 8248.500000, 8261.500000
3461, 15424696.000000, 1264.750000, 8240.000000, 8268.500000, 8287.500000
3462, 15424856.000000, 1210.375000, 8255.500000, 8289.000000, 8315.500000
3463, 15425016.000000, 1183.000000, 8266.000000, 8303.500000, 8332.000000
3464, 15425176.000000, 1177.750000, 8272.000000, 8302.000000, 8334.000000
3465, 15425336.000000, 1183.750000, 8265.500000, 8282.500000, 8310.500000
3466, 15425496.000000, 1187.375000, 8232.500000, 8246.000000, 8263.000000
3467, 15425656.000000, 1183.375000, 8194.000000, 8201.000000, 8202.500000
3468, 15425816.000000, 1173.125000, 8169.500000, 8169.500000, 8158.000000
3469, 15425976.000000, 1158.750000, 8165.000000, 8159.500000, 8144.500000
3470, 15426136.000000, 1143.375000, 8164.500000, 8158.000000, 8142.000000
3471, 15426296.000000, 1127.750000, 8170.000000, 8160.000000, 8148.500000
3472, 15426456.000000, 1110.750000, 8171.000000, 8159.000000, 8148.000000
3473, 15426616.000000, 1089.375000, 8170.500000, 8157.500000, 8145.500000
3474, 15426776.000000, 1054.625000, 8170.000000, 8155.500000, 8142.500000
3475, 15426936.000000, 1014.750000, 8168.000000, 8153.000000, 8138.500000
3476, 15427096.000000, 1030.000000, 8165.000000, 8152.500000, 8137.500000
3477, 15427256.000000, 1213.375000, 8165.000000, 8153.000000, 8138.000000
3478, 15427416.000000, 1609.375000, 8165.500000, 8154.000000, 8139.500000
3479, 15427576.000000, 2094.250000, 8159.500000, 8149.500000, 8131.000000
3480, 15427736.000000, 2456.375000, 8166.000000, 8162.000000, 8139.000000
3481, 15427896.000000, 2606.125000, 8165.000000, 8156.000000, 8132.500000
3482, 15428056.000000, 2553.250000, 8176.000000, 8158.000000, 8145.000000
3483, 15428216.000000, 2397.750000, 8166.000000, 8159.000000, 8145.000000
3484, 15428376.000000, 2224.625000, 8167.500000, 8161.000000, 8149.000000
3485, 15428536.000000, 2069.500000, 8169.000000, 8163.500000, 8151.500000
3486, 15428696.000000, 1913.250000, 8161.500000, 8184.000000, 8176.000000
3487, 15428856.000000, 1750.000000, 8407.500000, 8226.500000, 8324.000000
3488, 15429016.000000, 1626.625000, 8298.000000, 8061.000000, 8151.000000
3489, 15429176.000000, 1589.875000, 8049.500000, 8078.500000, 8004.500000
3490, 15429336.000000, 1640.000000, 8115.000000, 8162.500000, 8098.500000
3491, 15429496.000000, 1723.750000, 8173.000000, 8215.000000, 8206.500000
3492, 15429656.000000, 1792.750000, 8182.000000, 8222.000000, 8218.500000
3493, 15429816.000000, 1819.375000, 8193.000000, 8228.000000, 8229.500000
3494, 15429976.000000, 1795.875000, 8202.000000, 8237.500000, 8243.500000
3495, 15430136.000000, 1734.625000, 8211.000000, 8249.000000, 8259.000000
3496, 15430296.000000, 1648.500000, 8221.500000, 8267.000000, 8282.500000
3497, 15430456.000000, 1558.500000, 8236.000000, 8288.000000, 8310.500000
3498, 15430616.000000, 1474.000000, 8250.000000, 8308.500000, 8336.000000
3499, 15430776.000000, 1403.125000, 8260.000000, 8314.500000, 8345.000000
3500, 15430936.000000, 1353.000000, 8258.500000, 8302.500000, 8332.000000
3501, 15431096.000000, 1318.500000, 8240.000000, 8272.000000, 8297.000000
3502, 15431256.000000, 1296.375000, 8199.500000, 8225.500000, 8234.500000
3503, 15431416.000000, 1277.000000, 8166.000000, 8184.000000, 8175.000000
3504, 15431576.000000, 1253.250000, 8154.000000, 8164.000000, 8148.000000
3505, 15431736.000000, 1225.500000, 8154.000000, 8162.000000, 8145.000000
