1642, 11006144.000000, 1720.000000, 8249.000000, 8283.000000, 8306.000000
1643, 11006304.000000, 1659.500000, 8240.000000, 8262.000000, 8283.000000
1644, 11006464.000000, 1610.000000, 8211.000000, 8231.000000, 8245.000000
1645, 11006624.000000, 1577.000000, 8178.000000, 8194.000000, 8194.000000
1646, 11006784.000000, 1550.000000, 8160.000000, 8174.000000, 8164.000000
1647, 11006944.000000, 1528.000000, 8159.000000, 8168.000000, 8157.000000
1648, 11007104.000000, 1501.000000, 8163.000000, 8168.000000, 8158.000000
1649, 11007264.000000, 1470.000000, 8170.000000, 8168.000000, 8161.000000
1650, 11007424.000000, 1439.000000, 8173.000000, 8164.000000, 8159.000000
1651, 11007584.000000, 1407.500000, 8171.000000, 8161.000000, 8156.000000
1652, 11007744.000000, 1372.000000, 8167.000000, 8157.000000, 8148.000000
1653, 11007904.000000, 1337.500000, 8166.000000, 8154.000000, 8144.000000
1654, 11008064.000000, 1357.000000, 8163.000000, 8153.000000, 8141.000000
1655, 11008224.000000, 1529.000000, 8171.000000, 8162.000000, 8161.000000
1656, 11008384.000000, 1838.000000, 8177.000000, 8172.000000, 8185.000000
1657, 11008544.000000, 2147.000000, 8182.000000, 8166.000000, 8174.000000
1658, 11008704.000000, 2313.000000, 8176.000000, 8159.000000, 8150.000000
1659, 11008864.000000, 2314.500000, 8161.000000, 8152.000000, 8131.000000
1660, 11009024.000000, 2230.000000, 8163.000000, 8153.000000, 8135.000000
1661, 11009184.000000, 2134.500000, 8163.000000, 8155.000000, 8137.000000
1662, 11009344.000000, 2043.000000, 8218.000000, 8243.000000, 8257.000000
1663, 11009504.000000, 1955.500000, 8551.000000, 8062.000000, 8244.000000
1664, 11009664.000000, 1860.000000, 8035.000000, 8045.000000, 7982.000000
1665, 11009824.000000, 1771.500000, 8086.000000, 8121.000000, 8032.000000
1666, 11009984.000000, 1738.000000, 8162.000000, 8200.000000, 8183.000000
1667, 11010144.000000, 1767.500000, 8174.000000, 8208.000000, 8199.000000
1668, 11010304.000000, 1816.000000, 8184.000000, 8215.000000, 8211.000000
1669, 11010464.000000, 1812.500000, 8190.000000, 8226.000000, 8224.000000
1670, 11010624.000000, 1754.000000, 8200.000000, 8239.000000, 8245.000000
1671, 11010784.000000, 1686.500000, 8209.000000, 8256.000000, 8270.000000
1672, 11010944.000000, 1596.000000, 8221.000000, 8279.000000, 8299.000000
1673, 11011104.000000, 1516.500000, 8231.000000, 8300.000000, 8323.000000
1674, 11011264.000000, 1463.000000, 8239.000000, 8309.000000, 8337.000000
1675, 11011424.000000, 1426.500000, 8237.000000, 8301.000000, 8328.000000
1676, 11011584.000000, 1408.000000, 8227.000000, 8270.000000, 8294.000000
1677, 11011744.000000, 1400.000000, 8197.000000, 8221.000000, 8233.000000
1678, 11011904.000000, 1393.000000, 8169.000000, 8180.000000, 8176.000000
1679, 11012064.000000, 1382.500000, 8160.000000, 8164.000000, 8152.000000
1680, 11012224.000000, 1365.000000, 8160.000000, 8163.000000, 8151.000000
1681, 11012384.000000, 1341.500000, 8166.000000, 8166.000000, 8158.000000
1682, 11012544.000000, 1316.000000, 8170.000000, 8166.000000, 8161.000000
1683, 11012704.000000, 1280.500000, 8173.000000, 8160.000000, 8155.000000
1684, 11012864.000000, 1241.000000, 8171.000000, 8157.000000, 8150.000000
1685, 11013024.000000, 1293.500000, 8170.000000, 8154.000000, 8145.000000
1686, 11013184.000000, 1515.000000, 8166.000000, 8153.000000, 8141.000000
1687, 11013344.000000, 1879.000000, 8166.000000, 8153.000000, 8141.000000
1688, 11013504.000000, 2185.000000, 8174.000000, 8164.000000, 8163.000000
1689, 11013664.000000, 2305.000000, 8177.000000, 8172.000000, 8185.000000
1690, 11013824.000000, 2259.000000, 8183.000000, 8167.000000, 8176.000000
1691, 11013984.000000, 2149.000000, 8179.000000, 8161.000000, 8154.000000
1692, 11014144.000000, 2050.000000, 8163.000000, 8152.000000, 8132.000000
1693, 11014304.000000, 1984.000000, 8162.000000, 8154.000000, 8135.000000
1694, 11014464.000000, 1929.000000, 8163.000000, 8155.000000, 8135.000000
1695, 11014624.000000, 1862.000000, 8208.000000, 8254.000000, 8266.000000
1696, 11014784.000000, 1776.000000, 8551.000000, 7972.000000, 8168.000000
1697, 11014944.000000, 1711.000000, 8029.000000, 7972.000000, 7875.000000
1698, 11015104.000000, 1707.000000, 8099.000000, 8154.000000, 8073.000000
1699, 11015264.000000, 1757.500000, 8168.000000, 8219.000000, 8204.000000
1700, 11015424.000000, 1825.000000, 8178.000000, 8224.000000, 8216.000000
1701, 11015584.000000, 1862.500000, 8184.000000, 8231.000000, 8227.000000
1702, 11015744.000000, 1859.000000, 8192.000000, 8241.000000, 8244.000000
1703, 11015904.000000, 1817.000000, 8199.000000, 8254.000000, 8262.000000
1704, 11016064.000000, 1760.000000, 8207.000000, 8275.000000, 8288.000000
1705, 11016224.000000, 1704.500000, 8218.000000, 8301.000000, 8321.000000
1706, 11016384.000000, 1660.000000, 8230.000000, 8330.000000, 8358.000000
1707, 11016544.000000, 1637.500000, 8231.000000, 8342.000000, 8369.000000
1708, 11016704.000000, 1623.000000, 8227.000000, 8334.000000, 8360.000000
1709, 11016864.000000, 1609.500000, 8218.000000, 8291.000000, 8313.000000
1710, 11017024.000000, 1594.000000, 8196.000000, 8224.000000, 8232.000000
1711, 11017184.000000, 1581.000000, 8175.000000, 8178.000000, 8172.000000
1712, 11017344.000000, 1573.000000, 8163.000000, 8162.000000, 8150.000000
1713, 11017504.000000, 1563.500000, 8162.000000, 8160.000000, 8147.000000
1714, 11017664.000000, 1542.000000, 8166.000000, 8162.000000, 8150.000000
1715, 11017824.000000, 1507.000000, 8168.000000, 8162.000000, 8151.000000
1716, 11017984.000000, 1463.000000, 8169.000000, 8160.000000, 8150.000000
1717, 11018144.000000, 1430.000000, 8171.000000, 8156.000000, 8147.000000
1718, 11018304.000000, 1502.000000, 8172.000000, 8153.000000, 8143.000000
1719, 11018464.000000, 1771.500000, 8170.000000, 8151.000000, 8138.000000
1720, 11018624.000000, 2169.000000, 8170.000000, 8151.000000, 8138.000000
1721, 11018784.000000, 2505.500000, 8171.000000, 8154.000000, 8141.000000
1722, 11018944.000000, 2645.000000, 8179.000000, 8165.000000, 8165.000000
1723, 11019104.000000, 2612.500000, 8184.000000, 8172.000000, 8182.000000
1724, 11019264.000000, 2514.000000, 8192.000000, 8171.000000, 8176.000000
1725, 11019424.000000, 2428.000000, 8175.000000, 8159.000000, 8145.000000
1726, 11019584.000000, 2374.000000, 8168.000000, 8157.000000, 8138.000000
1727, 11019744.000000, 2333.500000, 8169.000000, 8157.000000, 8139.000000
1728, 11019904.000000, 2267.000000, 8165.000000, 8165.000000, 8148.000000
1729, 11020064.000000, 2165.500000, 8316.000000, 8239.000000, 8295.000000
1730, 11020224.000000, 2065.000000, 8430.000000, 7921.000000, 8061.000000
1731, 11020384.000000, 2010.500000, 8035.000000, 8009.000000, 7898.000000
1732, 11020544.000000, 2009.000000, 8122.000000, 8177.000000, 8114.000000
1733, 11020704.000000, 2033.500000, 8170.000000, 8221.000000, 8206.000000
1734, 11020864.000000, 2050.000000, 8183.000000, 8228.000000, 8221.000000
1735, 11021024.000000, 2047.000000, 8188.000000, 8234.000000, 8229.000000
1736, 11021184.000000, 2018.000000, 8196.000000, 8249.000000, 8249.000000
1737, 11021344.000000, 1966.500000, 8201.000000, 8263.000000, 8268.000000
1738, 11021504.000000, 1909.000000, 8212.000000, 8284.000000, 8296.000000
1739, 11021664.000000, 1862.000000, 8223.000000, 8308.000000, 8324.000000
1740, 11021824.000000, 1838.000000, 8234.000000, 8335.000000, 8360.000000
1741, 11021984.000000, 1818.000000, 8234.000000, 8343.000000, 8368.000000
1742, 11022144.000000, 1792.000000, 8230.000000, 8334.000000, 8358.000000
1743, 11022304.000000, 1757.500000, 8220.000000, 8290.000000, 8310.000000
1744, 11022464.000000, 1729.000000, 8197.000000, 8231.000000, 8241.000000
1745, 11022624.000000, 1714.500000, 8175.000000, 8191.000000, 8187.000000
1746, 11022784.000000, 1714.000000, 8167.000000, 8180.000000, 8169.000000
1747, 11022944.000000, 1723.000000, 8170.000000, 8181.000000, 8172.000000
1748, 11023104.000000, 1737.000000, 8171.000000, 8183.000000, 8174.000000
1749, 11023264.000000, 1740.500000, 8176.000000, 8179.000000, 8172.000000
1750, 11023424.000000, 1722.000000, 8176.000000, 8177.000000, 8168.000000
1751, 11023584.000000, 1711.500000, 8173.000000, 8176.000000, 8165.000000
1752, 11023744.000000, 1812.000000, 8173.000000, 8174.000000, 8163.000000
1753, 11023904.000000, 2109.000000, 8170.000000, 8173.000000, 8160.000000
1754, 11024064.000000, 2520.000000, 8170.000000, 8174.000000, 8161.000000
1755, 11024224.000000, 2824.000000, 8169.000000, 8176.000000, 8162.000000
1756, 11024384.000000, 2927.000000, 8176.000000, 8187.000000, 8182.000000
1757, 11024544.000000, 2849.500000, 8180.000000, 8197.000000, 8208.000000
1758, 11024704.000000, 2728.000000, 8189.000000, 8194.000000, 8203.000000
1759, 11024864.000000, 2626.000000, 8183.000000, 8188.000000, 8181.000000
1760, 11025024.000000, 2579.000000, 8167.000000, 8179.000000, 8158.000000
1761, 11025184.000000, 2548.500000, 8166.000000, 8181.000000, 8161.000000
1762, 11025344.000000, 2482.000000, 8166.000000, 8184.000000, 8164.000000
1763, 11025504.000000, 2382.500000, 8210.000000, 8271.000000, 8278.000000
1764, 11025664.000000, 2301.000000, 8550.000000, 8041.000000, 8229.000000
1765, 11025824.000000, 2287.500000, 8027.000000, 8019.000000, 7932.000000
1766, 11025984.000000, 2312.000000, 8094.000000, 8164.000000, 8074.000000
1767, 11026144.000000, 2332.000000, 8164.000000, 8240.000000, 8221.000000
1768, 11026304.000000, 2310.000000, 8178.000000, 8248.000000, 8238.000000
1769, 11026464.000000, 2257.000000, 8185.000000, 8254.000000, 8249.000000
1770, 11026624.000000, 2195.000000, 8191.000000, 8264.000000, 8264.000000
1771, 11026784.000000, 2142.000000, 8200.000000, 8278.000000, 8284.000000
1772, 11026944.000000, 2097.000000, 8208.000000, 8297.000000, 8307.000000
1773, 11027104.000000, 2052.000000, 8217.000000, 8318.000000, 8332.000000
1774, 11027264.000000, 2000.000000, 8228.000000, 8339.000000, 8362.000000
1775, 11027424.000000, 1947.500000, 8228.000000, 8348.000000, 8371.000000
1776, 11027584.000000, 1907.000000, 8225.000000, 8342.000000, 8363.000000
1777, 11027744.000000, 1874.500000, 8220.000000, 8312.000000, 8332.000000
1778, 11027904.000000, 1856.000000, 8200.000000, 8259.000000, 8273.000000
1779, 11028064.000000, 1842.500000, 8176.000000, 8212.000000, 8212.000000
1780, 11028224.000000, 1825.000000, 8167.000000, 8193.000000, 8186.000000
1781, 11028384.000000, 1798.000000, 8168.000000, 8186.000000, 8179.000000
1782, 11028544.000000, 1772.000000, 8169.000000, 8183.000000, 8177.000000
1783, 11028704.000000, 1753.000000, 8170.000000, 8177.000000, 8170.000000
1784, 11028864.000000, 1721.000000, 8168.000000, 8171.000000, 8162.000000
1785, 11029024.000000, 1682.000000, 8165.000000, 8166.000000, 8157.000000
1786, 11029184.000000, 1693.000000, 8164.000000, 8163.000000, 8152.000000
1787, 11029344.000000, 1895.000000, 8162.000000, 8163.000000, 8152.000000
1788, 11029504.000000, 2276.000000, 8161.000000, 8161.000000, 8150.000000
1789, 11029664.000000, 2658.000000, 8161.000000, 8160.000000, 8149.000000
1790, 11029824.000000, 2857.000000, 8162.000000, 8164.000000, 8155.000000
1791, 11029984.000000, 2840.500000, 8171.000000, 8177.000000, 8188.000000
1792, 11030144.000000, 2723.000000, 8182.000000, 8179.000000, 8195.000000
1793, 11030304.000000, 2602.500000, 8181.000000, 8174.000000, 8176.000000
1794, 11030464.000000, 2516.000000, 8159.000000, 8159.000000, 8144.000000
1795, 11030624.000000, 2449.000000, 8158.000000, 8160.000000, 8143.000000
1796, 11030784.000000, 2368.000000, 8161.000000, 8162.000000, 8147.000000
1797, 11030944.000000, 2272.000000, 8156.000000, 8230.000000, 8225.000000
1798, 11031104.000000, 2207.000000, 8554.000000, 8121.000000, 8307.000000
1799, 11031264.000000, 2208.000000, 8047.000000, 7997.000000, 7962.000000
1800, 11031424.000000, 2248.000000, 8054.000000, 8088.000000, 7981.000000
1801, 11031584.000000, 2284.500000, 8150.000000, 8218.000000, 8197.000000
1802, 11031744.000000, 2279.000000, 8170.000000, 8231.000000, 8226.000000
1803, 11031904.000000, 2217.500000, 8180.000000, 8236.000000, 8237.000000
1804, 11032064.000000, 2143.000000, 8183.000000, 8244.000000, 8247.000000
1805, 11032224.000000, 2090.500000, 8190.000000, 8255.000000, 8263.000000
1806, 11032384.000000, 2064.000000, 8201.000000, 8270.000000, 8287.000000
1807, 11032544.000000, 2050.500000, 8211.000000, 8288.000000, 8310.000000
1808, 11032704.000000, 2043.000000, 8219.000000, 8310.000000, 8335.000000
1809, 11032864.000000, 2037.000000, 8222.000000, 8319.000000, 8346.000000
1810, 11033024.000000, 2025.000000, 8218.000000, 8318.000000, 8346.000000
1811, 11033184.000000, 2008.000000, 8216.000000, 8298.000000, 8323.000000
1812, 11033344.000000, 1988.000000, 8202.000000, 8256.000000, 8278.000000
1813, 11033504.000000, 1965.000000, 8179.000000, 8210.000000, 8220.000000
1814, 11033664.000000, 1939.000000, 8165.000000, 8184.000000, 8185.000000
1815, 11033824.000000, 1921.000000, 8164.000000, 8177.000000, 8174.000000
1816, 11033984.000000, 1915.000000, 8167.000000, 8173.000000, 8173.000000
1817, 11034144.000000, 1926.500000, 8167.000000, 8168.000000, 8165.000000
1818, 11034304.000000, 1925.000000, 8165.000000, 8163.000000, 8158.000000
1819, 11034464.000000, 1903.000000, 8162.000000, 8159.000000, 8152.000000
1820, 11034624.000000, 1890.000000, 8161.000000, 8156.000000, 8147.000000
1821, 11034784.000000, 2018.500000, 8160.000000, 8156.000000, 8146.000000
1822, 11034944.000000, 2337.000000, 8158.000000, 8156.000000, 8145.000000
1823, 11035104.000000, 2735.500000, 8157.000000, 8157.000000, 8145.000000
1824, 11035264.000000, 2983.000000, 8162.000000, 8162.000000, 8155.000000
1825, 11035424.000000, 3003.000000, 8168.000000, 8174.000000, 8183.000000
1826, 11035584.000000, 2883.000000, 8180.000000, 8177.000000, 8186.000000
1827, 11035744.000000, 2745.000000, 8178.000000, 8171.000000, 8171.000000
1828, 11035904.000000, 2648.000000, 8156.000000, 8158.000000, 8141.000000
1829, 11036064.000000, 2583.000000, 8158.000000, 8159.000000, 8142.000000
1830, 11036224.000000, 2529.000000, 8160.000000, 8163.000000, 8147.000000
1831, 11036384.000000, 2475.500000, 8170.000000, 8244.000000, 8241.000000
1832, 11036544.000000, 2440.000000, 8574.000000, 8099.000000, 8295.000000
1833, 11036704.000000, 2444.000000, 8026.000000, 8003.000000, 7944.000000
1834, 11036864.000000, 2484.000000, 8069.000000, 8104.000000, 8001.000000
1835, 11037024.000000, 2517.500000, 8157.000000, 8211.000000, 8191.000000
1836, 11037184.000000, 2520.000000, 8176.000000, 8220.000000, 8213.000000
1837, 11037344.000000, 2474.500000, 8183.000000, 8225.000000, 8222.000000
1838, 11037504.000000, 2400.000000, 8189.000000, 8234.000000, 8235.000000
1839, 11037664.000000, 2326.500000, 8198.000000, 8246.000000, 8251.000000
1840, 11037824.000000, 2263.000000, 8209.000000, 8262.000000, 8274.000000
1841, 11037984.000000, 2218.500000, 8218.000000, 8282.000000, 8298.000000
1842, 11038144.000000, 2192.000000, 8226.000000, 8302.000000, 8322.000000
1843, 11038304.000000, 2175.500000, 8225.000000, 8310.000000, 8329.000000
1844, 11038464.000000, 2158.000000, 8224.000000, 8304.000000, 8324.000000
1845, 11038624.000000, 2126.500000, 8220.000000, 8283.000000, 8301.000000
1846, 11038784.000000, 2109.000000, 8204.000000, 8245.000000, 8260.000000
1847, 11038944.000000, 2104.000000, 8184.000000, 8202.000000, 8206.000000
1848, 11039104.000000, 2099.000000, 8174.000000, 8177.000000, 8176.000000
1849, 11039264.000000, 2083.500000, 8171.000000, 8167.000000, 8162.000000
1850, 11039424.000000, 2063.000000, 8172.000000, 8163.000000, 8155.000000
1851, 11039584.000000, 2063.000000, 8172.000000, 8159.000000, 8151.000000
1852, 11039744.000000, 2071.000000, 8171.000000, 8155.000000, 8146.000000
1853, 11039904.000000, 2068.500000, 8168.000000, 8151.000000, 8140.000000
1854, 11040064.000000, 2075.000000, 8167.000000, 8150.000000, 8135.000000
1855, 11040224.000000, 2195.500000, 8168.000000, 8150.000000, 8137.000000
1856, 11040384.000000, 2515.000000, 8168.000000, 8151.000000, 8138.000000
1857, 11040544.000000, 2921.000000, 8169.000000, 8152.000000, 8140.000000
1858, 11040704.000000, 3198.000000, 8175.000000, 8162.000000, 8166.000000
1859, 11040864.000000, 3226.000000, 8190.000000, 8176.000000, 8184.000000
1860, 11041024.000000, 3107.000000, 8188.000000, 8165.000000, 8162.000000
1861, 11041184.000000, 2943.500000, 8169.000000, 8155.000000, 8137.000000
1862, 11041344.000000, 2807.000000, 8165.000000, 8155.000000, 8136.000000
1863, 11041504.000000, 2711.500000, 8168.000000, 8157.000000, 8138.000000
1864, 11041664.000000, 2631.000000, 8161.000000, 8196.000000, 8183.000000
1865, 11041824.000000, 2553.500000, 8470.000000, 8179.000000, 8307.000000
1866, 11041984.000000, 2496.000000, 8163.000000, 7985.000000, 8011.000000
1867, 11042144.000000, 2490.500000, 8041.000000, 8039.000000, 7926.000000
1868, 11042304.000000, 2534.000000, 8142.000000, 8186.000000, 8142.000000
1869, 11042464.000000, 2589.000000, 8175.000000, 8216.000000, 8204.000000
1870, 11042624.000000, 2606.000000, 8185.000000, 8222.000000, 8213.000000
1871, 11042784.000000, 2568.500000, 8195.000000, 8231.000000, 8230.000000
1872, 11042944.000000, 2492.000000, 8200.000000, 8241.000000, 8243.000000
1873, 11043104.000000, 2409.500000, 8209.000000, 8256.000000, 8264.000000
1874, 11043264.000000, 2346.000000, 8218.000000, 8274.000000, 8288.000000
1875, 11043424.000000, 2289.000000, 8227.000000, 8294.000000, 8312.000000
1876, 11043584.000000, 2229.000000, 8233.000000, 8308.000000, 8330.000000
1877, 11043744.000000, 2164.500000, 8230.000000, 8307.000000, 8327.000000
1878, 11043904.000000, 2113.000000, 8227.000000, 8291.000000, 8309.000000
1879, 11044064.000000, 2096.500000, 8218.000000, 8261.000000, 8279.000000
1880, 11044224.000000, 2093.000000, 8198.000000, 8221.000000, 8230.000000
1881, 11044384.000000, 2078.500000, 8179.000000, 8188.000000, 8185.000000
1882, 11044544.000000, 2049.000000, 8174.000000, 8173.000000, 8168.000000
1883, 11044704.000000, 2022.000000, 8174.000000, 8165.000000, 8160.000000
1884, 11044864.000000, 2014.000000, 8173.000000, 8161.000000, 8154.000000
1885, 11045024.000000, 2012.000000, 8171.000000, 8157.000000, 8148.000000
1886, 11045184.000000, 2004.000000, 8173.000000, 8152.000000, 8143.000000
1887, 11045344.000000, 1976.000000, 8170.000000, 8152.000000, 8139.000000
1888, 11045504.000000, 2014.000000, 8167.000000, 8150.000000, 8135.000000
1889, 11045664.000000, 2231.500000, 8169.000000, 8149.000000, 8133.000000
1890, 11045824.000000, 2618.000000, 8174.000000, 8155.000000, 8150.000000
1891, 11045984.000000, 2951.000000, 8177.000000, 8168.000000, 8171.000000
1892, 11046144.000000, 3087.000000, 8188.000000, 8163.000000, 8163.000000
1893, 11046304.000000, 3020.500000, 8178.000000, 8155.000000, 8143.000000
1894, 11046464.000000, 2890.000000, 8167.000000, 8149.000000, 8126.000000
1895, 11046624.000000, 2776.000000, 8169.000000, 8153.000000, 8133.000000
1896, 11046784.000000, 2704.000000, 8169.000000, 8157.000000, 8139.000000
1897, 11046944.000000, 2627.500000, 8285.000000, 8234.000000, 8269.000000
1898, 11047104.000000, 2524.000000, 8470.000000, 8112.000000, 8264.000000
1899, 11047264.000000, 2402.500000, 8037.000000, 8083.000000, 8027.000000
1900, 11047424.000000, 2318.000000, 8092.000000, 8117.000000, 8030.000000
1901, 11047584.000000, 2280.000000, 8168.000000, 8193.000000, 8174.000000
1902, 11047744.000000, 2263.000000, 8185.000000, 8202.000000, 8193.000000
1903, 11047904.000000, 2218.500000, 8195.000000, 8210.000000, 8207.000000
1904, 11048064.000000, 2110.000000, 8202.000000, 8218.000000, 8218.000000
1905, 11048224.000000, 1944.500000, 8210.000000, 8229.000000, 8236.000000
1906, 11048384.000000, 1739.000000, 8218.000000, 8244.000000, 8256.000000
1907, 11048544.000000, 1534.500000, 8226.000000, 8260.000000, 8276.000000
1908, 11048704.000000, 1358.000000, 8232.000000, 8274.000000, 8292.000000
1909, 11048864.000000, 1217.000000, 8234.000000, 8276.000000, 8295.000000
1910, 11049024.000000, 1098.000000, 8235.000000, 8267.000000, 8285.000000
1911, 11049184.000000, 975.500000, 8228.000000, 8253.000000, 8272.000000
1912, 11049344.000000, 840.000000, 8204.000000, 8231.000000, 8244.000000
1913, 11049504.000000, 703.000000, 8181.000000, 8200.000000, 8202.000000
1914, 11049664.000000, 567.000000, 8171.000000, 8182.000000, 8177.000000
1915, 11049824.000000, 455.000000, 8171.000000, 8173.000000, 8166.000000
1916, 11049984.000000, 380.000000, 8171.000000, 8169.000000, 8160.000000
1917, 11050144.000000, 324.000000, 8170.000000, 8166.000000, 8155.000000
1918, 11050304.000000, 260.000000, 8168.000000, 8164.000000, 8153.000000
1919, 11050464.000000, 162.000000, 8167.000000, 8161.000000, 8148.000000
1920, 11050624.000000, 63.000000, 8164.000000, 8160.000000, 8145.000000
1921, 11050784.000000, 71.000000, 8170.000000, 8168.000000, 8168.000000
1922, 11050944.000000, 281.000000, 8177.000000, 8181.000000, 8188.000000
1923, 11051104.000000, 619.500000, 8183.000000, 8170.000000, 8169.000000
1924, 11051264.000000, 898.000000, 8165.000000, 8160.000000, 8141.000000
1925, 11051424.000000, 985.500000, 8160.000000, 8157.000000, 8133.000000
1926, 11051584.000000, 966.000000, 8161.000000, 8157.000000, 8134.000000
1927, 11051744.000000, 935.500000, 8159.000000, 8169.000000, 8148.000000
1928, 11051904.000000, 960.000000, 8333.000000, 8236.000000, 8299.000000
1929, 11052064.000000, 1038.500000, 8384.000000, 7929.000000, 8052.000000
1930, 11052224.000000, 1138.000000, 8026.000000, 8009.000000, 7894.000000
1931, 11052384.000000, 1238.000000, 8123.000000, 8179.000000, 8118.000000
1932, 11052544.000000, 1355.000000, 8171.000000, 8219.000000, 8204.000000
1933, 11052704.000000, 1518.500000, 8184.000000, 8225.000000, 8217.000000
1934, 11052864.000000, 1704.000000, 8191.000000, 8231.000000, 8226.000000
1935, 11053024.000000, 1878.500000, 8196.000000, 8242.000000, 8242.000000
1936, 11053184.000000, 1994.000000, 8204.000000, 8258.000000, 8263.000000
1937, 11053344.000000, 2040.000000, 8213.000000, 8278.000000, 8289.000000
1938, 11053504.000000, 2033.000000, 8220.000000, 8300.000000, 8316.000000
1939, 11053664.000000, 2007.500000, 8224.000000, 8321.000000, 8339.000000
1940, 11053824.000000, 1986.000000, 8220.000000, 8326.000000, 8342.000000
1941, 11053984.000000, 1969.500000, 8219.000000, 8313.000000, 8330.000000
1942, 11054144.000000, 1969.000000, 8212.000000, 8271.000000, 8285.000000
1943, 11054304.000000, 1991.000000, 8193.000000, 8219.000000, 8225.000000
1944, 11054464.000000, 2027.000000, 8176.000000, 8184.000000, 8177.000000
1945, 11054624.000000, 2059.500000, 8174.000000, 8172.000000, 8165.000000
1946, 11054784.000000, 2082.000000, 8173.000000, 8166.000000, 8157.000000
1947, 11054944.000000, 2108.000000, 8173.000000, 8163.000000, 8152.000000
1948, 11055104.000000, 2145.000000, 8174.000000, 8159.000000, 8148.000000
1949, 11055264.000000, 2172.500000, 8170.000000, 8156.000000, 8141.000000
1950, 11055424.000000, 2173.000000, 8169.000000, 8155.000000, 8141.000000
1951, 11055584.000000, 2188.500000, 8177.000000, 8165.000000, 8166.000000
1952, 11055744.000000, 2370.000000, 8183.000000, 8177.000000, 8192.000000
1953, 11055904.000000, 2772.500000, 8190.000000, 8169.000000, 8175.000000
1954, 11056064.000000, 3235.000000, 8174.000000, 8156.000000, 8143.000000
1955, 11056224.000000, 3500.500000, 8163.000000, 8153.000000, 8129.000000
1956, 11056384.000000, 3536.000000, 8164.000000, 8155.000000, 8132.000000
1957, 11056544.000000, 3402.000000, 8165.000000, 8158.000000, 8135.000000
1958, 11056704.000000, 3238.000000, 8276.000000, 8248.000000, 8281.000000
1959, 11056864.000000, 3112.000000, 8480.000000, 7968.000000, 8131.000000
1960, 11057024.000000, 3039.000000, 8022.000000, 7999.000000, 7895.000000
1961, 11057184.000000, 2979.000000, 8104.000000, 8154.000000, 8073.000000
1962, 11057344.000000, 2907.000000, 8167.000000, 8210.000000, 8189.000000
1963, 11057504.000000, 2846.500000, 8181.000000, 8215.000000, 8205.000000
1964, 11057664.000000, 2820.000000, 8186.000000, 8223.000000, 8216.000000
1965, 11057824.000000, 2832.000000, 8196.000000, 8233.000000, 8233.000000
1966, 11057984.000000, 2840.000000, 8202.000000, 8247.000000, 8253.000000
1967, 11058144.000000, 2817.000000, 8212.000000, 8266.000000, 8280.000000
1968, 11058304.000000, 2753.000000, 8221.000000, 8289.000000, 8307.000000
1969, 11058464.000000, 2658.000000, 8223.000000, 8308.000000, 8326.000000
1970, 11058624.000000, 2542.000000, 8222.000000, 8313.000000, 8332.000000
1971, 11058784.000000, 2425.500000, 8220.000000, 8304.000000, 8324.000000
1972, 11058944.000000, 2315.000000, 8213.000000, 8268.000000, 8287.000000
1973, 11059104.000000, 2218.000000, 8192.000000, 8220.000000, 8229.000000
1974, 11059264.000000, 2139.000000, 8176.000000, 8187.000000, 8187.000000
1975, 11059424.000000, 2078.000000, 8169.000000, 8175.000000, 8169.000000
1976, 11059584.000000, 2043.000000, 8169.000000, 8170.000000, 8164.000000
1977, 11059744.000000, 2037.500000, 8171.000000, 8165.000000, 8158.000000
1978, 11059904.000000, 2055.000000, 8171.000000, 8162.000000, 8155.000000
1979, 11060064.000000, 2065.000000, 8168.000000, 8158.000000, 8149.000000
1980, 11060224.000000, 2063.000000, 8165.000000, 8159.000000, 8148.000000
1981, 11060384.000000, 2110.000000, 8173.000000, 8169.000000, 8173.000000
1982, 11060544.000000, 2304.000000, 8176.000000, 8178.000000, 8194.000000
1983, 11060704.000000, 2697.500000, 8184.000000, 8171.000000, 8183.000000
1984, 11060864.000000, 3140.000000, 8170.000000, 8162.000000, 8149.000000
1985, 11061024.000000, 3426.000000, 8158.000000, 8154.000000, 8131.000000
1986, 11061184.000000, 3479.000000, 8158.000000, 8157.000000, 8134.000000
1987, 11061344.000000, 3396.000000, 8157.000000, 8158.000000, 8134.000000
1988, 11061504.000000, 3304.000000, 8247.000000, 8246.000000, 8270.000000
1989, 11061664.000000, 3243.000000, 8508.000000, 7980.000000, 8158.000000
1990, 11061824.000000, 3201.000000, 8015.000000, 7984.000000, 7883.000000
1991, 11061984.000000, 3160.000000, 8096.000000, 8136.000000, 8053.000000
1992, 11062144.000000, 3114.000000, 8165.000000, 8195.000000, 8178.000000
1993, 11062304.000000, 3095.500000, 8179.000000, 8200.000000, 8191.000000
1994, 11062464.000000, 3131.000000, 8185.000000, 8210.000000, 8205.000000
1995, 11062624.000000, 3199.000000, 8193.000000, 8223.000000, 8225.000000
1996, 11062784.000000, 3251.000000, 8202.000000, 8238.000000, 8246.000000
1997, 11062944.000000, 3250.500000, 8209.000000, 8253.000000, 8267.000000
1998, 11063104.000000, 3202.000000, 8221.000000, 8272.000000, 8296.000000
1999, 11063264.000000, 3116.000000, 8227.000000, 8285.000000, 8311.000000
2000, 11063424.000000, 3010.000000, 8225.000000, 8286.000000, 8311.000000
2001, 11063584.000000, 2912.500000, 8223.000000, 8271.000000, 8295.000000
2002, 11063744.000000, 2823.000000, 8218.000000, 8235.000000, 8259.000000
2003, 11063904.000000, 2747.000000, 8197.000000, 8184.000000, 8198.000000
2004, 11064064.000000, 2689.000000, 8180.000000, 8144.000000, 8147.000000
2005, 11064224.000000, 2654.000000, 8175.000000, 8129.000000, 8127.000000
2006, 11064384.000000, 2632.000000, 8174.000000, 8121.000000, 8118.000000
2007, 11064544.000000, 2613.000000, 8178.000000, 8118.000000, 8116.000000
2008, 11064704.000000, 2582.000000, 8178.000000, 8112.000000, 8110.000000
2009, 11064864.000000, 2531.000000, 8174.000000, 8107.000000, 8102.000000
2010, 11065024.000000, 2445.000000, 8173.000000, 8107.000000, 8100.000000
2011, 11065184.000000, 2370.500000, 8175.000000, 8111.000000, 8109.000000
2012, 11065344.000000, 2404.000000, 8182.000000, 8122.000000, 8136.000000
2013, 11065504.000000, 2668.000000, 8190.000000, 8122.000000, 8144.000000
2014, 11065664.000000, 3016.000000, 8193.000000, 8127.000000, 8135.000000
2015, 11065824.000000, 3249.000000, 8166.000000, 8107.000000, 8089.000000
2016, 11065984.000000, 3277.000000, 8166.000000, 8108.000000, 8088.000000
2017, 11066144.000000, 3155.500000, 8169.000000, 8110.000000, 8092.000000
2018, 11066304.000000, 2998.000000, 8170.000000, 8182.000000, 8173.000000
2019, 11066464.000000, 2879.500000, 8578.000000, 8070.000000, 8266.000000
2020, 11066624.000000, 2811.000000, 8041.000000, 7944.000000, 7895.000000
2021, 11066784.000000, 2757.500000, 8065.000000, 8037.000000, 7926.000000
2022, 11066944.000000, 2684.000000, 8160.000000, 8154.000000, 8128.000000
2023, 11067104.000000, 2620.500000, 8181.000000, 8166.000000, 8156.000000
2024, 11067264.000000, 2596.000000, 8191.000000, 8175.000000, 8170.000000
2025, 11067424.000000, 2599.000000, 8200.000000, 8187.000000, 8191.000000
2026, 11067584.000000, 2584.000000, 8203.000000, 8201.000000, 8207.000000
2027, 11067744.000000, 2524.000000, 8214.000000, 8218.000000, 8230.000000
2028, 11067904.000000, 2424.000000, 8223.000000, 8241.000000, 8259.000000
2029, 11068064.000000, 2308.500000, 8228.000000, 8264.000000, 8285.000000
2030, 11068224.000000, 2228.000000, 8230.000000, 8274.000000, 8296.000000
2031, 11068384.000000, 2192.500000, 8228.000000, 8271.000000, 8292.000000
2032, 11068544.000000, 2190.000000, 8227.000000, 8255.000000, 8277.000000
2033, 11068704.000000, 2210.000000, 8211.000000, 8219.000000, 8235.000000
2034, 11068864.000000, 2239.000000, 8189.000000, 8182.000000, 8187.000000
2035, 11069024.000000, 2269.000000, 8182.000000, 8164.000000, 8164.000000
2036, 11069184.000000, 2293.000000, 8179.000000, 8159.000000, 8154.000000
2037, 11069344.000000, 2290.500000, 8176.000000, 8157.000000, 8150.000000
2038, 11069504.000000, 2286.000000, 8178.000000, 8155.000000, 8149.000000
2039, 11069664.000000, 2289.000000, 8176.000000, 8154.000000, 8145.000000
2040, 11069824.000000, 2288.000000, 8172.000000, 8153.000000, 8141.000000
2041, 11069984.000000, 2285.000000, 8172.000000, 8155.000000, 8143.000000
2042, 11070144.000000, 2334.000000, 8177.000000, 8163.000000, 8158.000000
2043, 11070304.000000, 2568.000000, 8179.000000, 8175.000000, 8183.000000
2044, 11070464.000000, 2950.000000, 8191.000000, 8174.000000, 8190.000000
2045, 11070624.000000, 3296.500000, 8192.000000, 8181.000000, 8182.000000
2046, 11070784.000000, 3462.000000, 8166.000000, 8164.000000, 8142.000000
2047, 11070944.000000, 3421.500000, 8167.000000, 8167.000000, 8142.000000
2048, 11071104.000000, 3303.000000, 8169.000000, 8170.000000, 8146.000000
2049, 11071264.000000, 3189.500000, 8190.000000, 8255.000000, 8251.000000
2050, 11071424.000000, 3107.000000, 8594.000000, 8116.000000, 8313.000000
2051, 11071584.000000, 3025.500000, 8032.000000, 8030.000000, 7965.000000
2052, 11071744.000000, 2934.000000, 8079.000000, 8127.000000, 8021.000000
2053, 11071904.000000, 2869.000000, 8168.000000, 8229.000000, 8204.000000
2054, 11072064.000000, 2861.000000, 8185.000000, 8239.000000, 8226.000000
2055, 11072224.000000, 2894.000000, 8193.000000, 8247.000000, 8239.000000
2056, 11072384.000000, 2906.000000, 8201.000000, 8258.000000, 8257.000000
2057, 11072544.000000, 2861.000000, 8208.000000, 8273.000000, 8277.000000
2058, 11072704.000000, 2764.000000, 8220.000000, 8290.000000, 8300.000000
2059, 11072864.000000, 2636.500000, 8230.000000, 8310.000000, 8328.000000
2060, 11073024.000000, 2494.000000, 8234.000000, 8327.000000, 8348.000000
2061, 11073184.000000, 2341.500000, 8234.000000, 8332.000000, 8351.000000
2062, 11073344.000000, 2191.000000, 8233.000000, 8324.000000, 8342.000000
2063, 11073504.000000, 2059.500000, 8230.000000, 8307.000000, 8325.000000
2064, 11073664.000000, 1946.000000, 8212.000000, 8275.000000, 8289.000000
2065, 11073824.000000, 1848.000000, 8193.000000, 8239.000000, 8243.000000
2066, 11073984.000000, 1759.000000, 8183.000000, 8219.000000, 8216.000000
2067, 11074144.000000, 1677.500000, 8182.000000, 8210.000000, 8205.000000
2068, 11074304.000000, 1593.000000, 8183.000000, 8206.000000, 8201.000000
2069, 11074464.000000, 1504.500000, 8182.000000, 8201.000000, 8192.000000
2070, 11074624.000000, 1415.000000, 8179.000000, 8197.000000, 8186.000000
2071, 11074784.000000, 1313.500000, 8175.000000, 8193.000000, 8179.000000
2072, 11074944.000000, 1228.000000, 8174.000000, 8193.000000, 8178.000000
2073, 11075104.000000, 1257.000000, 8174.000000, 8192.000000, 8177.000000
2074, 11075264.000000, 1497.000000, 8180.000000, 8207.000000, 8212.000000
2075, 11075424.000000, 1900.000000, 8194.000000, 8210.000000, 8230.000000
2076, 11075584.000000, 2280.000000, 8191.000000, 8207.000000, 8209.000000
2077, 11075744.000000, 2492.000000, 8165.000000, 8190.000000, 8169.000000
2078, 11075904.000000, 2570.000000, 8163.000000, 8186.000000, 8162.000000
2079, 11076064.000000, 2582.000000, 8167.000000, 8188.000000, 8165.000000
2080, 11076224.000000, 2604.000000, 8166.000000, 8241.000000, 8229.000000
2081, 11076384.000000, 2630.500000, 8533.000000, 8186.000000, 8338.000000
2082, 11076544.000000, 2637.000000, 8091.000000, 8058.000000, 8046.000000
2083, 11076704.000000, 2618.000000, 8055.000000, 8093.000000, 7989.000000
2084, 11076864.000000, 2602.000000, 8146.000000, 8209.000000, 8160.000000
2085, 11077024.000000, 2623.000000, 8183.000000, 8237.000000, 8222.000000
2086, 11077184.000000, 2674.000000, 8195.000000, 8241.000000, 8234.000000
2087, 11077344.000000, 2723.000000, 8203.000000, 8247.000000, 8244.000000
2088, 11077504.000000, 2720.000000, 8210.000000, 8258.000000, 8261.000000
2089, 11077664.000000, 2652.500000, 8221.000000, 8270.000000, 8278.000000
2090, 11077824.000000, 2542.000000, 8233.000000, 8285.000000, 8299.000000
2091, 11077984.000000, 2414.500000, 8243.000000, 8298.000000, 8317.000000
2092, 11078144.000000, 2282.000000, 8243.000000, 8304.000000, 8323.000000
2093, 11078304.000000, 2153.000000, 8239.000000, 8298.000000, 8316.000000
2094, 11078464.000000, 2007.000000, 8237.000000, 8284.000000, 8301.000000
2095, 11078624.000000, 1832.000000, 8218.000000, 8268.000000, 8282.000000
2096, 11078784.000000, 1633.000000, 8191.000000, 8236.000000, 8240.000000
2097, 11078944.000000, 1428.000000, 8177.000000, 8211.000000, 8208.000000
2098, 11079104.000000, 1234.000000, 8174.000000, 8200.000000, 8193.000000
2099, 11079264.000000, 1049.500000, 8175.000000, 8195.000000, 8189.000000
2100, 11079424.000000, 869.000000, 8175.000000, 8191.000000, 8183.000000
2101, 11079584.000000, 676.000000, 8172.000000, 8187.000000, 8177.000000
2102, 11079744.000000, 478.000000, 8171.000000, 8182.000000, 8171.000000
2103, 11079904.000000, 275.000000, 8169.000000, 8180.000000, 8168.000000
2104, 11080064.000000, 122.000000, 8176.000000, 8189.000000, 8189.000000
2105, 11080224.000000, 131.000000, 8184.000000, 8199.000000, 8215.000000
2106, 11080384.000000, 356.000000, 8187.000000, 8187.000000, 8193.000000
2107, 11080544.000000, 668.500000, 8170.000000, 8179.000000, 8162.000000
2108, 11080704.000000, 879.000000, 8163.000000, 8172.000000, 8148.000000
2109, 11080864.000000, 874.500000, 8164.000000, 8175.000000, 8152.000000
2110, 11081024.000000, 757.000000, 8160.000000, 8186.000000, 8164.000000
2111, 11081184.000000, 628.000000, 8358.000000, 8246.000000, 8316.000000
2112, 11081344.000000, 550.000000, 8337.000000, 8004.000000, 8106.000000
2113, 11081504.000000, 501.500000, 8035.000000, 8054.000000, 7953.000000
2114, 11081664.000000, 444.000000, 8116.000000, 8177.000000, 8104.000000
2115, 11081824.000000, 370.000000, 8171.000000, 8223.000000, 8204.000000
2116, 11081984.000000, 319.000000, 8184.000000, 8228.000000, 8216.000000
2117, 11082144.000000, 323.500000, 8191.000000, 8234.000000, 8227.000000
2118, 11082304.000000, 358.000000, 8198.000000, 8243.000000, 8240.000000
2119, 11082464.000000, 388.500000, 8208.000000, 8257.000000, 8261.000000
2120, 11082624.000000, 408.000000, 8216.000000, 8275.000000, 8284.000000
2121, 11082784.000000, 424.500000, 8224.000000, 8295.000000, 8309.000000
2122, 11082944.000000, 457.000000, 8228.000000, 8307.000000, 8322.000000
2123, 11083104.000000, 509.000000, 8228.000000, 8304.000000, 8319.000000
2124, 11083264.000000, 575.000000, 8226.000000, 8289.000000, 8303.000000
2125, 11083424.000000, 652.500000, 8214.000000, 8259.000000, 8271.000000
2126, 11083584.000000, 738.000000, 8188.000000, 8219.000000, 8221.000000
2127, 11083744.000000, 834.000000, 8172.000000, 8189.000000, 8181.000000
2128, 11083904.000000, 935.000000, 8170.000000, 8178.000000, 8167.000000
2129, 11084064.000000, 1033.000000, 8174.000000, 8174.000000, 8165.000000
2130, 11084224.000000, 1128.000000, 8171.000000, 8170.000000, 8159.000000
2131, 11084384.000000, 1216.500000, 8170.000000, 8164.000000, 8151.000000
2132, 11084544.000000, 1300.000000, 8168.000000, 8160.000000, 8145.000000
2133, 11084704.000000, 1367.000000, 8168.000000, 8157.000000, 8142.000000
2134, 11084864.000000, 1439.000000, 8170.000000, 8161.000000, 8148.000000
2135, 11085024.000000, 1583.000000, 8174.000000, 8170.000000, 8173.000000
2136, 11085184.000000, 1904.000000, 8184.000000, 8168.000000, 8178.000000
2137, 11085344.000000, 2358.000000, 8185.000000, 8169.000000, 8166.000000
2138, 11085504.000000, 2776.000000, 8161.000000, 8153.000000, 8126.000000
2139, 11085664.000000, 2997.500000, 8160.000000, 8155.000000, 8127.000000
2140, 11085824.000000, 3048.000000, 8163.000000, 8157.000000, 8131.000000
2141, 11085984.000000, 3011.500000, 8170.000000, 8235.000000, 8224.000000
2142, 11086144.000000, 2984.000000, 8573.000000, 8084.000000, 8271.000000
2143, 11086304.000000, 2993.500000, 8032.000000, 7987.000000, 7924.000000
2144, 11086464.000000, 2983.000000, 8071.000000, 8102.000000, 7993.000000
2145, 11086624.000000, 2919.500000, 8159.000000, 8208.000000, 8179.000000
2146, 11086784.000000, 2843.000000, 8177.000000, 8218.000000, 8201.000000
2147, 11086944.000000, 2830.000000, 8185.000000, 8223.000000, 8210.000000
2148, 11087104.000000, 2880.000000, 8192.000000, 8232.000000, 8225.000000
2149, 11087264.000000, 2955.000000, 8202.000000, 8246.000000, 8246.000000
2150, 11087424.000000, 2991.000000, 8212.000000, 8265.000000, 8273.000000
2151, 11087584.000000, 2953.000000, 8222.000000, 8284.000000, 8297.000000
2152, 11087744.000000, 2848.000000, 8230.000000, 8305.000000, 8323.000000
2153, 11087904.000000, 2724.000000, 8230.000000, 8312.000000, 8330.000000
2154, 11088064.000000, 2607.000000, 8228.000000, 8305.000000, 8320.000000
2155, 11088224.000000, 2512.500000, 8223.000000, 8280.000000, 8296.000000
2156, 11088384.000000, 2443.000000, 8201.000000, 8234.000000, 8243.000000
2157, 11088544.000000, 2388.500000, 8176.000000, 8193.000000, 8186.000000
2158, 11088704.000000, 2337.000000, 8169.000000, 8173.000000, 8163.000000
2159, 11088864.000000, 2281.500000, 8170.000000, 8167.000000, 8156.000000
2160, 11089024.000000, 2221.000000, 8172.000000, 8163.000000, 8153.000000
2161, 11089184.000000, 2175.000000, 8171.000000, 8157.000000, 8146.000000
2162, 11089344.000000, 2140.000000, 8171.000000, 8150.000000, 8139.000000
2163, 11089504.000000, 2094.500000, 8169.000000, 8143.000000, 8129.000000
2164, 11089664.000000, 2036.000000, 8168.000000, 8139.000000, 8124.000000
2165, 11089824.000000, 2040.500000, 8167.000000, 8136.000000, 8119.000000
2166, 11089984.000000, 2207.000000, 8176.000000, 8142.000000, 8142.000000
2167, 11090144.000000, 2561.000000, 8185.000000, 8148.000000, 8164.000000
2168, 11090304.000000, 2904.000000, 8190.000000, 8139.000000, 8143.000000
2169, 11090464.000000, 3075.000000, 8171.000000, 8126.000000, 8109.000000
2170, 11090624.000000, 3057.000000, 8163.000000, 8118.000000, 8094.000000
2171, 11090784.000000, 2966.000000, 8164.000000, 8117.000000, 8094.000000
2172, 11090944.000000, 2906.000000, 8158.000000, 8124.000000, 8101.000000
2173, 11091104.000000, 2898.500000, 8345.000000, 8187.000000, 8254.000000
2174, 11091264.000000, 2890.000000, 8369.000000, 7891.000000, 8004.000000
2175, 11091424.000000, 2853.000000, 8028.000000, 7963.000000, 7853.000000
2176, 11091584.000000, 2795.000000, 8120.000000, 8110.000000, 8043.000000
2177, 11091744.000000, 2760.500000, 8170.000000, 8148.000000, 8131.000000
2178, 11091904.000000, 2761.000000, 8181.000000, 8146.000000, 8134.000000
2179, 11092064.000000, 2778.000000, 8191.000000, 8152.000000, 8147.000000
2180, 11092224.000000, 2747.000000, 8198.000000, 8158.000000, 8159.000000
2181, 11092384.000000, 2643.500000, 8206.000000, 8169.000000, 8177.000000
2182, 11092544.000000, 2517.000000, 8217.000000, 8186.000000, 8200.000000
2183, 11092704.000000, 2397.000000, 8224.000000, 8205.000000, 8223.000000
2184, 11092864.000000, 2292.000000, 8233.000000, 8219.000000, 8243.000000
2185, 11093024.000000, 2236.000000, 8233.000000, 8219.000000, 8243.000000
2186, 11093184.000000, 2189.000000, 8230.000000, 8203.000000, 8225.000000
2187, 11093344.000000, 2130.500000, 8219.000000, 8168.000000, 8189.000000
2188, 11093504.000000, 2085.000000, 8191.000000, 8119.000000, 8125.000000
2189, 11093664.000000, 2049.000000, 8174.000000, 8089.000000, 8086.000000
2190, 11093824.000000, 1999.000000, 8170.000000, 8077.000000, 8070.000000
2191, 11093984.000000, 1938.500000, 8173.000000, 8072.000000, 8065.000000
2192, 11094144.000000, 1885.000000, 8175.000000, 8070.000000, 8064.000000
2193, 11094304.000000, 1832.000000, 8175.000000, 8065.000000, 8057.000000
2194, 11094464.000000, 1788.000000, 8173.000000, 8061.000000, 8050.000000
2195, 11094624.000000, 1832.000000, 8173.000000, 8058.000000, 8047.000000
2196, 11094784.000000, 2043.000000, 8171.000000, 8057.000000, 8044.000000
2197, 11094944.000000, 2422.000000, 8170.000000, 8055.000000, 8040.000000
2198, 11095104.000000, 2777.000000, 8169.000000, 8057.000000, 8041.000000
2199, 11095264.000000, 2964.000000, 8170.000000, 8061.000000, 8046.000000
2200, 11095424.000000, 2974.000000, 8177.000000, 8073.000000, 8078.000000
2201, 11095584.000000, 2910.000000, 8193.000000, 8084.000000, 8092.000000
2202, 11095744.000000, 2855.000000, 8191.000000, 8076.000000, 8076.000000
2203, 11095904.000000, 2834.000000, 8171.000000, 8066.000000, 8047.000000
2204, 11096064.000000, 2821.000000, 8169.000000, 8070.000000, 8048.000000
2205, 11096224.000000, 2775.000000, 8174.000000, 8073.000000, 8054.000000
2206, 11096384.000000, 2721.000000, 8165.000000, 8124.000000, 8113.000000
2207, 11096544.000000, 2718.000000, 8530.000000, 8045.000000, 8203.000000
2208, 11096704.000000, 2781.000000, 8098.000000, 7883.000000, 7864.000000
2209, 11096864.000000, 2866.000000, 8067.000000, 7988.000000, 7876.000000
2210, 11097024.000000, 2932.000000, 8162.000000, 8123.000000, 8090.000000
2211, 11097184.000000, 2952.500000, 8187.000000, 8122.000000, 8110.000000
2212, 11097344.000000, 2927.000000, 8194.000000, 8130.000000, 8121.000000
2213, 11097504.000000, 2835.500000, 8201.000000, 8146.000000, 8141.000000
2214, 11097664.000000, 2724.000000, 8209.000000, 8165.000000, 8167.000000
2215, 11097824.000000, 2624.000000, 8221.000000, 8184.000000, 8194.000000
2216, 11097984.000000, 2557.000000, 8231.000000, 8207.000000, 8222.000000
2217, 11098144.000000, 2500.000000, 8241.000000, 8229.000000, 8249.000000
2218, 11098304.000000, 2428.000000, 8245.000000, 8243.000000, 8263.000000
2219, 11098464.000000, 2348.500000, 8242.000000, 8245.000000, 8265.000000
2220, 11098624.000000, 2269.000000, 8241.000000, 8231.000000, 8251.000000
2221, 11098784.000000, 2202.500000, 8225.000000, 8195.000000, 8210.000000
2222, 11098944.000000, 2150.000000, 8197.000000, 8150.000000, 8150.000000
2223, 11099104.000000, 2100.500000, 8186.000000, 8125.000000, 8118.000000
2224, 11099264.000000, 2043.000000, 8183.000000, 8121.000000, 8112.000000
2225, 11099424.000000, 1988.500000, 8184.000000, 8124.000000, 8114.000000
2226, 11099584.000000, 1932.000000, 8186.000000, 8124.000000, 8115.000000
2227, 11099744.000000, 1858.000000, 8188.000000, 8123.000000, 8112.000000
2228, 11099904.000000, 1788.000000, 8186.000000, 8124.000000, 8111.000000
2229, 11100064.000000, 1837.500000, 8182.000000, 8127.000000, 8110.000000
2230, 11100224.000000, 2071.000000, 8182.000000, 8131.000000, 8114.000000
2231, 11100384.000000, 2431.000000, 8181.000000, 8135.000000, 8117.000000
2232, 11100544.000000, 2713.000000, 8181.000000, 8138.000000, 8120.000000
2233, 11100704.000000, 2815.000000, 8181.000000, 8143.000000, 8125.000000
2234, 11100864.000000, 2774.000000, 8182.000000, 8149.000000, 8132.000000
2235, 11101024.000000, 2679.500000, 8177.000000, 8151.000000, 8134.000000
2236, 11101184.000000, 2602.000000, 8187.000000, 8174.000000, 8160.000000
2237, 11101344.000000, 2559.500000, 8190.000000, 8168.000000, 8154.000000
2238, 11101504.000000, 2506.000000, 8195.000000, 8176.000000, 8165.000000
2239, 11101664.000000, 2403.500000, 8182.000000, 8177.000000, 8160.000000
2240, 11101824.000000, 2274.000000, 8183.000000, 8184.000000, 8169.000000
2241, 11101984.000000, 2180.500000, 8183.000000, 8191.000000, 8178.000000
2242, 11102144.000000, 2144.000000, 8264.000000, 8279.000000, 8306.000000
2243, 11102304.000000, 2144.000000, 8540.000000, 8052.000000, 8233.000000
2244, 11102464.000000, 2141.000000, 8053.000000, 8067.000000, 7992.000000
2245, 11102624.000000, 2104.500000, 8113.000000, 8179.000000, 8096.000000
2246, 11102784.000000, 2054.000000, 8183.000000, 8254.000000, 8241.000000
2247, 11102944.000000, 2003.000000, 8196.000000, 8262.000000, 8256.000000
2248, 11103104.000000, 1959.000000, 8201.000000, 8272.000000, 8267.000000
2249, 11103264.000000, 1930.500000, 8211.000000, 8287.000000, 8287.000000
2250, 11103424.000000, 1910.000000, 8217.000000, 8302.000000, 8304.000000
2251, 11103584.000000, 1893.000000, 8229.000000, 8320.000000, 8328.000000
2252, 11103744.000000, 1872.000000, 8238.000000, 8341.000000, 8353.000000
2253, 11103904.000000, 1849.000000, 8247.000000, 8358.000000, 8374.000000
2254, 11104064.000000, 1831.000000, 8248.000000, 8364.000000, 8380.000000
2255, 11104224.000000, 1820.500000, 8243.000000, 8358.000000, 8371.000000
2256, 11104384.000000, 1798.000000, 8239.000000, 8339.000000, 8353.000000
2257, 11104544.000000, 1761.500000, 8212.000000, 8306.000000, 8310.000000
2258, 11104704.000000, 1715.000000, 8187.000000, 8271.000000, 8261.000000
2259, 11104864.000000, 1668.000000, 8178.000000, 8254.000000, 8240.000000
2260, 11105024.000000, 1622.000000, 8175.000000, 8250.000000, 8234.000000
2261, 11105184.000000, 1568.500000, 8177.000000, 8245.000000, 8230.000000
2262, 11105344.000000, 1496.000000, 8179.000000, 8241.000000, 8226.000000
2263, 11105504.000000, 1401.500000, 8179.000000, 8237.000000, 8220.000000
2264, 11105664.000000, 1361.000000, 8173.000000, 8233.000000, 8214.000000
2265, 11105824.000000, 1497.000000, 8172.000000, 8232.000000, 8212.000000
2266, 11105984.000000, 1842.000000, 8169.000000, 8229.000000, 8207.000000
2267, 11106144.000000, 2251.500000, 8171.000000, 8230.000000, 8209.000000
2268, 11106304.000000, 2543.000000, 8171.000000, 8232.000000, 8211.000000
2269, 11106464.000000, 2620.500000, 8171.000000, 8234.000000, 8215.000000
2270, 11106624.000000, 2587.000000, 8171.000000, 8235.000000, 8216.000000
2271, 11106784.000000, 2540.500000, 8172.000000, 8236.000000, 8220.000000
2272, 11106944.000000, 2542.000000, 8175.000000, 8247.000000, 8235.000000
2273, 11107104.000000, 2564.500000, 8178.000000, 8244.000000, 8224.000000
2274, 11107264.000000, 2558.000000, 8186.000000, 8243.000000, 8230.000000
2275, 11107424.000000, 2511.000000, 8175.000000, 8242.000000, 8226.000000
2276, 11107584.000000, 2482.000000, 8174.000000, 8242.000000, 8227.000000
2277, 11107744.000000, 2515.000000, 8174.000000, 8242.000000, 8227.000000
2278, 11107904.000000, 2585.000000, 8174.000000, 8317.000000, 8314.000000
2279, 11108064.000000, 2632.500000, 8595.000000, 8206.000000, 8400.000000
2280, 11108224.000000, 2615.000000, 8071.000000, 8092.000000, 8061.000000
2281, 11108384.000000, 2538.000000, 8073.000000, 8161.000000, 8059.000000
2282, 11108544.000000, 2433.000000, 8163.000000, 8281.000000, 8257.000000
2283, 11108704.000000, 2309.000000, 8186.000000, 8296.000000, 8291.000000
2284, 11108864.000000, 2172.000000, 8196.000000, 8302.000000, 8302.000000
2285, 11109024.000000, 2037.500000, 8202.000000, 8309.000000, 8313.000000
2286, 11109184.000000, 1913.000000, 8208.000000, 8319.000000, 8327.000000
2287, 11109344.000000, 1803.000000, 8218.000000, 8332.000000, 8342.000000
2288, 11109504.000000, 1698.000000, 8230.000000, 8348.000000, 8366.000000
2289, 11109664.000000, 1600.000000, 8239.000000, 8363.000000, 8387.000000
2290, 11109824.000000, 1515.000000, 8245.000000, 8370.000000, 8396.000000
2291, 11109984.000000, 1453.500000, 8239.000000, 8360.000000, 8382.000000
2292, 11110144.000000, 1410.000000, 8238.000000, 8344.000000, 8366.000000
2293, 11110304.000000, 1373.000000, 8219.000000, 8317.000000, 8334.000000
2294, 11110464.000000, 1333.000000, 8192.000000, 8279.000000, 8282.000000
2295, 11110624.000000, 1291.500000, 8173.000000, 8253.000000, 8246.000000
2296, 11110784.000000, 1259.000000, 8169.000000, 8242.000000, 8232.000000
2297, 11110944.000000, 1246.500000, 8172.000000, 8236.000000, 8228.000000
2298, 11111104.000000, 1250.000000, 8174.000000, 8230.000000, 8223.000000
2299, 11111264.000000, 1242.000000, 8175.000000, 8225.000000, 8217.000000
2300, 11111424.000000, 1234.000000, 8171.000000, 8217.000000, 8208.000000
2301, 11111584.000000, 1343.000000, 8169.000000, 8213.000000, 8201.000000
2302, 11111744.000000, 1652.000000, 8167.000000, 8211.000000, 8196.000000
2303, 11111904.000000, 2127.500000, 8167.000000, 8209.000000, 8194.000000
2304, 11112064.000000, 2551.000000, 8168.000000, 8208.000000, 8195.000000
2305, 11112224.000000, 2769.000000, 8168.000000, 8209.000000, 8198.000000
2306, 11112384.000000, 2785.000000, 8167.000000, 8207.000000, 8194.000000
2307, 11112544.000000, 2726.000000, 8169.000000, 8207.000000, 8195.000000
2308, 11112704.000000, 2685.000000, 8171.000000, 8214.000000, 8205.000000
2309, 11112864.000000, 2696.500000, 8174.000000, 8217.000000, 8198.000000
2310, 11113024.000000, 2707.000000, 8182.000000, 8209.000000, 8198.000000
2311, 11113184.000000, 2658.500000, 8174.000000, 8206.000000, 8195.000000
2312, 11113344.000000, 2569.000000, 8169.000000, 8205.000000, 8191.000000
2313, 11113504.000000, 2514.000000, 8170.000000, 8206.000000, 8193.000000
2314, 11113664.000000, 2526.000000, 8161.000000, 8262.000000, 8262.000000
2315, 11113824.000000, 2568.500000, 8544.000000, 8195.000000, 8361.000000
2316, 11113984.000000, 2587.000000, 8119.000000, 8060.000000, 8068.000000
2317, 11114144.000000, 2546.500000, 8057.000000, 8103.000000, 8006.000000
2318, 11114304.000000, 2457.000000, 8142.000000, 8225.000000, 8189.000000
2319, 11114464.000000, 2329.000000, 8177.000000, 8249.000000, 8246.000000
2320, 11114624.000000, 2188.000000, 8184.000000, 8256.000000, 8258.000000
2321, 11114784.000000, 2078.500000, 8192.000000, 8261.000000, 8266.000000
2322, 11114944.000000, 1989.000000, 8201.000000, 8270.000000, 8281.000000
2323, 11115104.000000, 1888.500000, 8209.000000, 8281.000000, 8295.000000
2324, 11115264.000000, 1783.000000, 8224.000000, 8296.000000, 8318.000000
2325, 11115424.000000, 1692.000000, 8233.000000, 8312.000000, 8338.000000
2326, 11115584.000000, 1630.000000, 8242.000000, 8317.000000, 8347.000000
2327, 11115744.000000, 1596.000000, 8241.000000, 8315.000000, 8343.000000
2328, 11115904.000000, 1566.000000, 8236.000000, 8299.000000, 8325.000000
2329, 11116064.000000, 1538.000000, 8223.000000, 8278.000000, 8302.000000
2330, 11116224.000000, 1502.000000, 8190.000000, 8241.000000, 8249.000000
2331, 11116384.000000, 1455.000000, 8167.000000, 8209.000000, 8204.000000
2332, 11116544.000000, 1410.000000, 8161.000000, 8197.000000, 8186.000000
2333, 11116704.000000, 1345.000000, 8165.000000, 8192.000000, 8183.000000
2334, 11116864.000000, 1243.000000, 8167.000000, 8191.000000, 8182.000000
2335, 11117024.000000, 1076.000000, 8171.000000, 8185.000000, 8180.000000
2336, 11117184.000000, 844.000000, 8167.000000, 8179.000000, 8172.000000
2337, 11117344.000000, 636.500000, 8165.000000, 8173.000000, 8164.000000
2338, 11117504.000000, 595.000000, 8163.000000, 8172.000000, 8162.000000
2339, 11117664.000000, 784.000000, 8163.000000, 8173.000000, 8163.000000
2340, 11117824.000000, 1053.000000, 8160.000000, 8172.000000, 8160.000000
2341, 11117984.000000, 1185.000000, 8156.000000, 8170.000000, 8157.000000
2342, 11118144.000000, 1147.000000, 8164.000000, 8181.000000, 8170.000000
2343, 11118304.000000, 989.500000, 8168.000000, 8177.000000, 8166.000000
2344, 11118464.000000, 830.000000, 8172.000000, 8177.000000, 8165.000000
2345, 11118624.000000, 721.000000, 8160.000000, 8175.000000, 8159.000000
2346, 11118784.000000, 645.000000, 8164.000000, 8175.000000, 8162.000000
2347, 11118944.000000, 550.500000, 8163.000000, 8178.000000, 8166.000000
2348, 11119104.000000, 425.000000, 8204.000000, 8262.000000, 8273.000000
2349, 11119264.000000, 318.000000, 8539.000000, 8101.000000, 8285.000000
2350, 11119424.000000, 275.000000, 8032.000000, 8080.000000, 8033.000000
2351, 11119584.000000, 292.500000, 8079.000000, 8134.000000, 8044.000000
2352, 11119744.000000, 301.000000, 8164.000000, 8215.000000, 8198.000000
2353, 11119904.000000, 267.000000, 8179.000000, 8225.000000, 8220.000000
2354, 11120064.000000, 192.000000, 8188.000000, 8234.000000, 8236.000000
2355, 11120224.000000, 102.000000, 8196.000000, 8242.000000, 8248.000000
2356, 11120384.000000, 24.000000, 8203.000000, 8252.000000, 8260.000000
2357, 11120544.000000, 4.500000, 8213.000000, 8268.000000, 8279.000000
2358, 11120704.000000, 1.000000, 8225.000000, 8287.000000, 8304.000000
2359, 11120864.000000, 1.000000, 8236.000000, 8305.000000, 8327.000000
2360, 11121024.000000, 1.000000, 8241.000000, 8308.000000, 8330.000000
2361, 11121184.000000, 1.000000, 8238.000000, 8296.000000, 8316.000000
2362, 11121344.000000, 5.000000, 8231.000000, 8275.000000, 8294.000000
2363, 11121504.000000, 40.500000, 8199.000000, 8243.000000, 8253.000000
2364, 11121664.000000, 110.000000, 8167.000000, 8209.000000, 8204.000000
2365, 11121824.000000, 211.500000, 8156.000000, 8188.000000, 8177.000000
2366, 11121984.000000, 331.000000, 8156.000000, 8183.000000, 8170.000000
2367, 11122144.000000, 457.000000, 8161.000000, 8180.000000, 8169.000000
2368, 11122304.000000, 576.000000, 8163.000000, 8177.000000, 8167.000000
2369, 11122464.000000, 677.500000, 8165.000000, 8173.000000, 8164.000000
2370, 11122624.000000, 763.000000, 8162.000000, 8170.000000, 8159.000000
2371, 11122784.000000, 903.500000, 8159.000000, 8166.000000, 8153.000000
2372, 11122944.000000, 1165.000000, 8159.000000, 8164.000000, 8149.000000
2373, 11123104.000000, 1583.500000, 8160.000000, 8164.000000, 8148.000000
2374, 11123264.000000, 1991.000000, 8155.000000, 8163.000000, 8146.000000
2375, 11123424.000000, 2254.500000, 8167.000000, 8182.000000, 8171.000000
2376, 11123584.000000, 2348.000000, 8166.000000, 8167.000000, 8153.000000
2377, 11123744.000000, 2345.000000, 8171.000000, 8168.000000, 8155.000000
2378, 11123904.000000, 2326.000000, 8160.000000, 8166.000000, 8150.000000
2379, 11124064.000000, 2322.500000, 8161.000000, 8169.000000, 8154.000000
2380, 11124224.000000, 2328.000000, 8162.000000, 8171.000000, 8158.000000
2381, 11124384.000000, 2295.500000, 8188.000000, 8257.000000, 8267.000000
2382, 11124544.000000, 2233.000000, 8570.000000, 8049.000000, 8248.000000
2383, 11124704.000000, 2168.500000, 8030.000000, 8006.000000, 7937.000000
2384, 11124864.000000, 2146.000000, 8082.000000, 8141.000000, 8051.000000
2385, 11125024.000000, 2164.000000, 8162.000000, 8225.000000, 8212.000000
2386, 11125184.000000, 2181.000000, 8178.000000, 8232.000000, 8228.000000
2387, 11125344.000000, 2143.000000, 8186.000000, 8237.000000, 8238.000000
2388, 11125504.000000, 2049.000000, 8193.000000, 8248.000000, 8252.000000
2389, 11125664.000000, 1925.500000, 8201.000000, 8261.000000, 8270.000000
2390, 11125824.000000, 1821.000000, 8212.000000, 8279.000000, 8295.000000
2391, 11125984.000000, 1765.000000, 8222.000000, 8299.000000, 8320.000000
2392, 11126144.000000, 1762.000000, 8235.000000, 8320.000000, 8348.000000
2393, 11126304.000000, 1801.000000, 8240.000000, 8327.000000, 8356.000000
2394, 11126464.000000, 1853.000000, 8234.000000, 8321.000000, 8346.000000
2395, 11126624.000000, 1900.000000, 8228.000000, 8296.000000, 8321.000000
2396, 11126784.000000, 1932.000000, 8200.000000, 8246.000000, 8258.000000
2397, 11126944.000000, 1947.000000, 8171.000000, 8198.000000, 8191.000000
2398, 11127104.000000, 1952.000000, 8158.000000, 8178.000000, 8163.000000
2399, 11127264.000000, 1948.500000, 8157.000000, 8174.000000, 8160.000000
2400, 11127424.000000, 1940.000000, 8160.000000, 8174.000000, 8162.000000
2401, 11127584.000000, 1929.500000, 8165.000000, 8170.000000, 8159.000000
2402, 11127744.000000, 1902.000000, 8166.000000, 8164.000000, 8154.000000
2403, 11127904.000000, 1857.000000, 8165.000000, 8160.000000, 8147.000000
2404, 11128064.000000, 1861.000000, 8161.000000, 8158.000000, 8143.000000
2405, 11128224.000000, 2039.500000, 8160.000000, 8157.000000, 8141.000000
2406, 11128384.000000, 2364.000000, 8159.000000, 8158.000000, 8141.000000
2407, 11128544.000000, 2701.000000, 8160.000000, 8157.000000, 8143.000000
2408, 11128704.000000, 2886.000000, 8155.000000, 8160.000000, 8133.000000
2409, 11128864.000000, 2907.500000, 8160.000000, 8163.000000, 8135.000000
2410, 11129024.000000, 2837.000000, 8175.000000, 8163.000000, 8149.000000
2411, 11129184.000000, 2746.500000, 8168.000000, 8163.000000, 8150.000000
2412, 11129344.000000, 2683.000000, 8163.000000, 8162.000000, 8148.000000
2413, 11129504.000000, 2650.000000, 8164.000000, 8165.000000, 8150.000000
2414, 11129664.000000, 2610.000000, 8157.000000, 8201.000000, 8195.000000
2415, 11129824.000000, 2547.000000, 8450.000000, 8182.000000, 8309.000000
2416, 11129984.000000, 2473.000000, 8221.000000, 7976.000000, 8030.000000
2417, 11130144.000000, 2436.500000, 8043.000000, 8052.000000, 7952.000000
2418, 11130304.000000, 2441.000000, 8136.000000, 8191.000000, 8149.000000
2419, 11130464.000000, 2453.000000, 8175.000000, 8223.000000, 8217.000000
2420, 11130624.000000, 2429.000000, 8185.000000, 8229.000000, 8229.000000
2421, 11130784.000000, 2342.500000, 8190.000000, 8237.000000, 8241.000000
2422, 11130944.000000, 2215.000000, 8198.000000, 8248.000000, 8255.000000
2423, 11131104.000000, 2066.000000, 8209.000000, 8260.000000, 8272.000000
2424, 11131264.000000, 1919.000000, 8223.000000, 8278.000000, 8296.000000
2425, 11131424.000000, 1779.500000, 8234.000000, 8298.000000, 8323.000000
2426, 11131584.000000, 1647.000000, 8242.000000, 8309.000000, 8337.000000
2427, 11131744.000000, 1534.500000, 8242.000000, 8308.000000, 8334.000000
2428, 11131904.000000, 1431.000000, 8237.000000, 8294.000000, 8317.000000
2429, 11132064.000000, 1327.500000, 8217.000000, 8264.000000, 8282.000000
2430, 11132224.000000, 1220.000000, 8187.000000, 8220.000000, 8226.000000
2431, 11132384.000000, 1103.500000, 8164.000000, 8188.000000, 8179.000000
2432, 11132544.000000, 981.000000, 8158.000000, 8177.000000, 8164.000000
2433, 11132704.000000, 866.000000, 8162.000000, 8173.000000, 8162.000000
2434, 11132864.000000, 756.000000, 8166.000000, 8171.000000, 8161.000000
2435, 11133024.000000, 660.000000, 8169.000000, 8166.000000, 8156.000000
2436, 11133184.000000, 564.000000, 8165.000000, 8162.000000, 8149.000000
2437, 11133344.000000, 501.500000, 8162.000000, 8157.000000, 8142.000000
2438, 11133504.000000, 554.000000, 8163.000000, 8155.000000, 8139.000000
2439, 11133664.000000, 783.000000, 8162.000000, 8156.000000, 8139.000000
2440, 11133824.000000, 1085.000000, 8161.000000, 8155.000000, 8138.000000
2441, 11133984.000000, 1300.000000, 8152.000000, 8149.000000, 8128.000000
2442, 11134144.000000, 1351.000000, 8164.000000, 8168.000000, 8145.000000
2443, 11134304.000000, 1299.500000, 8167.000000, 8157.000000, 8138.000000
2444, 11134464.000000, 1244.000000, 8174.000000, 8161.000000, 8148.000000
2445, 11134624.000000, 1262.500000, 8163.000000, 8159.000000, 8141.000000
2446, 11134784.000000, 1350.000000, 8163.000000, 8160.000000, 8144.000000
2447, 11134944.000000, 1472.500000, 8167.000000, 8162.000000, 8149.000000
2448, 11135104.000000, 1586.000000, 8182.000000, 8245.000000, 8253.000000
2449, 11135264.000000, 1679.500000, 8594.000000, 8066.000000, 8273.000000
2450, 11135424.000000, 1781.000000, 8035.000000, 8004.000000, 7943.000000
2451, 11135584.000000, 1910.500000, 8077.000000, 8117.000000, 8022.000000
2452, 11135744.000000, 2059.000000, 8164.000000, 8214.000000, 8201.000000
2453, 11135904.000000, 2183.000000, 8182.000000, 8224.000000, 8224.000000
2454, 11136064.000000, 2255.000000, 8188.000000, 8231.000000, 8233.000000
2455, 11136224.000000, 2263.500000, 8194.000000, 8241.000000, 8247.000000
2456, 11136384.000000, 2243.000000, 8201.000000, 8251.000000, 8260.000000
2457, 11136544.000000, 2225.500000, 8213.000000, 8265.000000, 8278.000000
2458, 11136704.000000, 2227.000000, 8225.000000, 8285.000000, 8306.000000
2459, 11136864.000000, 2234.500000, 8235.000000, 8305.000000, 8329.000000
2460, 11137024.000000, 2253.000000, 8238.000000, 8314.000000, 8340.000000
2461, 11137184.000000, 2260.500000, 8234.000000, 8308.000000, 8331.000000
2462, 11137344.000000, 2257.000000, 8228.000000, 8287.000000, 8308.000000
2463, 11137504.000000, 2250.000000, 8204.000000, 8244.000000, 8255.000000
2464, 11137664.000000, 2240.000000, 8176.000000, 8203.000000, 8198.000000
2465, 11137824.000000, 2216.000000, 8158.000000, 8181.000000, 8168.000000
2466, 11137984.000000, 2175.000000, 8161.000000, 8174.000000, 8161.000000
2467, 11138144.000000, 2138.000000, 8163.000000, 8171.000000, 8161.000000
2468, 11138304.000000, 2114.000000, 8164.000000, 8165.000000, 8156.000000
2469, 11138464.000000, 2097.500000, 8167.000000, 8160.000000, 8153.000000
2470, 11138624.000000, 2081.000000, 8161.000000, 8156.000000, 8143.000000
2471, 11138784.000000, 2118.000000, 8161.000000, 8152.000000, 8137.000000
2472, 11138944.000000, 2313.000000, 8162.000000, 8149.000000, 8134.000000
2473, 11139104.000000, 2659.000000, 8162.000000, 8147.000000, 8132.000000
2474, 11139264.000000, 3023.000000, 8162.000000, 8147.000000, 8132.000000
2475, 11139424.000000, 3241.000000, 8162.000000, 8148.000000, 8133.000000
2476, 11139584.000000, 3297.000000, 8159.000000, 8144.000000, 8127.000000
2477, 11139744.000000, 3259.000000, 8163.000000, 8155.000000, 8133.000000
2478, 11139904.000000, 3207.000000, 8168.000000, 8150.000000, 8129.000000
2479, 11140064.000000, 3170.500000, 8178.000000, 8151.000000, 8139.000000
2480, 11140224.000000, 3134.000000, 8169.000000, 8152.000000, 8138.000000
2481, 11140384.000000, 3073.500000, 8169.000000, 8153.000000, 8141.000000
2482, 11140544.000000, 2974.000000, 8172.000000, 8154.000000, 8144.000000
2483, 11140704.000000, 2861.000000, 8164.000000, 8219.000000, 8219.000000
2484, 11140864.000000, 2773.000000, 8564.000000, 8137.000000, 8316.000000
2485, 11141024.000000, 2710.500000, 8078.000000, 8073.000000, 8068.000000
2486, 11141184.000000, 2625.000000, 8061.000000, 8078.000000, 7992.000000
2487, 11141344.000000, 2487.500000, 8138.000000, 8165.000000, 8124.000000
2488, 11141504.000000, 2298.000000, 8182.000000, 8195.000000, 8192.000000
2489, 11141664.000000, 2084.000000, 8189.000000, 8203.000000, 8206.000000
2490, 11141824.000000, 1857.000000, 8196.000000, 8210.000000, 8216.000000
2491, 11141984.000000, 1635.500000, 8205.000000, 8217.000000, 8227.000000
2492, 11142144.000000, 1426.000000, 8213.000000, 8228.000000, 8239.000000
2493, 11142304.000000, 1247.000000, 8225.000000, 8244.000000, 8261.000000
2494, 11142464.000000, 1112.000000, 8237.000000, 8262.000000, 8285.000000
2495, 11142624.000000, 1018.000000, 8241.000000, 8270.000000, 8294.000000
2496, 11142784.000000, 944.000000, 8239.000000, 8264.000000, 8286.000000
2497, 11142944.000000, 867.500000, 8237.000000, 8249.000000, 8270.000000
2498, 11143104.000000, 777.000000, 8217.000000, 8233.000000, 8249.000000
2499, 11143264.000000, 687.500000, 8188.000000, 8208.000000, 8216.000000
2500, 11143424.000000, 621.000000, 8168.000000, 8180.000000, 8175.000000
2501, 11143584.000000, 569.500000, 8164.000000, 8169.000000, 8160.000000
2502, 11143744.000000, 514.000000, 8168.000000, 8163.000000, 8154.000000
2503, 11143904.000000, 448.000000, 8172.000000, 8161.000000, 8155.000000
2504, 11144064.000000, 380.000000, 8169.000000, 8156.000000, 8146.000000
2505, 11144224.000000, 316.000000, 8166.000000, 8153.000000, 8141.000000
2506, 11144384.000000, 279.000000, 8164.000000, 8149.000000, 8134.000000
2507, 11144544.000000, 383.500000, 8163.000000, 8148.000000, 8132.000000
2508, 11144704.000000, 668.000000, 8161.000000, 8146.000000, 8127.000000
2509, 11144864.000000, 1073.500000, 8160.000000, 8148.000000, 8130.000000
2510, 11145024.000000, 1420.000000, 8162.000000, 8148.000000, 8131.000000
2511, 11145184.000000, 1610.500000, 8157.000000, 8143.000000, 8123.000000
2512, 11145344.000000, 1691.000000, 8165.000000, 8160.000000, 8137.000000
2513, 11145504.000000, 1748.500000, 8166.000000, 8151.000000, 8129.000000
2514, 11145664.000000, 1820.000000, 8177.000000, 8152.000000, 8139.000000
2515, 11145824.000000, 1901.500000, 8166.000000, 8154.000000, 8138.000000
2516, 11145984.000000, 1966.000000, 8166.000000, 8153.000000, 8139.000000
2517, 11146144.000000, 1990.000000, 8169.000000, 8158.000000, 8146.000000
2518, 11146304.000000, 2011.000000, 8161.000000, 8229.000000, 8226.000000
2519, 11146464.000000, 2076.000000, 8569.000000, 8100.000000, 8292.000000
2520, 11146624.000000, 2184.000000, 8068.000000, 7973.000000, 7940.000000
2521, 11146784.000000, 2293.500000, 8069.000000, 8087.000000, 7988.000000
2522, 11146944.000000, 2365.000000, 8163.000000, 8207.000000, 8191.000000
2523, 11147104.000000, 2385.500000, 8180.000000, 8218.000000, 8215.000000
2524, 11147264.000000, 2377.000000, 8187.000000, 8226.000000, 8226.000000
2525, 11147424.000000, 2350.000000, 8194.000000, 8235.000000, 8239.000000
2526, 11147584.000000, 2318.000000, 8202.000000, 8246.000000, 8254.000000
2527, 11147744.000000, 2284.000000, 8213.000000, 8260.000000, 8273.000000
2528, 11147904.000000, 2258.000000, 8223.000000, 8279.000000, 8295.000000
2529, 11148064.000000, 2233.000000, 8234.000000, 8301.000000, 8326.000000
2530, 11148224.000000, 2206.000000, 8236.000000, 8313.000000, 8337.000000
2531, 11148384.000000, 2182.500000, 8234.000000, 8311.000000, 8334.000000
2532, 11148544.000000, 2159.000000, 8229.000000, 8293.000000, 8313.000000
2533, 11148704.000000, 2123.500000, 8211.000000, 8251.000000, 8265.000000
2534, 11148864.000000, 2090.000000, 8184.000000, 8203.000000, 8203.000000
2535, 11149024.000000, 2046.500000, 8166.000000, 8177.000000, 8167.000000
2536, 11149184.000000, 1993.000000, 8162.000000, 8168.000000, 8155.000000
2537, 11149344.000000, 1933.500000, 8163.000000, 8164.000000, 8150.000000
2538, 11149504.000000, 1866.000000, 8165.000000, 8160.000000, 8147.000000
2539, 11149664.000000, 1791.000000, 8168.000000, 8156.000000, 8143.000000
2540, 11149824.000000, 1699.000000, 8168.000000, 8152.000000, 8139.000000
2541, 11149984.000000, 1623.500000, 8164.000000, 8149.000000, 8132.000000
2542, 11150144.000000, 1652.000000, 8164.000000, 8147.000000, 8130.000000
2543, 11150304.000000, 1858.500000, 8166.000000, 8147.000000, 8131.000000
2544, 11150464.000000, 2154.000000, 8165.000000, 8149.000000, 8132.000000
2545, 11150624.000000, 2385.500000, 8163.000000, 8149.000000, 8131.000000
2546, 11150784.000000, 2464.000000, 8166.000000, 8151.000000, 8135.000000
2547, 11150944.000000, 2411.500000, 8159.000000, 8149.000000, 8124.000000
2548, 11151104.000000, 2315.000000, 8168.000000, 8160.000000, 8133.000000
2549, 11151264.000000, 2244.000000, 8179.000000, 8156.000000, 8143.000000
2550, 11151424.000000, 2221.000000, 8178.000000, 8158.000000, 8148.000000
2551, 11151584.000000, 2223.500000, 8169.000000, 8156.000000, 8142.000000
2552, 11151744.000000, 2211.000000, 8171.000000, 8158.000000, 8145.000000
2553, 11151904.000000, 2184.000000, 8170.000000, 8169.000000, 8160.000000
2554, 11152064.000000, 2172.000000, 8325.000000, 8243.000000, 8309.000000
2555, 11152224.000000, 2198.500000, 8445.000000, 7949.000000, 8103.000000
2556, 11152384.000000, 2237.000000, 8042.000000, 8024.000000, 7933.000000
2557, 11152544.000000, 2254.500000, 8121.000000, 8165.000000, 8103.000000
2558, 11152704.000000, 2228.000000, 8178.000000, 8217.000000, 8211.000000
2559, 11152864.000000, 2181.000000, 8189.000000, 8224.000000, 8225.000000
2560, 11153024.000000, 2133.000000, 8197.000000, 8232.000000, 8238.000000
2561, 11153184.000000, 2097.000000, 8204.000000, 8240.000000, 8249.000000
2562, 11153344.000000, 2067.000000, 8210.000000, 8253.000000, 8264.000000
2563, 11153504.000000, 2037.500000, 8221.000000, 8271.000000, 8289.000000
2564, 11153664.000000, 2014.000000, 8232.000000, 8293.000000, 8315.000000
2565, 11153824.000000, 1996.500000, 8240.000000, 8312.000000, 8339.000000
2566, 11153984.000000, 1976.000000, 8240.000000, 8313.000000, 8340.000000
2567, 11154144.000000, 1949.000000, 8235.000000, 8303.000000, 8325.000000
2568, 11154304.000000, 1912.000000, 8226.000000, 8272.000000, 8292.000000
2569, 11154464.000000, 1883.000000, 8199.000000, 8225.000000, 8233.000000
2570, 11154624.000000, 1864.000000, 8176.000000, 8185.000000, 8182.000000
2571, 11154784.000000, 1853.000000, 8167.000000, 8167.000000, 8158.000000
2572, 11154944.000000, 1842.000000, 8166.000000, 8163.000000, 8153.000000
2573, 11155104.000000, 1829.500000, 8171.000000, 8161.000000, 8154.000000
2574, 11155264.000000, 1827.000000, 8170.000000, 8158.000000, 8149.000000
2575, 11155424.000000, 1821.500000, 8169.000000, 8154.000000, 8144.000000
2576, 11155584.000000, 1795.000000, 8168.000000, 8148.000000, 8137.000000
2577, 11155744.000000, 1800.000000, 8167.000000, 8145.000000, 8130.000000
2578, 11155904.000000, 1922.000000, 8167.000000, 8146.000000, 8131.000000
2579, 11156064.000000, 2190.000000, 8166.000000, 8147.000000, 8133.000000
2580, 11156224.000000, 2485.000000, 8166.000000, 8147.000000, 8133.000000
2581, 11156384.000000, 2645.500000, 8167.000000, 8146.000000, 8131.000000
2582, 11156544.000000, 2675.000000, 8165.000000, 8148.000000, 8133.000000
2583, 11156704.000000, 2626.000000, 8159.000000, 8145.000000, 8124.000000
2584, 11156864.000000, 2572.000000, 8171.000000, 8165.000000, 8146.000000
2585, 11157024.000000, 2544.000000, 8175.000000, 8153.000000, 8139.000000
2586, 11157184.000000, 2542.000000, 8180.000000, 8156.000000, 8149.000000
2587, 11157344.000000, 2530.000000, 8170.000000, 8153.000000, 8140.000000
2588, 11157504.000000, 2491.000000, 8171.000000, 8157.000000, 8146.000000
2589, 11157664.000000, 2432.500000, 8172.000000, 8159.000000, 8149.000000
2590, 11157824.000000, 2389.000000, 8211.000000, 8248.000000, 8262.000000
2591, 11157984.000000, 2372.000000, 8569.000000, 8017.000000, 8221.000000
2592, 11158144.000000, 2356.000000, 8043.000000, 7999.000000, 7931.000000
2593, 11158304.000000, 2323.000000, 8100.000000, 8135.000000, 8055.000000
2594, 11158464.000000, 2265.000000, 8174.000000, 8215.000000, 8208.000000
2595, 11158624.000000, 2191.000000, 8189.000000, 8222.000000, 8225.000000
2596, 11158784.000000, 2130.000000, 8194.000000, 8229.000000, 8235.000000
2597, 11158944.000000, 2101.500000, 8203.000000, 8239.000000, 8249.000000
2598, 11159104.000000, 2095.000000, 8208.000000, 8251.000000, 8261.000000
2599, 11159264.000000, 2106.000000, 8219.000000, 8270.000000, 8287.000000
2600, 11159424.000000, 2119.000000, 8227.000000, 8292.000000, 8312.000000
2601, 11159584.000000, 2123.000000, 8236.000000, 8309.000000, 8333.000000
2602, 11159744.000000, 2122.000000, 8236.000000, 8316.000000, 8342.000000
2603, 11159904.000000, 2120.000000, 8231.000000, 8308.000000, 8331.000000
2604, 11160064.000000, 2108.000000, 8225.000000, 8284.000000, 8307.000000
2605, 11160224.000000, 2090.500000, 8206.000000, 8239.000000, 8255.000000
2606, 11160384.000000, 2070.000000, 8183.000000, 8196.000000, 8199.000000
2607, 11160544.000000, 2043.500000, 8171.000000, 8174.000000, 8169.000000
2608, 11160704.000000, 2015.000000, 8168.000000, 8166.000000, 8159.000000
2609, 11160864.000000, 2000.000000, 8169.000000, 8163.000000, 8157.000000
2610, 11161024.000000, 2009.000000, 8170.000000, 8158.000000, 8151.000000
2611, 11161184.000000, 2045.000000, 8171.000000, 8152.000000, 8145.000000
2612, 11161344.000000, 2079.000000, 8166.000000, 8148.000000, 8138.000000
2613, 11161504.000000, 2112.500000, 8164.000000, 8145.000000, 8132.000000
2614, 11161664.000000, 2234.000000, 8164.000000, 8145.000000, 8132.000000
2615, 11161824.000000, 2523.000000, 8161.000000, 8146.000000, 8131.000000
2616, 11161984.000000, 2890.000000, 8162.000000, 8146.000000, 8131.000000
2617, 11162144.000000, 3171.500000, 8164.000000, 8147.000000, 8132.000000
2618, 11162304.000000, 3268.000000, 8161.000000, 8150.000000, 8133.000000
2619, 11162464.000000, 3219.000000, 8164.000000, 8151.000000, 8136.000000
2620, 11162624.000000, 3118.000000, 8156.000000, 8149.000000, 8128.000000
2621, 11162784.000000, 3031.500000, 8168.000000, 8167.000000, 8146.000000
2622, 11162944.000000, 2970.000000, 8175.000000, 8155.000000, 8143.000000
2623, 11163104.000000, 2905.500000, 8176.000000, 8158.000000, 8149.000000
2624, 11163264.000000, 2821.000000, 8167.000000, 8157.000000, 8144.000000
2625, 11163424.000000, 2737.000000, 8167.000000, 8159.000000, 8148.000000
2626, 11163584.000000, 2690.000000, 8171.000000, 8161.000000, 8152.000000
2627, 11163744.000000, 2691.500000, 8232.000000, 8249.000000, 8271.000000
2628, 11163904.000000, 2710.000000, 8550.000000, 8019.000000, 8217.000000
2629, 11164064.000000, 2717.500000, 8039.000000, 8020.000000, 7951.000000
2630, 11164224.000000, 2701.000000, 8099.000000, 8140.000000, 8063.000000
2631, 11164384.000000, 2660.500000, 8173.000000, 8214.000000, 8207.000000
2632, 11164544.000000, 2597.000000, 8189.000000, 8223.000000, 8226.000000
2633, 11164704.000000, 2524.500000, 8194.000000, 8230.000000, 8236.000000
2634, 11164864.000000, 2445.000000, 8201.000000, 8239.000000, 8246.000000
2635, 11165024.000000, 2369.500000, 8210.000000, 8252.000000, 8265.000000
2636, 11165184.000000, 2300.000000, 8217.000000, 8266.000000, 8282.000000
2637, 11165344.000000, 2224.500000, 8228.000000, 8287.000000, 8308.000000
2638, 11165504.000000, 2141.000000, 8233.000000, 8303.000000, 8327.000000
2639, 11165664.000000, 2036.000000, 8233.000000, 8309.000000, 8333.000000
2640, 11165824.000000, 1934.000000, 8229.000000, 8300.000000, 8320.000000
2641, 11165984.000000, 1848.000000, 8224.000000, 8278.000000, 8298.000000
2642, 11166144.000000, 1772.000000, 8205.000000, 8239.000000, 8251.000000
2643, 11166304.000000, 1702.500000, 8184.000000, 8196.000000, 8196.000000
2644, 11166464.000000, 1646.000000, 8172.000000, 8176.000000, 8170.000000
2645, 11166624.000000, 1620.000000, 8169.000000, 8165.000000, 8157.000000
2646, 11166784.000000, 1622.000000, 8167.000000, 8160.000000, 8149.000000
2647, 11166944.000000, 1645.500000, 8166.000000, 8154.000000, 8142.000000
2648, 11167104.000000, 1672.000000, 8168.000000, 8152.000000, 8143.000000
2649, 11167264.000000, 1686.500000, 8166.000000, 8148.000000, 8136.000000
2650, 11167424.000000, 1696.000000, 8162.000000, 8147.000000, 8132.000000
2651, 11167584.000000, 1798.500000, 8161.000000, 8146.000000, 8129.000000
2652, 11167744.000000, 2056.000000, 8161.000000, 8146.000000, 8129.000000
2653, 11167904.000000, 2409.500000, 8164.000000, 8148.000000, 8133.000000
2654, 11168064.000000, 2688.000000, 8163.000000, 8148.000000, 8132.000000
2655, 11168224.000000, 2797.000000, 8164.000000, 8150.000000, 8135.000000
2656, 11168384.000000, 2787.000000, 8154.000000, 8146.000000, 8122.000000
2657, 11168544.000000, 2740.500000, 8169.000000, 8164.000000, 8142.000000
2658, 11168704.000000, 2720.000000, 8174.000000, 8154.000000, 8141.000000
2659, 11168864.000000, 2728.000000, 8175.000000, 8158.000000, 8148.000000
2660, 11169024.000000, 2734.000000, 8165.000000, 8155.000000, 8140.000000
2661, 11169184.000000, 2709.000000, 8166.000000, 8155.000000, 8143.000000
2662, 11169344.000000, 2670.000000, 8167.000000, 8160.000000, 8149.000000
2663, 11169504.000000, 2641.000000, 8240.000000, 8244.000000, 8269.000000
2664, 11169664.000000, 2629.000000, 8537.000000, 8022.000000, 8213.000000
2665, 11169824.000000, 2613.500000, 8038.000000, 8025.000000, 7954.000000
2666, 11169984.000000, 2572.000000, 8099.000000, 8139.000000, 8062.000000
2667, 11170144.000000, 2505.000000, 8173.000000, 8213.000000, 8206.000000
2668, 11170304.000000, 2424.000000, 8189.000000, 8221.000000, 8224.000000
2669, 11170464.000000, 2332.000000, 8194.000000, 8228.000000, 8232.000000
2670, 11170624.000000, 2232.000000, 8202.000000, 8239.000000, 8247.000000
2671, 11170784.000000, 2134.000000, 8210.000000, 8249.000000, 8262.000000
2672, 11170944.000000, 2062.000000, 8217.000000, 8264.000000, 8280.000000
2673, 11171104.000000, 2021.500000, 8230.000000, 8280.000000, 8304.000000
2674, 11171264.000000, 1999.000000, 8239.000000, 8299.000000, 8325.000000
2675, 11171424.000000, 1973.000000, 8239.000000, 8302.000000, 8328.000000
2676, 11171584.000000, 1945.000000, 8236.000000, 8292.000000, 8316.000000
2677, 11171744.000000, 1916.500000, 8229.000000, 8269.000000, 8291.000000
2678, 11171904.000000, 1891.000000, 8209.000000, 8233.000000, 8249.000000
2679, 11172064.000000, 1857.500000, 8183.000000, 8198.000000, 8201.000000
2680, 11172224.000000, 1809.000000, 8172.000000, 8177.000000, 8173.000000
2681, 11172384.000000, 1750.000000, 8169.000000, 8166.000000, 8158.000000
2682, 11172544.000000, 1682.000000, 8171.000000, 8161.000000, 8154.000000
2683, 11172704.000000, 1609.500000, 8170.000000, 8156.000000, 8145.000000
2684, 11172864.000000, 1534.000000, 8167.000000, 8153.000000, 8142.000000
2685, 11173024.000000, 1457.000000, 8164.000000, 8150.000000, 8135.000000
2686, 11173184.000000, 1391.000000, 8162.000000, 8147.000000, 8132.000000
2687, 11173344.000000, 1393.500000, 8163.000000, 8147.000000, 8131.000000
2688, 11173504.000000, 1556.000000, 8162.000000, 8147.000000, 8130.000000
2689, 11173664.000000, 1849.500000, 8165.000000, 8150.000000, 8135.000000
2690, 11173824.000000, 2130.000000, 8161.000000, 8149.000000, 8132.000000
2691, 11173984.000000, 2260.500000, 8155.000000, 8144.000000, 8123.000000
2692, 11174144.000000, 2206.000000, 8170.000000, 8165.000000, 8146.000000
2693, 11174304.000000, 2090.000000, 8172.000000, 8153.000000, 8137.000000
2694, 11174464.000000, 2024.000000, 8179.000000, 8157.000000, 8148.000000
2695, 11174624.000000, 1998.500000, 8166.000000, 8155.000000, 8141.000000
2696, 11174784.000000, 1983.000000, 8168.000000, 8155.000000, 8142.000000
2697, 11174944.000000, 1986.500000, 8170.000000, 8158.000000, 8149.000000
2698, 11175104.000000, 2016.000000, 8179.000000, 8237.000000, 8239.000000
2699, 11175264.000000, 2068.000000, 8596.000000, 8103.000000, 8309.000000
2700, 11175424.000000, 2125.000000, 8048.000000, 8026.000000, 7983.000000
2701, 11175584.000000, 2162.000000, 8078.000000, 8105.000000, 8012.000000
2702, 11175744.000000, 2164.000000, 8170.000000, 8207.000000, 8194.000000
2703, 11175904.000000, 2119.500000, 8189.000000, 8219.000000, 8220.000000
2704, 11176064.000000, 2051.000000, 8196.000000, 8228.000000, 8232.000000
2705, 11176224.000000, 1981.500000, 8201.000000, 8237.000000, 8242.000000
2706, 11176384.000000, 1918.000000, 8211.000000, 8247.000000, 8257.000000
2707, 11176544.000000, 1860.500000, 8218.000000, 8262.000000, 8276.000000
2708, 11176704.000000, 1799.000000, 8233.000000, 8279.000000, 8301.000000
2709, 11176864.000000, 1731.000000, 8242.000000, 8296.000000, 8322.000000
2710, 11177024.000000, 1664.000000, 8242.000000, 8302.000000, 8328.000000
2711, 11177184.000000, 1593.500000, 8239.000000, 8293.000000, 8317.000000
2712, 11177344.000000, 1523.000000, 8235.000000, 8274.000000, 8296.000000
2713, 11177504.000000, 1453.500000, 8213.000000, 8243.000000, 8260.000000
2714, 11177664.000000, 1388.000000, 8190.000000, 8210.000000, 8214.000000
2715, 11177824.000000, 1335.000000, 8173.000000, 8185.000000, 8178.000000
2716, 11177984.000000, 1296.000000, 8169.000000, 8176.000000, 8168.000000
2717, 11178144.000000, 1266.500000, 8170.000000, 8168.000000, 8157.000000
2718, 11178304.000000, 1232.000000, 8171.000000, 8163.000000, 8154.000000
2719, 11178464.000000, 1188.000000, 8167.000000, 8159.000000, 8146.000000
2720, 11178624.000000, 1157.000000, 8164.000000, 8156.000000, 8141.000000
2721, 11178784.000000, 1221.000000, 8165.000000, 8151.000000, 8136.000000
2722, 11178944.000000, 1437.000000, 8164.000000, 8149.000000, 8130.000000
2723, 11179104.000000, 1733.500000, 8166.000000, 8149.000000, 8133.000000
2724, 11179264.000000, 1982.000000, 8164.000000, 8148.000000, 8133.000000
2725, 11179424.000000, 2094.000000, 8162.000000, 8141.000000, 8128.000000
2726, 11179584.000000, 2115.000000, 8160.000000, 8140.000000, 8120.000000
2727, 11179744.000000, 2095.000000, 8165.000000, 8140.000000, 8119.000000
2728, 11179904.000000, 2083.000000, 8180.000000, 8136.000000, 8127.000000
2729, 11180064.000000, 2092.000000, 8173.000000, 8133.000000, 8122.000000
2730, 11180224.000000, 2101.000000, 8171.000000, 8131.000000, 8120.000000
2731, 11180384.000000, 2099.000000, 8175.000000, 8128.000000, 8120.000000
2732, 11180544.000000, 2101.000000, 8165.000000, 8155.000000, 8152.000000
2733, 11180704.000000, 2149.000000, 8463.000000, 8155.000000, 8283.000000
2734, 11180864.000000, 2231.000000, 8220.000000, 8011.000000, 8069.000000
2735, 11181024.000000, 2311.000000, 8059.000000, 8023.000000, 7948.000000
2736, 11181184.000000, 2344.000000, 8132.000000, 8110.000000, 8059.000000
2737, 11181344.000000, 2332.000000, 8188.000000, 8150.000000, 8152.000000
2738, 11181504.000000, 2295.000000, 8200.000000, 8153.000000, 8161.000000
2739, 11181664.000000, 2242.500000, 8207.000000, 8160.000000, 8171.000000
2740, 11181824.000000, 2183.000000, 8217.000000, 8166.000000, 8182.000000
2741, 11181984.000000, 2112.000000, 8223.000000, 8170.000000, 8186.000000
2742, 11182144.000000, 2020.000000, 8237.000000, 8178.000000, 8201.000000
2743, 11182304.000000, 1898.500000, 8248.000000, 8186.000000, 8214.000000
2744, 11182464.000000, 1749.000000, 8252.000000, 8185.000000, 8214.000000
2745, 11182624.000000, 1592.000000, 8249.000000, 8169.000000, 8196.000000
2746, 11182784.000000, 1432.000000, 8244.000000, 8141.000000, 8165.000000
2747, 11182944.000000, 1272.000000, 8230.000000, 8116.000000, 8138.000000
2748, 11183104.000000, 1115.000000, 8202.000000, 8079.000000, 8091.000000
2749, 11183264.000000, 961.000000, 8180.000000, 8037.000000, 8036.000000
2750, 11183424.000000, 820.000000, 8173.000000, 8014.000000, 8009.000000
2751, 11183584.000000, 695.500000, 8171.000000, 7999.000000, 7992.000000
2752, 11183744.000000, 598.000000, 8171.000000, 7990.000000, 7981.000000
2753, 11183904.000000, 530.000000, 8172.000000, 7980.000000, 7970.000000
2754, 11184064.000000, 472.000000, 8167.000000, 7972.000000, 7959.000000
2755, 11184224.000000, 429.000000, 8166.000000, 7967.000000, 7953.000000
2756, 11184384.000000, 451.000000, 8165.000000, 7963.000000, 7946.000000
2757, 11184544.000000, 611.000000, 8160.000000, 7958.000000, 7938.000000
2758, 11184704.000000, 833.000000, 8165.000000, 7971.000000, 7946.000000
2759, 11184864.000000, 997.000000, 8166.000000, 7964.000000, 7938.000000
2760, 11185024.000000, 1038.000000, 8176.000000, 7962.000000, 7943.000000
2761, 11185184.000000, 984.500000, 8164.000000, 7955.000000, 7932.000000
2762, 11185344.000000, 888.000000, 8164.000000, 7957.000000, 7934.000000
2763, 11185504.000000, 795.000000, 8165.000000, 7962.000000, 7941.000000
2764, 11185664.000000, 718.000000, 8157.000000, 8023.000000, 8009.000000
2765, 11185824.000000, 652.000000, 8519.000000, 7945.000000, 8100.000000
2766, 11185984.000000, 593.000000, 8090.000000, 7804.000000, 7785.000000
2767, 11186144.000000, 576.000000, 8059.000000, 7890.000000, 7783.000000
2768, 11186304.000000, 634.000000, 8152.000000, 8027.000000, 7992.000000
2769, 11186464.000000, 771.000000, 8180.000000, 8050.000000, 8037.000000
2770, 11186624.000000, 945.000000, 8187.000000, 8060.000000, 8050.000000
2771, 11186784.000000, 1112.000000, 8193.000000, 8073.000000, 8065.000000
2772, 11186944.000000, 1245.000000, 8202.000000, 8091.000000, 8087.000000
2773, 11187104.000000, 1340.000000, 8213.000000, 8111.000000, 8114.000000
2774, 11187264.000000, 1405.000000, 8225.000000, 8137.000000, 8146.000000
2775, 11187424.000000, 1446.500000, 8236.000000, 8163.000000, 8177.000000
2776, 11187584.000000, 1486.000000, 8238.000000, 8176.000000, 8190.000000
2777, 11187744.000000, 1536.000000, 8233.000000, 8174.000000, 8184.000000
2778, 11187904.000000, 1599.000000, 8231.000000, 8156.000000, 8167.000000
2779, 11188064.000000, 1659.500000, 8207.000000, 8123.000000, 8124.000000
2780, 11188224.000000, 1710.000000, 8183.000000, 8085.000000, 8072.000000
2781, 11188384.000000, 1751.500000, 8172.000000, 8065.000000, 8045.000000
2782, 11188544.000000, 1787.000000, 8169.000000, 8059.000000, 8037.000000
2783, 11188704.000000, 1823.000000, 8170.000000, 8079.000000, 8056.000000
2784, 11188864.000000, 1857.000000, 8171.000000, 8077.000000, 8054.000000
2785, 11189024.000000, 1881.000000, 8168.000000, 8066.000000, 8041.000000
2786, 11189184.000000, 1894.000000, 8167.000000, 8056.000000, 8027.000000
2787, 11189344.000000, 1935.500000, 8167.000000, 8044.000000, 8015.000000
2788, 11189504.000000, 2070.000000, 8167.000000, 8033.000000, 8004.000000
2789, 11189664.000000, 2333.500000, 8160.000000, 8020.000000, 7986.000000
2790, 11189824.000000, 2612.000000, 8170.000000, 8032.000000, 7997.000000
2791, 11189984.000000, 2777.500000, 8172.000000, 8012.000000, 7982.000000
2792, 11190144.000000, 2800.000000, 8177.000000, 8007.000000, 7984.000000
2793, 11190304.000000, 2739.500000, 8165.000000, 7994.000000, 7967.000000
2794, 11190464.000000, 2662.000000, 8167.000000, 7978.000000, 7953.000000
2795, 11190624.000000, 2602.500000, 8169.000000, 7959.000000, 7935.000000
2796, 11190784.000000, 2562.000000, 8186.000000, 8027.000000, 8022.000000
2797, 11190944.000000, 2529.500000, 8583.000000, 7851.000000, 8041.000000
2798, 11191104.000000, 2489.000000, 8041.000000, 7803.000000, 7738.000000
2799, 11191264.000000, 2457.500000, 8089.000000, 7916.000000, 7819.000000
2800, 11191424.000000, 2459.000000, 8174.000000, 8012.000000, 7993.000000
2801, 11191584.000000, 2491.500000, 8189.000000, 8015.000000, 8006.000000
2802, 11191744.000000, 2523.000000, 8195.000000, 8020.000000, 8015.000000
2803, 11191904.000000, 2511.500000, 8202.000000, 8029.000000, 8029.000000
2804, 11192064.000000, 2459.000000, 8211.000000, 8028.000000, 8034.000000
2805, 11192224.000000, 2375.500000, 8218.000000, 7997.000000, 8009.000000
2806, 11192384.000000, 2291.000000, 8227.000000, 7972.000000, 7990.000000
2807, 11192544.000000, 2226.500000, 8235.000000, 7983.000000, 8007.000000
2808, 11192704.000000, 2181.000000, 8235.000000, 7983.000000, 8009.000000
2809, 11192864.000000, 2152.000000, 8226.000000, 7977.000000, 8001.000000
2810, 11193024.000000, 2127.000000, 8212.000000, 7953.000000, 7977.000000
2811, 11193184.000000, 2091.500000, 8182.000000, 7914.000000, 7928.000000
2812, 11193344.000000, 2051.000000, 8160.000000, 7883.000000, 7887.000000
2813, 11193504.000000, 2015.500000, 8149.000000, 7872.000000, 7869.000000
2814, 11193664.000000, 1992.000000, 8149.000000, 7876.000000, 7876.000000
2815, 11193824.000000, 1980.500000, 8150.000000, 7878.000000, 7877.000000
2816, 11193984.000000, 1964.000000, 8150.000000, 7870.000000, 7869.000000
2817, 11194144.000000, 1932.000000, 8149.000000, 7859.000000, 7854.000000
2818, 11194304.000000, 1881.000000, 8149.000000, 7862.000000, 7857.000000
2819, 11194464.000000, 1897.000000, 8144.000000, 7870.000000, 7861.000000
2820, 11194624.000000, 2042.000000, 8145.000000, 7859.000000, 7851.000000
2821, 11194784.000000, 2299.500000, 8138.000000, 7864.000000, 7847.000000
2822, 11194944.000000, 2527.000000, 8148.000000, 7903.000000, 7883.000000
2823, 11195104.000000, 2621.500000, 8155.000000, 7916.000000, 7905.000000
2824, 11195264.000000, 2600.000000, 8160.000000, 7939.000000, 7935.000000
2825, 11195424.000000, 2528.500000, 8151.000000, 7943.000000, 7933.000000
2826, 11195584.000000, 2467.000000, 8154.000000, 7945.000000, 7937.000000
2827, 11195744.000000, 2436.000000, 8157.000000, 7955.000000, 7947.000000
2828, 11195904.000000, 2421.000000, 8206.000000, 8051.000000, 8071.000000
2829, 11196064.000000, 2395.500000, 8557.000000, 7864.000000, 8066.000000
2830, 11196224.000000, 2367.000000, 8034.000000, 7856.000000, 7798.000000
2831, 11196384.000000, 2357.500000, 8092.000000, 7986.000000, 7909.000000
2832, 11196544.000000, 2380.000000, 8170.000000, 8067.000000, 8062.000000
2833, 11196704.000000, 2408.500000, 8185.000000, 8077.000000, 8079.000000
2834, 11196864.000000, 2411.000000, 8196.000000, 8097.000000, 8103.000000
2835, 11197024.000000, 2372.000000, 8202.000000, 8114.000000, 8124.000000
2836, 11197184.000000, 2309.000000, 8211.000000, 8131.000000, 8145.000000
2837, 11197344.000000, 2237.000000, 8223.000000, 8154.000000, 8172.000000
2838, 11197504.000000, 2170.000000, 8234.000000, 8184.000000, 8207.000000
2839, 11197664.000000, 2110.000000, 8241.000000, 8206.000000, 8230.000000
2840, 11197824.000000, 2059.000000, 8240.000000, 8207.000000, 8230.000000
2841, 11197984.000000, 2024.000000, 8238.000000, 8195.000000, 8215.000000
2842, 11198144.000000, 2010.000000, 8227.000000, 8164.000000, 8182.000000
2843, 11198304.000000, 2021.500000, 8202.000000, 8118.000000, 8124.000000
2844, 11198464.000000, 2044.000000, 8183.000000, 8098.000000, 8095.000000
2845, 11198624.000000, 2065.000000, 8175.000000, 8090.000000, 8080.000000
2846, 11198784.000000, 2081.000000, 8174.000000, 8091.000000, 8080.000000
2847, 11198944.000000, 2089.500000, 8175.000000, 8091.000000, 8079.000000
2848, 11199104.000000, 2096.000000, 8174.000000, 8087.000000, 8072.000000
2849, 11199264.000000, 2093.000000, 8173.000000, 8084.000000, 8069.000000
2850, 11199424.000000, 2086.000000, 8171.000000, 8085.000000, 8068.000000
2851, 11199584.000000, 2142.000000, 8171.000000, 8085.000000, 8068.000000
2852, 11199744.000000, 2312.000000, 8169.000000, 8078.000000, 8058.000000
2853, 11199904.000000, 2580.500000, 8167.000000, 8077.000000, 8058.000000
2854, 11200064.000000, 2820.000000, 8167.000000, 8089.000000, 8062.000000
2855, 11200224.000000, 2939.000000, 8165.000000, 8094.000000, 8061.000000
2856, 11200384.000000, 2944.000000, 8180.000000, 8101.000000, 8084.000000
2857, 11200544.000000, 2895.000000, 8170.000000, 8110.000000, 8089.000000
2858, 11200704.000000, 2845.000000, 8167.000000, 8119.000000, 8098.000000
2859, 11200864.000000, 2820.000000, 8171.000000, 8131.000000, 8114.000000
2860, 11201024.000000, 2807.000000, 8165.000000, 8168.000000, 8159.000000
2861, 11201184.000000, 2785.500000, 8436.000000, 8182.000000, 8292.000000
2862, 11201344.000000, 2748.000000, 8246.000000, 7974.000000, 8039.000000
2863, 11201504.000000, 2724.000000, 8047.000000, 8043.000000, 7940.000000
2864, 11201664.000000, 2735.000000, 8139.000000, 8191.000000, 8143.000000
2865, 11201824.000000, 2766.000000, 8181.000000, 8225.000000, 8217.000000
2866, 11201984.000000, 2782.000000, 8188.000000, 8230.000000, 8225.000000
2867, 11202144.000000, 2762.000000, 8195.000000, 8227.000000, 8226.000000
2868, 11202304.000000, 2708.000000, 8201.000000, 8233.000000, 8238.000000
2869, 11202464.000000, 2620.000000, 8210.000000, 8250.000000, 8261.000000
2870, 11202624.000000, 2521.000000, 8217.000000, 8273.000000, 8287.000000
2871, 11202784.000000, 2423.000000, 8226.000000, 8294.000000, 8312.000000
2872, 11202944.000000, 2332.000000, 8229.000000, 8309.000000, 8329.000000
2873, 11203104.000000, 2251.000000, 8226.000000, 8312.000000, 8332.000000
2874, 11203264.000000, 2181.000000, 8221.000000, 8302.000000, 8320.000000
2875, 11203424.000000, 2126.500000, 8203.000000, 8275.000000, 8291.000000
2876, 11203584.000000, 2091.000000, 8175.000000, 8242.000000, 8242.000000
2877, 11203744.000000, 2080.500000, 8156.000000, 8219.000000, 8210.000000
2878, 11203904.000000, 2085.000000, 8151.000000, 8216.000000, 8204.000000
2879, 11204064.000000, 2099.500000, 8150.000000, 8218.000000, 8207.000000
2880, 11204224.000000, 2115.000000, 8151.000000, 8219.000000, 8209.000000
2881, 11204384.000000, 2124.500000, 8151.000000, 8219.000000, 8209.000000
2882, 11204544.000000, 2112.000000, 8152.000000, 8222.000000, 8209.000000
2883, 11204704.000000, 2096.000000, 8147.000000, 8227.000000, 8212.000000
2884, 11204864.000000, 2133.000000, 8146.000000, 8234.000000, 8217.000000
2885, 11205024.000000, 2285.000000, 8144.000000, 8238.000000, 8223.000000
2886, 11205184.000000, 2482.000000, 8138.000000, 8242.000000, 8217.000000
2887, 11205344.000000, 2620.000000, 8148.000000, 8256.000000, 8226.000000
2888, 11205504.000000, 2640.000000, 8158.000000, 8259.000000, 8244.000000
2889, 11205664.000000, 2561.000000, 8154.000000, 8270.000000, 8258.000000
2890, 11205824.000000, 2433.000000, 8144.000000, 8272.000000, 8257.000000
2891, 11205984.000000, 2295.000000, 8145.000000, 8280.000000, 8266.000000
2892, 11206144.000000, 2161.000000, 8147.000000, 8291.000000, 8280.000000
2893, 11206304.000000, 2031.500000, 8264.000000, 8375.000000, 8412.000000
2894, 11206464.000000, 1900.000000, 8422.000000, 8247.000000, 8393.000000
2895, 11206624.000000, 1786.000000, 8019.000000, 8248.000000, 8196.000000
2896, 11206784.000000, 1709.000000, 8076.000000, 8289.000000, 8209.000000
2897, 11206944.000000, 1661.500000, 8151.000000, 8367.000000, 8351.000000
2898, 11207104.000000, 1624.000000, 8168.000000, 8381.000000, 8376.000000
2899, 11207264.000000, 1572.500000, 8176.000000, 8394.000000, 8394.000000
2900, 11207424.000000, 1510.000000, 8184.000000, 8406.000000, 8408.000000
2901, 11207584.000000, 1433.500000, 8195.000000, 8422.000000, 8429.000000
2902, 11207744.000000, 1354.000000, 8203.000000, 8439.000000, 8447.000000
2903, 11207904.000000, 1272.500000, 8216.000000, 8463.000000, 8478.000000
2904, 11208064.000000, 1190.000000, 8224.000000, 8480.000000, 8498.000000
2905, 11208224.000000, 1122.500000, 8223.000000, 8480.000000, 8496.000000
2906, 11208384.000000, 1087.000000, 8220.000000, 8467.000000, 8481.000000
2907, 11208544.000000, 1073.500000, 8202.000000, 8449.000000, 8459.000000
2908, 11208704.000000, 1061.000000, 8173.000000, 8427.000000, 8427.000000
2909, 11208864.000000, 1034.500000, 8154.000000, 8404.000000, 8394.000000
2910, 11209024.000000, 999.000000, 8151.000000, 8393.000000, 8379.000000
2911, 11209184.000000, 964.000000, 8153.000000, 8392.000000, 8377.000000
2912, 11209344.000000, 931.000000, 8156.000000, 8390.000000, 8375.000000
2913, 11209504.000000, 905.500000, 8156.000000, 8389.000000, 8374.000000
2914, 11209664.000000, 893.000000, 8153.000000, 8387.000000, 8370.000000
2915, 11209824.000000, 914.500000, 8152.000000, 8386.000000, 8367.000000
2916, 11209984.000000, 998.000000, 8151.000000, 8383.000000, 8363.000000
2917, 11210144.000000, 1218.000000, 8151.000000, 8384.000000, 8364.000000
2918, 11210304.000000, 1561.000000, 8144.000000, 8384.000000, 8355.000000
2919, 11210464.000000, 1946.000000, 8150.000000, 8391.000000, 8356.000000
2920, 11210624.000000, 2246.000000, 8161.000000, 8388.000000, 8365.000000
2921, 11210784.000000, 2418.000000, 8160.000000, 8395.000000, 8377.000000
2922, 11210944.000000, 2491.000000, 8152.000000, 8396.000000, 8373.000000
2923, 11211104.000000, 2530.000000, 8154.000000, 8400.000000, 8378.000000
2924, 11211264.000000, 2576.000000, 8154.000000, 8411.000000, 8393.000000
2925, 11211424.000000, 2618.500000, 8301.000000, 8480.000000, 8532.000000
2926, 11211584.000000, 2632.000000, 8411.000000, 8175.000000, 8310.000000
2927, 11211744.000000, 2619.000000, 8029.000000, 8257.000000, 8156.000000
2928, 11211904.000000, 2620.000000, 8117.000000, 8411.000000, 8350.000000
2929, 11212064.000000, 2655.000000, 8170.000000, 8455.000000, 8444.000000
2930, 11212224.000000, 2704.000000, 8179.000000, 8459.000000, 8452.000000
2931, 11212384.000000, 2736.500000, 8187.000000, 8463.000000, 8461.000000
2932, 11212544.000000, 2739.000000, 8194.000000, 8474.000000, 8476.000000
2933, 11212704.000000, 2714.500000, 8204.000000, 8488.000000, 8495.000000
2934, 11212864.000000, 2672.000000, 8216.000000, 8507.000000, 8520.000000
2935, 11213024.000000, 2615.500000, 8227.000000, 8528.000000, 8548.000000
2936, 11213184.000000, 2553.000000, 8232.000000, 8542.000000, 8562.000000
2937, 11213344.000000, 2488.500000, 8230.000000, 8539.000000, 8559.000000
2938, 11213504.000000, 2435.000000, 8224.000000, 8519.000000, 8535.000000
2939, 11213664.000000, 2400.500000, 8209.000000, 8474.000000, 8486.000000
2940, 11213824.000000, 2382.000000, 8180.000000, 8418.000000, 8413.000000
2941, 11213984.000000, 2369.000000, 8165.000000, 8386.000000, 8373.000000
2942, 11214144.000000, 2349.000000, 8161.000000, 8373.000000, 8356.000000
2943, 11214304.000000, 2313.500000, 8161.000000, 8369.000000, 8352.000000
2944, 11214464.000000, 2272.000000, 8161.000000, 8365.000000, 8348.000000
2945, 11214624.000000, 2223.500000, 8165.000000, 8359.000000, 8344.000000
2946, 11214784.000000, 2170.000000, 8166.000000, 8351.000000, 8335.000000
2947, 11214944.000000, 2109.500000, 8163.000000, 8345.000000, 8327.000000
2948, 11215104.000000, 2091.000000, 8164.000000, 8340.000000, 8321.000000
2949, 11215264.000000, 2205.000000, 8163.000000, 8338.000000, 8318.000000
2950, 11215424.000000, 2435.000000, 8152.000000, 8329.000000, 8300.000000
2951, 11215584.000000, 2687.000000, 8161.000000, 8343.000000, 8312.000000
2952, 11215744.000000, 2847.000000, 8166.000000, 8328.000000, 8304.000000
2953, 11215904.000000, 2900.500000, 8171.000000, 8330.000000, 8311.000000
2954, 11216064.000000, 2895.000000, 8162.000000, 8325.000000, 8302.000000
2955, 11216224.000000, 2879.000000, 8163.000000, 8325.000000, 8305.000000
2956, 11216384.000000, 2874.000000, 8166.000000, 8324.000000, 8306.000000
2957, 11216544.000000, 2859.000000, 8187.000000, 8403.000000, 8403.000000
2958, 11216704.000000, 2825.000000, 8567.000000, 8195.000000, 8388.000000
2959, 11216864.000000, 2763.000000, 8034.000000, 8153.000000, 8083.000000
2960, 11217024.000000, 2708.000000, 8089.000000, 8284.000000, 8193.000000
2961, 11217184.000000, 2683.000000, 8169.000000, 8362.000000, 8346.000000
2962, 11217344.000000, 2685.000000, 8182.000000, 8365.000000, 8358.000000
2963, 11217504.000000, 2691.500000, 8189.000000, 8367.000000, 8364.000000
2964, 11217664.000000, 2689.000000, 8199.000000, 8373.000000, 8375.000000
2965, 11217824.000000, 2676.500000, 8206.000000, 8383.000000, 8389.000000
2966, 11217984.000000, 2658.000000, 8217.000000, 8396.000000, 8408.000000
2967, 11218144.000000, 2627.500000, 8228.000000, 8412.000000, 8429.000000
2968, 11218304.000000, 2585.000000, 8239.000000, 8426.000000, 8448.000000
2969, 11218464.000000, 2535.000000, 8237.000000, 8427.000000, 8448.000000
2970, 11218624.000000, 2484.000000, 8232.000000, 8410.000000, 8428.000000
2971, 11218784.000000, 2440.000000, 8219.000000, 8370.000000, 8385.000000
2972, 11218944.000000, 2402.000000, 8191.000000, 8314.000000, 8316.000000
2973, 11219104.000000, 2358.500000, 8169.000000, 8269.000000, 8257.000000
2974, 11219264.000000, 2307.000000, 8159.000000, 8248.000000, 8231.000000
2975, 11219424.000000, 2252.500000, 8158.000000, 8238.000000, 8221.000000
2976, 11219584.000000, 2203.000000, 8163.000000, 8227.000000, 8211.000000
2977, 11219744.000000, 2154.000000, 8164.000000, 8215.000000, 8200.000000
2978, 11219904.000000, 2096.000000, 8164.000000, 8203.000000, 8186.000000
2979, 11220064.000000, 2018.000000, 8162.000000, 8193.000000, 8176.000000
2980, 11220224.000000, 1962.000000, 8160.000000, 8182.000000, 8162.000000
2981, 11220384.000000, 2027.000000, 8161.000000, 8172.000000, 8151.000000
2982, 11220544.000000, 2225.000000, 8160.000000, 8163.000000, 8141.000000
2983, 11220704.000000, 2496.000000, 8159.000000, 8154.000000, 8133.000000
2984, 11220864.000000, 2711.000000, 8157.000000, 8154.000000, 8124.000000
2985, 11221024.000000, 2817.000000, 8160.000000, 8143.000000, 8111.000000
2986, 11221184.000000, 2838.000000, 8174.000000, 8135.000000, 8116.000000
2987, 11221344.000000, 2828.000000, 8166.000000, 8127.000000, 8107.000000
2988, 11221504.000000, 2828.000000, 8165.000000, 8120.000000, 8101.000000
2989, 11221664.000000, 2848.000000, 8168.000000, 8116.000000, 8099.000000
2990, 11221824.000000, 2863.000000, 8159.000000, 8135.000000, 8122.000000
2991, 11221984.000000, 2855.500000, 8411.000000, 8134.000000, 8235.000000
2992, 11222144.000000, 2836.000000, 8264.000000, 7885.000000, 7954.000000
2993, 11222304.000000, 2831.500000, 8045.000000, 7967.000000, 7864.000000
2994, 11222464.000000, 2854.000000, 8138.000000, 8110.000000, 8065.000000
2995, 11222624.000000, 2899.000000, 8180.000000, 8137.000000, 8130.000000
2996, 11222784.000000, 2942.000000, 8189.000000, 8135.000000, 8132.000000
2997, 11222944.000000, 2959.000000, 8195.000000, 8138.000000, 8137.000000
2998, 11223104.000000, 2936.000000, 8203.000000, 8142.000000, 8146.000000
2999, 11223264.000000, 2880.000000, 8215.000000, 8153.000000, 8163.000000
3000, 11223424.000000, 2804.000000, 8228.000000, 8166.000000, 8181.000000
3001, 11223584.000000, 2713.000000, 8239.000000, 8182.000000, 8204.000000
3002, 11223744.000000, 2619.000000, 8245.000000, 8189.000000, 8213.000000
3003, 11223904.000000, 2516.500000, 8241.000000, 8182.000000, 8202.000000
3004, 11224064.000000, 2416.000000, 8236.000000, 8162.000000, 8182.000000
3005, 11224224.000000, 2325.500000, 8217.000000, 8124.000000, 8136.000000
3006, 11224384.000000, 2248.000000, 8185.000000, 8074.000000, 8071.000000
3007, 11224544.000000, 2176.000000, 8172.000000, 8048.000000, 8038.000000
3008, 11224704.000000, 2105.000000, 8166.000000, 8040.000000, 8026.000000
3009, 11224864.000000, 2038.500000, 8170.000000, 8039.000000, 8026.000000
3010, 11225024.000000, 1982.000000, 8173.000000, 8036.000000, 8025.000000
3011, 11225184.000000, 1930.500000, 8172.000000, 8032.000000, 8022.000000
3012, 11225344.000000, 1866.000000, 8171.000000, 8028.000000, 8015.000000
3013, 11225504.000000, 1792.500000, 8170.000000, 8028.000000, 8013.000000
3014, 11225664.000000, 1785.000000, 8170.000000, 8027.000000, 8012.000000
3015, 11225824.000000, 1925.000000, 8168.000000, 8028.000000, 8013.000000
3016, 11225984.000000, 2198.000000, 8170.000000, 8034.000000, 8019.000000
3017, 11226144.000000, 2485.500000, 8170.000000, 8041.000000, 8024.000000
3018, 11226304.000000, 2672.000000, 8167.000000, 8040.000000, 8021.000000
3019, 11226464.000000, 2734.000000, 8173.000000, 8058.000000, 8035.000000
3020, 11226624.000000, 2727.000000, 8175.000000, 8058.000000, 8036.000000
3021, 11226784.000000, 2701.500000, 8184.000000, 8061.000000, 8049.000000
3022, 11226944.000000, 2688.000000, 8178.000000, 8066.000000, 8052.000000
3023, 11227104.000000, 2677.500000, 8176.000000, 8071.000000, 8058.000000
3024, 11227264.000000, 2636.000000, 8178.000000, 8079.000000, 8069.000000
3025, 11227424.000000, 2556.000000, 8173.000000, 8130.000000, 8127.000000
3026, 11227584.000000, 2468.000000, 8524.000000, 8086.000000, 8240.000000
3027, 11227744.000000, 2406.000000, 8123.000000, 8013.000000, 8028.000000
3028, 11227904.000000, 2364.000000, 8071.000000, 8019.000000, 7942.000000
3029, 11228064.000000, 2315.000000, 8141.000000, 8105.000000, 8056.000000
3030, 11228224.000000, 2243.000000, 8189.000000, 8147.000000, 8142.000000
3031, 11228384.000000, 2139.000000, 8199.000000, 8155.000000, 8157.000000
3032, 11228544.000000, 2020.000000, 8209.000000, 8168.000000, 8176.000000
3033, 11228704.000000, 1904.000000, 8216.000000, 8181.000000, 8190.000000
3034, 11228864.000000, 1795.000000, 8226.000000, 8197.000000, 8211.000000
3035, 11229024.000000, 1694.500000, 8236.000000, 8218.000000, 8236.000000
3036, 11229184.000000, 1595.000000, 8250.000000, 8240.000000, 8264.000000
3037, 11229344.000000, 1502.000000, 8252.000000, 8252.000000, 8277.000000
3038, 11229504.000000, 1417.000000, 8248.000000, 8247.000000, 8269.000000
3039, 11229664.000000, 1350.500000, 8241.000000, 8235.000000, 8255.000000
3040, 11229824.000000, 1290.000000, 8215.000000, 8218.000000, 8232.000000
3041, 11229984.000000, 1235.000000, 8185.000000, 8192.000000, 8194.000000
3042, 11230144.000000, 1182.000000, 8170.000000, 8173.000000, 8166.000000
3043, 11230304.000000, 1127.500000, 8169.000000, 8169.000000, 8161.000000
3044, 11230464.000000, 1078.000000, 8174.000000, 8171.000000, 8164.000000
3045, 11230624.000000, 1030.000000, 8176.000000, 8174.000000, 8167.000000
3046, 11230784.000000, 979.000000, 8175.000000, 8176.000000, 8168.000000
3047, 11230944.000000, 919.500000, 8171.000000, 8177.000000, 8166.000000
3048, 11231104.000000, 857.000000, 8170.000000, 8179.000000, 8166.000000
3049, 11231264.000000, 845.500000, 8167.000000, 8184.000000, 8169.000000
3050, 11231424.000000, 961.000000, 8166.000000, 8188.000000, 8174.000000
3051, 11231584.000000, 1215.500000, 8167.000000, 8194.000000, 8179.000000
3052, 11231744.000000, 1506.000000, 8168.000000, 8198.000000, 8187.000000
3053, 11231904.000000, 1723.500000, 8164.000000, 8209.000000, 8188.000000
3054, 11232064.000000, 1859.000000, 8166.000000, 8215.000000, 8189.000000
3055, 11232224.000000, 1945.000000, 8183.000000, 8219.000000, 8210.000000
3056, 11232384.000000, 2028.000000, 8177.000000, 8224.000000, 8215.000000
3057, 11232544.000000, 2120.500000, 8170.000000, 8227.000000, 8214.000000
3058, 11232704.000000, 2205.000000, 8173.000000, 8235.000000, 8226.000000
3059, 11232864.000000, 2253.500000, 8166.000000, 8259.000000, 8253.000000
3060, 11233024.000000, 2277.000000, 8382.000000, 8296.000000, 8390.000000
3061, 11233184.000000, 2303.000000, 8344.000000, 8012.000000, 8120.000000
3062, 11233344.000000, 2354.000000, 8050.000000, 8125.000000, 8026.000000
3063, 11233504.000000, 2429.500000, 8144.000000, 8291.000000, 8252.000000
3064, 11233664.000000, 2498.000000, 8184.000000, 8330.000000, 8328.000000
3065, 11233824.000000, 2532.000000, 8196.000000, 8338.000000, 8344.000000
3066, 11233984.000000, 2525.000000, 8202.000000, 8349.000000, 8355.000000
3067, 11234144.000000, 2491.000000, 8208.000000, 8365.000000, 8375.000000
3068, 11234304.000000, 2444.000000, 8218.000000, 8384.000000, 8400.000000
3069, 11234464.000000, 2394.000000, 8228.000000, 8407.000000, 8428.000000
3070, 11234624.000000, 2344.000000, 8239.000000, 8433.000000, 8461.000000
3071, 11234784.000000, 2307.000000, 8246.000000, 8450.000000, 8481.000000
3072, 11234944.000000, 2285.000000, 8245.000000, 8449.000000, 8479.000000
3073, 11235104.000000, 2273.000000, 8237.000000, 8433.000000, 8460.000000
3074, 11235264.000000, 2262.000000, 8213.000000, 8390.000000, 8407.000000
3075, 11235424.000000, 2244.000000, 8186.000000, 8341.000000, 8344.000000
3076, 11235584.000000, 2224.000000, 8168.000000, 8312.000000, 8305.000000
3077, 11235744.000000, 2205.000000, 8164.000000, 8307.000000, 8298.000000
3078, 11235904.000000, 2199.000000, 8166.000000, 8307.000000, 8299.000000
3079, 11236064.000000, 2200.000000, 8168.000000, 8307.000000, 8300.000000
3080, 11236224.000000, 2197.000000, 8169.000000, 8304.000000, 8298.000000
3081, 11236384.000000, 2172.500000, 8170.000000, 8298.000000, 8291.000000
3082, 11236544.000000, 2129.000000, 8168.000000, 8296.000000, 8287.000000
3083, 11236704.000000, 2112.000000, 8167.000000, 8294.000000, 8283.000000
3084, 11236864.000000, 2199.000000, 8164.000000, 8294.000000, 8281.000000
3085, 11237024.000000, 2453.500000, 8164.000000, 8292.000000, 8279.000000
3086, 11237184.000000, 2759.000000, 8164.000000, 8287.000000, 8274.000000
3087, 11237344.000000, 2991.000000, 8158.000000, 8279.000000, 8262.000000
3088, 11237504.000000, 3083.000000, 8168.000000, 8297.000000, 8280.000000
3089, 11237664.000000, 3067.500000, 8169.000000, 8284.000000, 8270.000000
3090, 11237824.000000, 3009.000000, 8176.000000, 8285.000000, 8278.000000
3091, 11237984.000000, 2959.500000, 8165.000000, 8284.000000, 8273.000000
3092, 11238144.000000, 2923.000000, 8167.000000, 8284.000000, 8275.000000
3093, 11238304.000000, 2880.000000, 8170.000000, 8288.000000, 8281.000000
3094, 11238464.000000, 2817.000000, 8167.000000, 8362.000000, 8368.000000
3095, 11238624.000000, 2747.500000, 8581.000000, 8219.000000, 8423.000000
3096, 11238784.000000, 2705.000000, 8061.000000, 8121.000000, 8093.000000
3097, 11238944.000000, 2701.000000, 8075.000000, 8223.000000, 8134.000000
3098, 11239104.000000, 2721.000000, 8163.000000, 8336.000000, 8326.000000
3099, 11239264.000000, 2737.000000, 8184.000000, 8345.000000, 8349.000000
3100, 11239424.000000, 2721.000000, 8189.000000, 8351.000000, 8358.000000
3101, 11239584.000000, 2666.500000, 8197.000000, 8359.000000, 8371.000000
3102, 11239744.000000, 2591.000000, 8204.000000, 8369.000000, 8384.000000
3103, 11239904.000000, 2509.500000, 8216.000000, 8384.000000, 8405.000000
3104, 11240064.000000, 2435.000000, 8230.000000, 8404.000000, 8432.000000
3105, 11240224.000000, 2370.000000, 8241.000000, 8422.000000, 8454.000000
3106, 11240384.000000, 2313.000000, 8243.000000, 8425.000000, 8458.000000
3107, 11240544.000000, 2253.000000, 8237.000000, 8415.000000, 8444.000000
3108, 11240704.000000, 2195.000000, 8228.000000, 8387.000000, 8414.000000
3109, 11240864.000000, 2140.500000, 8199.000000, 8342.000000, 8358.000000
3110, 11241024.000000, 2095.000000, 8168.000000, 8300.000000, 8303.000000
3111, 11241184.000000, 2050.500000, 8155.000000, 8279.000000, 8272.000000
3112, 11241344.000000, 2000.000000, 8154.000000, 8272.000000, 8264.000000
3113, 11241504.000000, 1946.500000, 8157.000000, 8269.000000, 8263.000000
3114, 11241664.000000, 1906.000000, 8159.000000, 8267.000000, 8262.000000
3115, 11241824.000000, 1870.500000, 8162.000000, 8262.000000, 8259.000000
3116, 11241984.000000, 1829.000000, 8160.000000, 8255.000000, 8249.000000
3117, 11242144.000000, 1773.500000, 8158.000000, 8251.000000, 8242.000000
3118, 11242304.000000, 1765.000000, 8157.000000, 8248.000000, 8238.000000
3119, 11242464.000000, 1889.000000, 8159.000000, 8247.000000, 8240.000000
3120, 11242624.000000, 2148.000000, 8158.000000, 8247.000000, 8238.000000
3121, 11242784.000000, 2434.500000, 8160.000000, 8246.000000, 8238.000000
3122, 11242944.000000, 2638.000000, 8158.000000, 8244.000000, 8235.000000
3123, 11243104.000000, 2720.000000, 8160.000000, 8252.000000, 8236.000000
3124, 11243264.000000, 2724.000000, 8159.000000, 8248.000000, 8227.000000
3125, 11243424.000000, 2696.500000, 8173.000000, 8247.000000, 8242.000000
3126, 11243584.000000, 2670.000000, 8166.000000, 8246.000000, 8240.000000
3127, 11243744.000000, 2642.500000, 8164.000000, 8244.000000, 8237.000000
3128, 11243904.000000, 2587.000000, 8167.000000, 8245.000000, 8240.000000
3129, 11244064.000000, 2505.500000, 8159.000000, 8271.000000, 8272.000000
3130, 11244224.000000, 2424.000000, 8413.000000, 8281.000000, 8395.000000
3131, 11244384.000000, 2381.000000, 8290.000000, 8061.000000, 8157.000000
3132, 11244544.000000, 2364.000000, 8046.000000, 8127.000000, 8043.000000
3133, 11244704.000000, 2338.000000, 8128.000000, 8253.000000, 8208.000000
3134, 11244864.000000, 2280.000000, 8180.000000, 8294.000000, 8299.000000
3135, 11245024.000000, 2195.000000, 8185.000000, 8299.000000, 8307.000000
3136, 11245184.000000, 2105.000000, 8193.000000, 8305.000000, 8315.000000
3137, 11245344.000000, 2021.500000, 8203.000000, 8315.000000, 8331.000000
3138, 11245504.000000, 1946.000000, 8214.000000, 8327.000000, 8347.000000
3139, 11245664.000000, 1870.500000, 8224.000000, 8345.000000, 8371.000000
3140, 11245824.000000, 1806.000000, 8238.000000, 8363.000000, 8395.000000
3141, 11245984.000000, 1760.000000, 8244.000000, 8372.000000, 8406.000000
3142, 11246144.000000, 1724.000000, 8243.000000, 8366.000000, 8399.000000
3143, 11246304.000000, 1694.500000, 8237.000000, 8348.000000, 8377.000000
3144, 11246464.000000, 1664.000000, 8215.000000, 8315.000000, 8339.000000
3145, 11246624.000000, 1628.500000, 8182.000000, 8270.000000, 8278.000000
3146, 11246784.000000, 1585.000000, 8162.000000, 8240.000000, 8237.000000
3147, 11246944.000000, 1545.000000, 8158.000000, 8231.000000, 8226.000000
3148, 11247104.000000, 1512.000000, 8161.000000, 8227.000000, 8222.000000
3149, 11247264.000000, 1495.000000, 8167.000000, 8225.000000, 8222.000000
3150, 11247424.000000, 1495.000000, 8166.000000, 8219.000000, 8215.000000
3151, 11247584.000000, 1496.000000, 8165.000000, 8214.000000, 8209.000000
3152, 11247744.000000, 1494.000000, 8165.000000, 8209.000000, 8204.000000
3153, 11247904.000000, 1521.000000, 8163.000000, 8206.000000, 8198.000000
3154, 11248064.000000, 1645.000000, 8162.000000, 8206.000000, 8199.000000
3155, 11248224.000000, 1917.000000, 8160.000000, 8203.000000, 8193.000000
3156, 11248384.000000, 2256.000000, 8162.000000, 8203.000000, 8194.000000
3157, 11248544.000000, 2534.000000, 8162.000000, 8205.000000, 8196.000000
3158, 11248704.000000, 2692.000000, 8155.000000, 8200.000000, 8181.000000
3159, 11248864.000000, 2737.500000, 8167.000000, 8216.000000, 8197.000000
3160, 11249024.000000, 2732.000000, 8174.000000, 8205.000000, 8200.000000
3161, 11249184.000000, 2722.500000, 8175.000000, 8208.000000, 8206.000000
3162, 11249344.000000, 2724.000000, 8165.000000, 8203.000000, 8196.000000
3163, 11249504.000000, 2725.000000, 8167.000000, 8204.000000, 8199.000000
3164, 11249664.000000, 2702.000000, 8168.000000, 8207.000000, 8204.000000
3165, 11249824.000000, 2660.000000, 8213.000000, 8287.000000, 8310.000000
3166, 11249984.000000, 2643.000000, 8574.000000, 8079.000000, 8283.000000
3167, 11250144.000000, 2665.000000, 8045.000000, 8069.000000, 8016.000000
3168, 11250304.000000, 2690.000000, 8095.000000, 8173.000000, 8098.000000
3169, 11250464.000000, 2690.000000, 8172.000000, 8252.000000, 8250.000000
3170, 11250624.000000, 2646.000000, 8185.000000, 8258.000000, 8266.000000
3171, 11250784.000000, 2571.000000, 8195.000000, 8262.000000, 8273.000000
3172, 11250944.000000, 2484.000000, 8200.000000, 8270.000000, 8282.000000
3173, 11251104.000000, 2397.500000, 8212.000000, 8284.000000, 8302.000000
3174, 11251264.000000, 2315.000000, 8222.000000, 8299.000000, 8322.000000
3175, 11251424.000000, 2238.000000, 8235.000000, 8317.000000, 8345.000000
3176, 11251584.000000, 2166.000000, 8249.000000, 8331.000000, 8366.000000
3177, 11251744.000000, 2102.000000, 8252.000000, 8331.000000, 8364.000000
3178, 11251904.000000, 2053.000000, 8246.000000, 8314.000000, 8345.000000
3179, 11252064.000000, 2018.000000, 8231.000000, 8285.000000, 8312.000000
3180, 11252224.000000, 1991.000000, 8198.000000, 8240.000000, 8255.000000
3181, 11252384.000000, 1963.500000, 8169.000000, 8201.000000, 8199.000000
3182, 11252544.000000, 1930.000000, 8159.000000, 8183.000000, 8176.000000
3183, 11252704.000000, 1899.000000, 8162.000000, 8178.000000, 8171.000000
3184, 11252864.000000, 1874.000000, 8165.000000, 8172.000000, 8167.000000
3185, 11253024.000000, 1853.500000, 8165.000000, 8164.000000, 8159.000000
3186, 11253184.000000, 1829.000000, 8165.000000, 8156.000000, 8149.000000
3187, 11253344.000000, 1795.500000, 8163.000000, 8147.000000, 8137.000000
3188, 11253504.000000, 1754.000000, 8165.000000, 8142.000000, 8133.000000
3189, 11253664.000000, 1756.000000, 8164.000000, 8136.000000, 8125.000000
3190, 11253824.000000, 1865.000000, 8159.000000, 8131.000000, 8118.000000
3191, 11253984.000000, 2091.500000, 8162.000000, 8126.000000, 8115.000000
3192, 11254144.000000, 2325.000000, 8163.000000, 8120.000000, 8108.000000
3193, 11254304.000000, 2462.000000, 8154.000000, 8112.000000, 8090.000000
3194, 11254464.000000, 2473.000000, 8168.000000, 8122.000000, 8101.000000
3195, 11254624.000000, 2404.500000, 8173.000000, 8103.000000, 8092.000000
3196, 11254784.000000, 2317.000000, 8176.000000, 8098.000000, 8091.000000
3197, 11254944.000000, 2249.500000, 8165.000000, 8088.000000, 8077.000000
3198, 11255104.000000, 2199.000000, 8169.000000, 8079.000000, 8071.000000
3199, 11255264.000000, 2156.500000, 8170.000000, 8070.000000, 8063.000000
3200, 11255424.000000, 2117.000000, 8179.000000, 8133.000000, 8137.000000
3201, 11255584.000000, 2102.500000, 8604.000000, 7956.000000, 8164.000000
3202, 11255744.000000, 2125.000000, 8046.000000, 7889.000000, 7841.000000
3203, 11255904.000000, 2169.000000, 8081.000000, 7975.000000, 7886.000000
3204, 11256064.000000, 2207.000000, 8165.000000, 8066.000000, 8055.000000
3205, 11256224.000000, 2218.500000, 8183.000000, 8069.000000, 8070.000000
3206, 11256384.000000, 2209.000000, 8194.000000, 8067.000000, 8073.000000
3207, 11256544.000000, 2195.000000, 8201.000000, 8070.000000, 8079.000000
3208, 11256704.000000, 2187.000000, 8211.000000, 8076.000000, 8090.000000
3209, 11256864.000000, 2180.000000, 8222.000000, 8086.000000, 8107.000000
3210, 11257024.000000, 2165.000000, 8235.000000, 8102.000000, 8130.000000
3211, 11257184.000000, 2151.000000, 8247.000000, 8111.000000, 8141.000000
3212, 11257344.000000, 2144.000000, 8252.000000, 8107.000000, 8138.000000
3213, 11257504.000000, 2140.500000, 8248.000000, 8094.000000, 8122.000000
3214, 11257664.000000, 2125.000000, 8232.000000, 8066.000000, 8090.000000
3215, 11257824.000000, 2092.500000, 8198.000000, 8025.000000, 8036.000000
3216, 11257984.000000, 2040.000000, 8167.000000, 7985.000000, 7980.000000
3217, 11258144.000000, 1983.500000, 8158.000000, 7970.000000, 7959.000000
3218, 11258304.000000, 1926.000000, 8157.000000, 7969.000000, 7957.000000
3219, 11258464.000000, 1892.500000, 8162.000000, 7970.000000, 7961.000000
3220, 11258624.000000, 1869.000000, 8162.000000, 7969.000000, 7960.000000
3221, 11258784.000000, 1832.000000, 8164.000000, 7967.000000, 7958.000000
3222, 11258944.000000, 1806.000000, 8163.000000, 7967.000000, 7957.000000
3223, 11259104.000000, 1859.500000, 8162.000000, 7966.000000, 7955.000000
3224, 11259264.000000, 2031.000000, 8160.000000, 7970.000000, 7956.000000
3225, 11259424.000000, 2268.500000, 8158.000000, 7974.000000, 7957.000000
3226, 11259584.000000, 2459.000000, 8163.000000, 7980.000000, 7966.000000
3227, 11259744.000000, 2530.500000, 8166.000000, 7986.000000, 7972.000000
3228, 11259904.000000, 2513.000000, 8158.000000, 7987.000000, 7970.000000
3229, 11260064.000000, 2453.000000, 8166.000000, 8012.000000, 7994.000000
3230, 11260224.000000, 2402.000000, 8168.000000, 8006.000000, 7993.000000
3231, 11260384.000000, 2374.500000, 8173.000000, 8012.000000, 8003.000000
3232, 11260544.000000, 2347.000000, 8164.000000, 8016.000000, 8005.000000
3233, 11260704.000000, 2309.500000, 8164.000000, 8026.000000, 8017.000000
3234, 11260864.000000, 2267.000000, 8165.000000, 8033.000000, 8026.000000
3235, 11261024.000000, 2247.000000, 8158.000000, 8109.000000, 8113.000000
3236, 11261184.000000, 2258.000000, 8575.000000, 8013.000000, 8207.000000
3237, 11261344.000000, 2270.500000, 8078.000000, 7901.000000, 7888.000000
3238, 11261504.000000, 2263.000000, 8062.000000, 7977.000000, 7882.000000
3239, 11261664.000000, 2234.000000, 8155.000000, 8108.000000, 8091.000000
3240, 11261824.000000, 2196.000000, 8178.000000, 8128.000000, 8130.000000
3241, 11261984.000000, 2158.000000, 8188.000000, 8139.000000, 8149.000000
3242, 11262144.000000, 2124.000000, 8194.000000, 8153.000000, 8165.000000
3243, 11262304.000000, 2086.000000, 8204.000000, 8170.000000, 8187.000000
