1748, 202993872.000000, 1936.000000, 8170.000000, 8197.000000, 8197.000000
1749, 202994032.000000, 2049.000000, 8187.000000, 8207.000000, 8221.000000
1750, 202994192.000000, 2087.500000, 8205.000000, 8221.000000, 8239.000000
1751, 202994352.000000, 2064.750000, 8184.000000, 8192.000000, 8194.000000
1752, 202994512.000000, 2014.750000, 8162.000000, 8177.000000, 8164.000000
1753, 202994672.000000, 1944.750000, 8168.000000, 8168.000000, 8155.000000
1754, 202994832.000000, 1863.000000, 8166.000000, 8165.000000, 8151.000000
1755, 202994992.000000, 1783.750000, 8196.000000, 8216.000000, 8214.000000
1756, 202995152.000000, 1714.750000, 8297.000000, 7875.000000, 7932.000000
1757, 202995312.000000, 1675.750000, 8068.000000, 7949.000000, 7876.000000
1758, 202995472.000000, 1662.000000, 8180.000000, 8197.000000, 8188.000000
1759, 202995632.000000, 1670.500000, 8186.000000, 8218.000000, 8213.000000
1760, 202995792.000000, 1683.750000, 8198.000000, 8224.000000, 8223.000000
1761, 202995952.000000, 1686.250000, 8189.000000, 8231.000000, 8228.000000
1762, 202996112.000000, 1665.750000, 8210.000000, 8238.000000, 8241.000000
1763, 202996272.000000, 1622.250000, 8207.000000, 8242.000000, 8249.000000
1764, 202996432.000000, 1564.500000, 8210.000000, 8247.000000, 8252.000000
1765, 202996592.000000, 1496.000000, 8227.000000, 8246.000000, 8264.000000
1766, 202996752.000000, 1426.250000, 8240.000000, 8260.000000, 8277.000000
1767, 202996912.000000, 1359.500000, 8260.000000, 8259.000000, 8287.000000
1768, 202997072.000000, 1297.250000, 8252.000000, 8251.000000, 8282.000000
1769, 202997232.000000, 1242.000000, 8249.000000, 8233.000000, 8264.000000
1770, 202997392.000000, 1195.000000, 8239.000000, 8217.000000, 8237.000000
1771, 202997552.000000, 1156.750000, 8204.000000, 8207.000000, 8218.000000
1772, 202997712.000000, 1128.750000, 8165.000000, 8205.000000, 8198.000000
1773, 202997872.000000, 1105.250000, 8180.000000, 8191.000000, 8190.000000
1774, 202998032.000000, 1087.500000, 8163.000000, 8188.000000, 8178.000000
1775, 202998192.000000, 1070.000000, 8161.000000, 8190.000000, 8179.000000
1776, 202998352.000000, 1050.250000, 8150.000000, 8200.000000, 8191.000000
1777, 202998512.000000, 1033.750000, 8155.000000, 8202.000000, 8189.000000
1778, 202998672.000000, 1011.750000, 8151.000000, 8204.000000, 8192.000000
1779, 202998832.000000, 988.500000, 8153.000000, 8192.000000, 8179.000000
1780, 202998992.000000, 980.250000, 8145.000000, 8187.000000, 8171.000000
1781, 202999152.000000, 1044.750000, 8154.000000, 8189.000000, 8177.000000
1782, 202999312.000000, 1220.250000, 8145.000000, 8200.000000, 8186.000000
1783, 202999472.000000, 1500.500000, 8139.000000, 8188.000000, 8170.000000
1784, 202999632.000000, 1806.500000, 8141.000000, 8186.000000, 8163.000000
1785, 202999792.000000, 2062.750000, 8145.000000, 8187.000000, 8171.000000
1786, 202999952.000000, 2223.500000, 8155.000000, 8189.000000, 8178.000000
1787, 203000112.000000, 2289.250000, 8155.000000, 8218.000000, 8218.000000
1788, 203000272.000000, 2282.750000, 8169.000000, 8240.000000, 8252.000000
1789, 203000432.000000, 2240.000000, 8179.000000, 8205.000000, 8207.000000
1790, 203000592.000000, 2181.000000, 8160.000000, 8177.000000, 8163.000000
1791, 203000752.000000, 2110.250000, 8136.000000, 8181.000000, 8161.000000
1792, 203000912.000000, 2032.250000, 8143.000000, 8182.000000, 8161.000000
1793, 203001072.000000, 1957.250000, 8174.000000, 8173.000000, 8158.000000
1794, 203001232.000000, 1897.500000, 8262.000000, 8146.000000, 8196.000000
1795, 203001392.000000, 1862.500000, 8156.000000, 7853.000000, 7830.000000
1796, 203001552.000000, 1849.250000, 8120.000000, 8137.000000, 8092.000000
1797, 203001712.000000, 1843.500000, 8165.000000, 8227.000000, 8218.000000
1798, 203001872.000000, 1832.000000, 8161.000000, 8238.000000, 8235.000000
1799, 203002032.000000, 1806.250000, 8182.000000, 8233.000000, 8230.000000
1800, 203002192.000000, 1763.500000, 8180.000000, 8237.000000, 8234.000000
1801, 203002352.000000, 1700.250000, 8183.000000, 8249.000000, 8252.000000
1802, 203002512.000000, 1621.000000, 8193.000000, 8259.000000, 8267.000000
1803, 203002672.000000, 1540.250000, 8189.000000, 8263.000000, 8268.000000
1804, 203002832.000000, 1458.250000, 8230.000000, 8257.000000, 8279.000000
1805, 203002992.000000, 1382.500000, 8230.000000, 8261.000000, 8285.000000
1806, 203003152.000000, 1311.500000, 8229.000000, 8262.000000, 8284.000000
1807, 203003312.000000, 1253.250000, 8240.000000, 8252.000000, 8279.000000
1808, 203003472.000000, 1203.500000, 8233.000000, 8231.000000, 8255.000000
1809, 203003632.000000, 1164.250000, 8194.000000, 8217.000000, 8227.000000
1810, 203003792.000000, 1134.250000, 8169.000000, 8211.000000, 8209.000000
1811, 203003952.000000, 1106.750000, 8137.000000, 8213.000000, 8198.000000
1812, 203004112.000000, 1078.250000, 8145.000000, 8209.000000, 8195.000000
1813, 203004272.000000, 1052.250000, 8132.000000, 8210.000000, 8193.000000
1814, 203004432.000000, 1036.500000, 8169.000000, 8198.000000, 8190.000000
1815, 203004592.000000, 1032.500000, 8162.000000, 8203.000000, 8194.000000
1816, 203004752.000000, 1027.500000, 8164.000000, 8205.000000, 8200.000000
1817, 203004912.000000, 1024.250000, 8156.000000, 8206.000000, 8197.000000
1818, 203005072.000000, 1026.500000, 8165.000000, 8195.000000, 8184.000000
1819, 203005232.000000, 1069.250000, 8148.000000, 8197.000000, 8183.000000
1820, 203005392.000000, 1205.500000, 8168.000000, 8184.000000, 8179.000000
1821, 203005552.000000, 1453.500000, 8163.000000, 8190.000000, 8180.000000
1822, 203005712.000000, 1762.250000, 8147.000000, 8198.000000, 8185.000000
1823, 203005872.000000, 2055.750000, 8155.000000, 8187.000000, 8174.000000
1824, 203006032.000000, 2274.000000, 8151.000000, 8188.000000, 8176.000000
1825, 203006192.000000, 2402.500000, 8168.000000, 8180.000000, 8173.000000
1826, 203006352.000000, 2453.500000, 8152.000000, 8192.000000, 8177.000000
1827, 203006512.000000, 2454.000000, 8163.000000, 8212.000000, 8212.000000
1828, 203006672.000000, 2435.000000, 8195.000000, 8223.000000, 8244.000000
1829, 203006832.000000, 2410.000000, 8189.000000, 8194.000000, 8199.000000
1830, 203006992.000000, 2373.500000, 8166.000000, 8171.000000, 8159.000000
1831, 203007152.000000, 2326.750000, 8164.000000, 8174.000000, 8159.000000
1832, 203007312.000000, 2282.000000, 8173.000000, 8169.000000, 8158.000000
1833, 203007472.000000, 2251.000000, 8185.000000, 8191.000000, 8184.000000
1834, 203007632.000000, 2242.750000, 8346.000000, 8041.000000, 8119.000000
1835, 203007792.000000, 2246.000000, 8086.000000, 7944.000000, 7895.000000
1836, 203007952.000000, 2251.000000, 8155.000000, 8160.000000, 8131.000000
1837, 203008112.000000, 2243.500000, 8184.000000, 8213.000000, 8209.000000
1838, 203008272.000000, 2220.500000, 8186.000000, 8213.000000, 8210.000000
1839, 203008432.000000, 2174.500000, 8206.000000, 8210.000000, 8212.000000
1840, 203008592.000000, 2108.500000, 8198.000000, 8223.000000, 8224.000000
1841, 203008752.000000, 2033.500000, 8212.000000, 8231.000000, 8241.000000
1842, 203008912.000000, 1959.000000, 8225.000000, 8238.000000, 8251.000000
1843, 203009072.000000, 1889.000000, 8234.000000, 8237.000000, 8254.000000
1844, 203009232.000000, 1816.750000, 8239.000000, 8241.000000, 8261.000000
1845, 203009392.000000, 1743.500000, 8266.000000, 8241.000000, 8269.000000
1846, 203009552.000000, 1673.500000, 8287.000000, 8231.000000, 8267.000000
1847, 203009712.000000, 1609.250000, 8272.000000, 8230.000000, 8260.000000
1848, 203009872.000000, 1547.750000, 8246.000000, 8207.000000, 8224.000000
1849, 203010032.000000, 1487.000000, 8237.000000, 8190.000000, 8211.000000
1850, 203010192.000000, 1428.250000, 8179.000000, 8190.000000, 8185.000000
1851, 203010352.000000, 1375.750000, 8174.000000, 8187.000000, 8182.000000
1852, 203010512.000000, 1332.750000, 8172.000000, 8185.000000, 8181.000000
1853, 203010672.000000, 1287.500000, 8183.000000, 8179.000000, 8176.000000
1854, 203010832.000000, 1243.000000, 8176.000000, 8182.000000, 8175.000000
1855, 203010992.000000, 1193.000000, 8190.000000, 8182.000000, 8178.000000
1856, 203011152.000000, 1137.500000, 8200.000000, 8182.000000, 8184.000000
1857, 203011312.000000, 1079.250000, 8178.000000, 8184.000000, 8180.000000
1858, 203011472.000000, 1021.250000, 8203.000000, 8170.000000, 8172.000000
1859, 203011632.000000, 1001.000000, 8203.000000, 8162.000000, 8162.000000
1860, 203011792.000000, 1064.000000, 8194.000000, 8165.000000, 8158.000000
1861, 203011952.000000, 1246.250000, 8185.000000, 8173.000000, 8166.000000
1862, 203012112.000000, 1515.500000, 8202.000000, 8185.000000, 8191.000000
1863, 203012272.000000, 1808.250000, 8212.000000, 8196.000000, 8210.000000
1864, 203012432.000000, 2055.250000, 8236.000000, 8188.000000, 8202.000000
1865, 203012592.000000, 2215.500000, 8193.000000, 8173.000000, 8169.000000
1866, 203012752.000000, 2287.250000, 8187.000000, 8156.000000, 8144.000000
1867, 203012912.000000, 2299.750000, 8169.000000, 8161.000000, 8143.000000
1868, 203013072.000000, 2278.250000, 8190.000000, 8149.000000, 8135.000000
1869, 203013232.000000, 2244.750000, 8227.000000, 8216.000000, 8224.000000
1870, 203013392.000000, 2203.000000, 8327.000000, 7947.000000, 8016.000000
1871, 203013552.000000, 2152.000000, 8102.000000, 7976.000000, 7921.000000
1872, 203013712.000000, 2101.750000, 8194.000000, 8173.000000, 8160.000000
1873, 203013872.000000, 2065.000000, 8213.000000, 8192.000000, 8193.000000
1874, 203014032.000000, 2054.250000, 8213.000000, 8198.000000, 8199.000000
1875, 203014192.000000, 2067.750000, 8227.000000, 8204.000000, 8212.000000
1876, 203014352.000000, 2095.000000, 8234.000000, 8211.000000, 8224.000000
1877, 203014512.000000, 2120.000000, 8227.000000, 8224.000000, 8234.000000
1878, 203014672.000000, 2129.500000, 8238.000000, 8221.000000, 8235.000000
1879, 203014832.000000, 2112.750000, 8251.000000, 8226.000000, 8244.000000
1880, 203014992.000000, 2071.500000, 8280.000000, 8230.000000, 8264.000000
1881, 203015152.000000, 2010.750000, 8262.000000, 8243.000000, 8269.000000
1882, 203015312.000000, 1936.500000, 8288.000000, 8228.000000, 8263.000000
1883, 203015472.000000, 1859.000000, 8281.000000, 8211.000000, 8241.000000
1884, 203015632.000000, 1779.000000, 8239.000000, 8193.000000, 8213.000000
1885, 203015792.000000, 1702.500000, 8208.000000, 8197.000000, 8201.000000
1886, 203015952.000000, 1633.000000, 8167.000000, 8192.000000, 8185.000000
1887, 203016112.000000, 1577.250000, 8165.000000, 8192.000000, 8175.000000
1888, 203016272.000000, 1524.500000, 8159.000000, 8183.000000, 8168.000000
1889, 203016432.000000, 1468.750000, 8156.000000, 8188.000000, 8169.000000
1890, 203016592.000000, 1403.250000, 8189.000000, 8188.000000, 8181.000000
1891, 203016752.000000, 1338.500000, 8150.000000, 8200.000000, 8181.000000
1892, 203016912.000000, 1279.500000, 8167.000000, 8196.000000, 8187.000000
1893, 203017072.000000, 1225.250000, 8171.000000, 8189.000000, 8178.000000
1894, 203017232.000000, 1179.250000, 8167.000000, 8185.000000, 8172.000000
1895, 203017392.000000, 1176.000000, 8151.000000, 8192.000000, 8178.000000
1896, 203017552.000000, 1266.000000, 8169.000000, 8187.000000, 8177.000000
1897, 203017712.000000, 1482.500000, 8153.000000, 8188.000000, 8171.000000
1898, 203017872.000000, 1792.250000, 8160.000000, 8178.000000, 8164.000000
1899, 203018032.000000, 2114.500000, 8163.000000, 8186.000000, 8176.000000
1900, 203018192.000000, 2376.750000, 8168.000000, 8210.000000, 8213.000000
1901, 203018352.000000, 2535.500000, 8187.000000, 8223.000000, 8237.000000
1902, 203018512.000000, 2597.750000, 8180.000000, 8197.000000, 8196.000000
1903, 203018672.000000, 2578.250000, 8149.000000, 8169.000000, 8152.000000
1904, 203018832.000000, 2507.000000, 8148.000000, 8171.000000, 8151.000000
1905, 203018992.000000, 2407.750000, 8162.000000, 8173.000000, 8160.000000
1906, 203019152.000000, 2295.000000, 8167.000000, 8187.000000, 8172.000000
1907, 203019312.000000, 2173.250000, 8317.000000, 8115.000000, 8187.000000
1908, 203019472.000000, 2061.750000, 8099.000000, 7923.000000, 7880.000000
1909, 203019632.000000, 1974.250000, 8139.000000, 8141.000000, 8105.000000
1910, 203019792.000000, 1922.000000, 8172.000000, 8216.000000, 8210.000000
1911, 203019952.000000, 1902.250000, 8185.000000, 8223.000000, 8220.000000
1912, 203020112.000000, 1894.750000, 8178.000000, 8228.000000, 8224.000000
1913, 203020272.000000, 1880.750000, 8194.000000, 8224.000000, 8226.000000
1914, 203020432.000000, 1853.250000, 8203.000000, 8232.000000, 8236.000000
1915, 203020592.000000, 1807.250000, 8222.000000, 8234.000000, 8249.000000
1916, 203020752.000000, 1748.500000, 8221.000000, 8252.000000, 8264.000000
1917, 203020912.000000, 1680.250000, 8228.000000, 8253.000000, 8272.000000
1918, 203021072.000000, 1610.750000, 8252.000000, 8250.000000, 8275.000000
1919, 203021232.000000, 1546.250000, 8260.000000, 8247.000000, 8277.000000
1920, 203021392.000000, 1491.000000, 8268.000000, 8242.000000, 8278.000000
1921, 203021552.000000, 1448.500000, 8249.000000, 8228.000000, 8255.000000
1922, 203021712.000000, 1415.250000, 8207.000000, 8216.000000, 8231.000000
1923, 203021872.000000, 1390.500000, 8169.000000, 8203.000000, 8205.000000
1924, 203022032.000000, 1370.250000, 8178.000000, 8194.000000, 8192.000000
1925, 203022192.000000, 1356.250000, 8144.000000, 8203.000000, 8190.000000
1926, 203022352.000000, 1352.500000, 8168.000000, 8197.000000, 8194.000000
1927, 203022512.000000, 1360.750000, 8171.000000, 8202.000000, 8199.000000
1928, 203022672.000000, 1375.750000, 8172.000000, 8195.000000, 8191.000000
1929, 203022832.000000, 1396.000000, 8171.000000, 8192.000000, 8187.000000
1930, 203022992.000000, 1406.250000, 8183.000000, 8196.000000, 8191.000000
1931, 203023152.000000, 1410.250000, 8166.000000, 8202.000000, 8194.000000
1932, 203023312.000000, 1446.500000, 8179.000000, 8190.000000, 8183.000000
1933, 203023472.000000, 1587.500000, 8178.000000, 8181.000000, 8175.000000
1934, 203023632.000000, 1855.000000, 8165.000000, 8181.000000, 8168.000000
1935, 203023792.000000, 2217.250000, 8186.000000, 8185.000000, 8178.000000
1936, 203023952.000000, 2586.000000, 8176.000000, 8185.000000, 8178.000000
1937, 203024112.000000, 2896.500000, 8171.000000, 8187.000000, 8178.000000
1938, 203024272.000000, 3103.250000, 8168.000000, 8188.000000, 8181.000000
1939, 203024432.000000, 3198.000000, 8171.000000, 8208.000000, 8215.000000
1940, 203024592.000000, 3201.250000, 8217.000000, 8218.000000, 8242.000000
1941, 203024752.000000, 3143.500000, 8199.000000, 8196.000000, 8200.000000
1942, 203024912.000000, 3053.250000, 8179.000000, 8171.000000, 8160.000000
1943, 203025072.000000, 2938.250000, 8168.000000, 8162.000000, 8149.000000
1944, 203025232.000000, 2797.750000, 8173.000000, 8164.000000, 8153.000000
1945, 203025392.000000, 2643.500000, 8191.000000, 8190.000000, 8179.000000
1946, 203025552.000000, 2497.750000, 8323.000000, 8018.000000, 8094.000000
1947, 203025712.000000, 2377.500000, 8094.000000, 7916.000000, 7862.000000
1948, 203025872.000000, 2294.500000, 8175.000000, 8163.000000, 8141.000000
1949, 203026032.000000, 2235.250000, 8199.000000, 8205.000000, 8207.000000
1950, 203026192.000000, 2189.500000, 8202.000000, 8224.000000, 8224.000000
1951, 203026352.000000, 2142.000000, 8218.000000, 8226.000000, 8232.000000
1952, 203026512.000000, 2086.750000, 8222.000000, 8226.000000, 8235.000000
1953, 203026672.000000, 2020.750000, 8223.000000, 8225.000000, 8233.000000
1954, 203026832.000000, 1945.750000, 8230.000000, 8236.000000, 8246.000000
1955, 203026992.000000, 1873.250000, 8241.000000, 8242.000000, 8254.000000
1956, 203027152.000000, 1794.250000, 8251.000000, 8246.000000, 8266.000000
1957, 203027312.000000, 1716.750000, 8275.000000, 8238.000000, 8264.000000
1958, 203027472.000000, 1644.000000, 8259.000000, 8236.000000, 8256.000000
1959, 203027632.000000, 1576.500000, 8283.000000, 8222.000000, 8254.000000
1960, 203027792.000000, 1517.750000, 8257.000000, 8213.000000, 8237.000000
1961, 203027952.000000, 1467.750000, 8210.000000, 8203.000000, 8212.000000
1962, 203028112.000000, 1423.750000, 8192.000000, 8185.000000, 8182.000000
1963, 203028272.000000, 1382.000000, 8178.000000, 8171.000000, 8161.000000
1964, 203028432.000000, 1344.000000, 8163.000000, 8172.000000, 8158.000000
1965, 203028592.000000, 1306.500000, 8161.000000, 8174.000000, 8157.000000
1966, 203028752.000000, 1265.500000, 8174.000000, 8175.000000, 8168.000000
1967, 203028912.000000, 1220.500000, 8168.000000, 8170.000000, 8159.000000
1968, 203029072.000000, 1171.750000, 8162.000000, 8165.000000, 8154.000000
1969, 203029232.000000, 1115.000000, 8178.000000, 8158.000000, 8150.000000
1970, 203029392.000000, 1057.500000, 8167.000000, 8160.000000, 8149.000000
1971, 203029552.000000, 1046.750000, 8164.000000, 8154.000000, 8143.000000
1972, 203029712.000000, 1155.500000, 8178.000000, 8144.000000, 8138.000000
1973, 203029872.000000, 1412.000000, 8168.000000, 8144.000000, 8137.000000
1974, 203030032.000000, 1757.500000, 8172.000000, 8144.000000, 8134.000000
1975, 203030192.000000, 2112.000000, 8173.000000, 8146.000000, 8137.000000
1976, 203030352.000000, 2397.250000, 8165.000000, 8159.000000, 8150.000000
1977, 203030512.000000, 2577.500000, 8176.000000, 8153.000000, 8148.000000
1978, 203030672.000000, 2640.000000, 8169.000000, 8179.000000, 8181.000000
1979, 203030832.000000, 2616.500000, 8191.000000, 8193.000000, 8205.000000
1980, 203030992.000000, 2541.000000, 8179.000000, 8172.000000, 8167.000000
1981, 203031152.000000, 2445.000000, 8169.000000, 8154.000000, 8142.000000
1982, 203031312.000000, 2338.750000, 8168.000000, 8152.000000, 8135.000000
1983, 203031472.000000, 2223.000000, 8177.000000, 8145.000000, 8130.000000
1984, 203031632.000000, 2099.750000, 8177.000000, 8155.000000, 8136.000000
1985, 203031792.000000, 1985.750000, 8326.000000, 8092.000000, 8164.000000
1986, 203031952.000000, 1896.750000, 8124.000000, 7903.000000, 7861.000000
1987, 203032112.000000, 1836.000000, 8151.000000, 8126.000000, 8090.000000
1988, 203032272.000000, 1800.500000, 8194.000000, 8188.000000, 8181.000000
1989, 203032432.000000, 1777.250000, 8188.000000, 8204.000000, 8197.000000
1990, 203032592.000000, 1759.500000, 8200.000000, 8211.000000, 8208.000000
1991, 203032752.000000, 1733.750000, 8215.000000, 8216.000000, 8222.000000
1992, 203032912.000000, 1692.500000, 8208.000000, 8224.000000, 8226.000000
1993, 203033072.000000, 1635.000000, 8215.000000, 8224.000000, 8230.000000
1994, 203033232.000000, 1571.750000, 8215.000000, 8228.000000, 8236.000000
1995, 203033392.000000, 1508.500000, 8236.000000, 8239.000000, 8253.000000
1996, 203033552.000000, 1448.500000, 8247.000000, 8238.000000, 8258.000000
1997, 203033712.000000, 1396.750000, 8260.000000, 8229.000000, 8253.000000
1998, 203033872.000000, 1353.250000, 8268.000000, 8212.000000, 8240.000000
1999, 203034032.000000, 1321.500000, 8253.000000, 8195.000000, 8217.000000
2000, 203034192.000000, 1305.250000, 8217.000000, 8181.000000, 8195.000000
2001, 203034352.000000, 1300.250000, 8181.000000, 8175.000000, 8171.000000
2002, 203034512.000000, 1299.250000, 8152.000000, 8166.000000, 8151.000000
2003, 203034672.000000, 1299.250000, 8163.000000, 8155.000000, 8143.000000
2004, 203034832.000000, 1295.500000, 8170.000000, 8154.000000, 8145.000000
2005, 203034992.000000, 1294.750000, 8168.000000, 8161.000000, 8152.000000
2006, 203035152.000000, 1299.500000, 8167.000000, 8167.000000, 8158.000000
2007, 203035312.000000, 1306.250000, 8173.000000, 8162.000000, 8151.000000
2008, 203035472.000000, 1304.250000, 8176.000000, 8157.000000, 8146.000000
2009, 203035632.000000, 1295.750000, 8178.000000, 8155.000000, 8147.000000
2010, 203035792.000000, 1310.000000, 8175.000000, 8162.000000, 8154.000000
2011, 203035952.000000, 1426.750000, 8164.000000, 8160.000000, 8145.000000
2012, 203036112.000000, 1727.500000, 8179.000000, 8153.000000, 8144.000000
2013, 203036272.000000, 2093.750000, 8173.000000, 8164.000000, 8161.000000
2014, 203036432.000000, 2375.000000, 8192.000000, 8186.000000, 8195.000000
2015, 203036592.000000, 2537.500000, 8221.000000, 8188.000000, 8206.000000
2016, 203036752.000000, 2591.500000, 8182.000000, 8168.000000, 8165.000000
2017, 203036912.000000, 2547.750000, 8164.000000, 8149.000000, 8130.000000
2018, 203037072.000000, 2436.000000, 8169.000000, 8144.000000, 8128.000000
2019, 203037232.000000, 2326.000000, 8184.000000, 8142.000000, 8134.000000
2020, 203037392.000000, 2216.000000, 8206.000000, 8189.000000, 8193.000000
2021, 203037552.000000, 2080.500000, 8304.000000, 7924.000000, 7992.000000
2022, 203037712.000000, 1953.500000, 8088.000000, 7912.000000, 7852.000000
2023, 203037872.000000, 1866.000000, 8179.000000, 8156.000000, 8141.000000
2024, 203038032.000000, 1803.750000, 8184.000000, 8200.000000, 8194.000000
2025, 203038192.000000, 1770.500000, 8200.000000, 8214.000000, 8214.000000
2026, 203038352.000000, 1755.250000, 8210.000000, 8212.000000, 8217.000000
2027, 203038512.000000, 1752.250000, 8208.000000, 8218.000000, 8220.000000
2028, 203038672.000000, 1746.750000, 8232.000000, 8217.000000, 8229.000000
2029, 203038832.000000, 1729.250000, 8230.000000, 8228.000000, 8238.000000
2030, 203038992.000000, 1701.250000, 8236.000000, 8241.000000, 8259.000000
2031, 203039152.000000, 1661.000000, 8240.000000, 8251.000000, 8270.000000
2032, 203039312.000000, 1614.750000, 8272.000000, 8241.000000, 8277.000000
2033, 203039472.000000, 1563.250000, 8272.000000, 8242.000000, 8276.000000
2034, 203039632.000000, 1508.750000, 8266.000000, 8239.000000, 8271.000000
2035, 203039792.000000, 1458.750000, 8266.000000, 8216.000000, 8246.000000
2036, 203039952.000000, 1414.000000, 8193.000000, 8208.000000, 8212.000000
2037, 203040112.000000, 1376.500000, 8174.000000, 8192.000000, 8187.000000
2038, 203040272.000000, 1342.250000, 8163.000000, 8186.000000, 8176.000000
2039, 203040432.000000, 1304.000000, 8139.000000, 8192.000000, 8174.000000
2040, 203040592.000000, 1267.500000, 8160.000000, 8193.000000, 8183.000000
2041, 203040752.000000, 1233.500000, 8156.000000, 8197.000000, 8184.000000
2042, 203040912.000000, 1198.000000, 8164.000000, 8187.000000, 8180.000000
2043, 203041072.000000, 1153.000000, 8153.000000, 8185.000000, 8176.000000
2044, 203041232.000000, 1106.750000, 8171.000000, 8185.000000, 8178.000000
2045, 203041392.000000, 1111.750000, 8160.000000, 8188.000000, 8180.000000
2046, 203041552.000000, 1230.250000, 8156.000000, 8191.000000, 8178.000000
2047, 203041712.000000, 1486.500000, 8168.000000, 8181.000000, 8172.000000
2048, 203041872.000000, 1806.000000, 8151.000000, 8181.000000, 8167.000000
2049, 203042032.000000, 2104.750000, 8157.000000, 8185.000000, 8171.000000
2050, 203042192.000000, 2316.500000, 8172.000000, 8210.000000, 8214.000000
2051, 203042352.000000, 2424.000000, 8169.000000, 8229.000000, 8233.000000
2052, 203042512.000000, 2437.750000, 8192.000000, 8206.000000, 8207.000000
2053, 203042672.000000, 2380.750000, 8161.000000, 8183.000000, 8168.000000
2054, 203042832.000000, 2290.750000, 8160.000000, 8171.000000, 8149.000000
2055, 203042992.000000, 2189.000000, 8176.000000, 8170.000000, 8153.000000
2056, 203043152.000000, 2084.250000, 8155.000000, 8174.000000, 8151.000000
2057, 203043312.000000, 1979.250000, 8219.000000, 8220.000000, 8233.000000
2058, 203043472.000000, 1882.500000, 8309.000000, 7858.000000, 7907.000000
2059, 203043632.000000, 1808.250000, 8091.000000, 8042.000000, 7974.000000
2060, 203043792.000000, 1760.500000, 8171.000000, 8213.000000, 8200.000000
2061, 203043952.000000, 1734.750000, 8177.000000, 8230.000000, 8221.000000
2062, 203044112.000000, 1728.000000, 8179.000000, 8232.000000, 8221.000000
2063, 203044272.000000, 1732.000000, 8191.000000, 8233.000000, 8230.000000
2064, 203044432.000000, 1739.000000, 8203.000000, 8239.000000, 8241.000000
2065, 203044592.000000, 1735.750000, 8214.000000, 8251.000000, 8259.000000
2066, 203044752.000000, 1721.250000, 8208.000000, 8259.000000, 8267.000000
2067, 203044912.000000, 1702.000000, 8220.000000, 8257.000000, 8269.000000
2068, 203045072.000000, 1677.000000, 8238.000000, 8262.000000, 8280.000000
2069, 203045232.000000, 1650.500000, 8244.000000, 8267.000000, 8291.000000
2070, 203045392.000000, 1623.250000, 8260.000000, 8262.000000, 8294.000000
2071, 203045552.000000, 1599.250000, 8241.000000, 8254.000000, 8278.000000
2072, 203045712.000000, 1580.750000, 8229.000000, 8222.000000, 8242.000000
2073, 203045872.000000, 1574.250000, 8199.000000, 8213.000000, 8219.000000
2074, 203046032.000000, 1568.750000, 8155.000000, 8213.000000, 8202.000000
2075, 203046192.000000, 1563.000000, 8168.000000, 8208.000000, 8197.000000
2076, 203046352.000000, 1553.250000, 8140.000000, 8209.000000, 8190.000000
2077, 203046512.000000, 1547.500000, 8155.000000, 8204.000000, 8187.000000
2078, 203046672.000000, 1546.250000, 8163.000000, 8200.000000, 8186.000000
2079, 203046832.000000, 1550.500000, 8173.000000, 8204.000000, 8195.000000
2080, 203046992.000000, 1545.500000, 8179.000000, 8203.000000, 8196.000000
2081, 203047152.000000, 1552.750000, 8158.000000, 8202.000000, 8185.000000
2082, 203047312.000000, 1632.250000, 8168.000000, 8189.000000, 8174.000000
2083, 203047472.000000, 1835.750000, 8157.000000, 8190.000000, 8172.000000
2084, 203047632.000000, 2147.750000, 8176.000000, 8187.000000, 8178.000000
2085, 203047792.000000, 2473.000000, 8170.000000, 8192.000000, 8177.000000
2086, 203047952.000000, 2737.500000, 8189.000000, 8188.000000, 8181.000000
2087, 203048112.000000, 2894.000000, 8178.000000, 8205.000000, 8211.000000
2088, 203048272.000000, 2949.000000, 8198.000000, 8225.000000, 8244.000000
2089, 203048432.000000, 2921.500000, 8195.000000, 8222.000000, 8229.000000
2090, 203048592.000000, 2839.750000, 8183.000000, 8196.000000, 8193.000000
2091, 203048752.000000, 2729.750000, 8175.000000, 8177.000000, 8165.000000
2092, 203048912.000000, 2609.000000, 8173.000000, 8176.000000, 8163.000000
2093, 203049072.000000, 2488.250000, 8182.000000, 8171.000000, 8158.000000
2094, 203049232.000000, 2371.250000, 8239.000000, 8226.000000, 8252.000000
2095, 203049392.000000, 2271.250000, 8327.000000, 7874.000000, 7937.000000
2096, 203049552.000000, 2194.750000, 8111.000000, 8049.000000, 7990.000000
2097, 203049712.000000, 2141.250000, 8188.000000, 8209.000000, 8204.000000
2098, 203049872.000000, 2111.000000, 8199.000000, 8222.000000, 8218.000000
2099, 203050032.000000, 2094.500000, 8200.000000, 8234.000000, 8229.000000
2100, 203050192.000000, 2078.250000, 8213.000000, 8240.000000, 8241.000000
2101, 203050352.000000, 2053.250000, 8218.000000, 8232.000000, 8240.000000
2102, 203050512.000000, 2014.250000, 8210.000000, 8241.000000, 8242.000000
2103, 203050672.000000, 1963.250000, 8233.000000, 8241.000000, 8251.000000
2104, 203050832.000000, 1903.250000, 8229.000000, 8257.000000, 8269.000000
2105, 203050992.000000, 1843.250000, 8246.000000, 8263.000000, 8282.000000
2106, 203051152.000000, 1778.500000, 8259.000000, 8256.000000, 8282.000000
2107, 203051312.000000, 1713.500000, 8260.000000, 8250.000000, 8278.000000
2108, 203051472.000000, 1651.000000, 8246.000000, 8239.000000, 8264.000000
2109, 203051632.000000, 1591.750000, 8227.000000, 8226.000000, 8240.000000
2110, 203051792.000000, 1536.500000, 8180.000000, 8217.000000, 8218.000000
2111, 203051952.000000, 1484.750000, 8146.000000, 8212.000000, 8199.000000
2112, 203052112.000000, 1436.000000, 8160.000000, 8196.000000, 8182.000000
2113, 203052272.000000, 1387.000000, 8142.000000, 8200.000000, 8182.000000
2114, 203052432.000000, 1338.750000, 8158.000000, 8203.000000, 8190.000000
2115, 203052592.000000, 1296.250000, 8155.000000, 8207.000000, 8190.000000
2116, 203052752.000000, 1252.500000, 8157.000000, 8200.000000, 8188.000000
2117, 203052912.000000, 1203.250000, 8164.000000, 8192.000000, 8181.000000
2118, 203053072.000000, 1163.250000, 8157.000000, 8190.000000, 8176.000000
2119, 203053232.000000, 1208.750000, 8158.000000, 8191.000000, 8178.000000
2120, 203053392.000000, 1404.500000, 8141.000000, 8198.000000, 8179.000000
2121, 203053552.000000, 1737.250000, 8157.000000, 8185.000000, 8169.000000
2122, 203053712.000000, 2112.500000, 8155.000000, 8177.000000, 8158.000000
2123, 203053872.000000, 2448.000000, 8166.000000, 8181.000000, 8163.000000
2124, 203054032.000000, 2690.500000, 8168.000000, 8189.000000, 8178.000000
2125, 203054192.000000, 2815.000000, 8180.000000, 8212.000000, 8219.000000
2126, 203054352.000000, 2844.750000, 8194.000000, 8225.000000, 8239.000000
2127, 203054512.000000, 2804.500000, 8193.000000, 8191.000000, 8189.000000
2128, 203054672.000000, 2734.250000, 8173.000000, 8167.000000, 8152.000000
2129, 203054832.000000, 2657.750000, 8157.000000, 8173.000000, 8151.000000
2130, 203054992.000000, 2570.500000, 8160.000000, 8176.000000, 8158.000000
2131, 203055152.000000, 2473.750000, 8172.000000, 8171.000000, 8151.000000
2132, 203055312.000000, 2377.500000, 8270.000000, 8148.000000, 8199.000000
2133, 203055472.000000, 2305.000000, 8164.000000, 7880.000000, 7863.000000
2134, 203055632.000000, 2263.000000, 8138.000000, 8130.000000, 8089.000000
2135, 203055792.000000, 2253.000000, 8193.000000, 8213.000000, 8211.000000
2136, 203055952.000000, 2260.250000, 8188.000000, 8220.000000, 8215.000000
2137, 203056112.000000, 2270.250000, 8202.000000, 8216.000000, 8216.000000
2138, 203056272.000000, 2272.250000, 8200.000000, 8227.000000, 8229.000000
2139, 203056432.000000, 2257.000000, 8204.000000, 8236.000000, 8241.000000
2140, 203056592.000000, 2233.000000, 8234.000000, 8243.000000, 8256.000000
2141, 203056752.000000, 2200.250000, 8219.000000, 8243.000000, 8254.000000
2142, 203056912.000000, 2167.000000, 8253.000000, 8238.000000, 8262.000000
2143, 203057072.000000, 2123.500000, 8255.000000, 8246.000000, 8271.000000
2144, 203057232.000000, 2074.500000, 8256.000000, 8253.000000, 8279.000000
2145, 203057392.000000, 2034.750000, 8273.000000, 8242.000000, 8275.000000
2146, 203057552.000000, 2007.500000, 8255.000000, 8225.000000, 8254.000000
2147, 203057712.000000, 1983.250000, 8227.000000, 8200.000000, 8218.000000
2148, 203057872.000000, 1958.250000, 8191.000000, 8196.000000, 8198.000000
2149, 203058032.000000, 1933.250000, 8176.000000, 8191.000000, 8191.000000
2150, 203058192.000000, 1911.250000, 8187.000000, 8191.000000, 8191.000000
2151, 203058352.000000, 1893.750000, 8175.000000, 8186.000000, 8176.000000
2152, 203058512.000000, 1876.000000, 8168.000000, 8189.000000, 8184.000000
2153, 203058672.000000, 1857.000000, 8184.000000, 8183.000000, 8181.000000
2154, 203058832.000000, 1827.750000, 8188.000000, 8187.000000, 8184.000000
2155, 203058992.000000, 1790.250000, 8178.000000, 8188.000000, 8186.000000
2156, 203059152.000000, 1755.750000, 8195.000000, 8177.000000, 8176.000000
2157, 203059312.000000, 1804.250000, 8181.000000, 8175.000000, 8169.000000
2158, 203059472.000000, 1986.250000, 8167.000000, 8178.000000, 8171.000000
2159, 203059632.000000, 2296.000000, 8180.000000, 8182.000000, 8175.000000
2160, 203059792.000000, 2645.750000, 8181.000000, 8191.000000, 8191.000000
2161, 203059952.000000, 2962.250000, 8206.000000, 8200.000000, 8216.000000
2162, 203060112.000000, 3188.750000, 8205.000000, 8213.000000, 8229.000000
2163, 203060272.000000, 3307.250000, 8201.000000, 8184.000000, 8191.000000
2164, 203060432.000000, 3317.250000, 8193.000000, 8164.000000, 8162.000000
2165, 203060592.000000, 3254.250000, 8186.000000, 8161.000000, 8154.000000
2166, 203060752.000000, 3157.500000, 8185.000000, 8160.000000, 8151.000000
2167, 203060912.000000, 3035.750000, 8207.000000, 8185.000000, 8186.000000
2168, 203061072.000000, 2907.250000, 8321.000000, 8033.000000, 8104.000000
2169, 203061232.000000, 2782.250000, 8086.000000, 7927.000000, 7878.000000
2170, 203061392.000000, 2671.500000, 8174.000000, 8152.000000, 8133.000000
2171, 203061552.000000, 2592.250000, 8202.000000, 8197.000000, 8199.000000
2172, 203061712.000000, 2548.500000, 8210.000000, 8198.000000, 8203.000000
2173, 203061872.000000, 2532.750000, 8216.000000, 8203.000000, 8208.000000
2174, 203062032.000000, 2533.250000, 8218.000000, 8213.000000, 8225.000000
2175, 203062192.000000, 2532.250000, 8234.000000, 8217.000000, 8236.000000
2176, 203062352.000000, 2515.000000, 8252.000000, 8215.000000, 8238.000000
2177, 203062512.000000, 2478.500000, 8235.000000, 8224.000000, 8242.000000
2178, 203062672.000000, 2418.000000, 8239.000000, 8230.000000, 8254.000000
2179, 203062832.000000, 2338.750000, 8271.000000, 8242.000000, 8274.000000
2180, 203062992.000000, 2245.500000, 8239.000000, 8246.000000, 8268.000000
2181, 203063152.000000, 2149.750000, 8263.000000, 8225.000000, 8251.000000
2182, 203063312.000000, 2053.250000, 8241.000000, 8200.000000, 8224.000000
2183, 203063472.000000, 1957.250000, 8203.000000, 8187.000000, 8197.000000
2184, 203063632.000000, 1873.250000, 8161.000000, 8193.000000, 8188.000000
2185, 203063792.000000, 1799.000000, 8161.000000, 8183.000000, 8174.000000
2186, 203063952.000000, 1735.250000, 8159.000000, 8177.000000, 8170.000000
2187, 203064112.000000, 1679.250000, 8159.000000, 8173.000000, 8162.000000
2188, 203064272.000000, 1630.750000, 8163.000000, 8180.000000, 8174.000000
2189, 203064432.000000, 1589.000000, 8169.000000, 8185.000000, 8177.000000
2190, 203064592.000000, 1543.750000, 8175.000000, 8181.000000, 8177.000000
2191, 203064752.000000, 1486.000000, 8171.000000, 8171.000000, 8164.000000
2192, 203064912.000000, 1443.500000, 8148.000000, 8170.000000, 8150.000000
2193, 203065072.000000, 1481.000000, 8161.000000, 8167.000000, 8154.000000
2194, 203065232.000000, 1679.750000, 8165.000000, 8173.000000, 8160.000000
2195, 203065392.000000, 2018.500000, 8160.000000, 8193.000000, 8187.000000
2196, 203065552.000000, 2423.250000, 8178.000000, 8197.000000, 8205.000000
2197, 203065712.000000, 2795.750000, 8191.000000, 8194.000000, 8198.000000
2198, 203065872.000000, 3080.750000, 8172.000000, 8171.000000, 8163.000000
2199, 203066032.000000, 3239.750000, 8145.000000, 8165.000000, 8141.000000
2200, 203066192.000000, 3286.000000, 8157.000000, 8160.000000, 8140.000000
2201, 203066352.000000, 3249.250000, 8142.000000, 8158.000000, 8134.000000
2202, 203066512.000000, 3164.000000, 8198.000000, 8228.000000, 8233.000000
2203, 203066672.000000, 3056.500000, 8301.000000, 7873.000000, 7927.000000
2204, 203066832.000000, 2940.500000, 8077.000000, 7982.000000, 7917.000000
2205, 203066992.000000, 2825.250000, 8172.000000, 8190.000000, 8176.000000
2206, 203067152.000000, 2730.000000, 8173.000000, 8211.000000, 8200.000000
2207, 203067312.000000, 2663.250000, 8187.000000, 8218.000000, 8210.000000
2208, 203067472.000000, 2633.250000, 8193.000000, 8225.000000, 8221.000000
2209, 203067632.000000, 2635.000000, 8194.000000, 8228.000000, 8230.000000
2210, 203067792.000000, 2651.250000, 8192.000000, 8243.000000, 8244.000000
2211, 203067952.000000, 2673.750000, 8207.000000, 8241.000000, 8246.000000
2212, 203068112.000000, 2686.500000, 8226.000000, 8244.000000, 8258.000000
2213, 203068272.000000, 2682.250000, 8238.000000, 8259.000000, 8275.000000
2214, 203068432.000000, 2659.750000, 8249.000000, 8262.000000, 8285.000000
2215, 203068592.000000, 2623.000000, 8245.000000, 8253.000000, 8279.000000
2216, 203068752.000000, 2577.000000, 8244.000000, 8237.000000, 8259.000000
2217, 203068912.000000, 2525.250000, 8241.000000, 8210.000000, 8230.000000
2218, 203069072.000000, 2471.000000, 8192.000000, 8205.000000, 8210.000000
2219, 203069232.000000, 2422.750000, 8177.000000, 8198.000000, 8197.000000
2220, 203069392.000000, 2376.250000, 8150.000000, 8199.000000, 8188.000000
2221, 203069552.000000, 2322.000000, 8164.000000, 8186.000000, 8177.000000
2222, 203069712.000000, 2258.000000, 8187.000000, 8180.000000, 8178.000000
2223, 203069872.000000, 2186.250000, 8156.000000, 8198.000000, 8187.000000
2224, 203070032.000000, 2114.500000, 8173.000000, 8195.000000, 8192.000000
2225, 203070192.000000, 2037.250000, 8187.000000, 8190.000000, 8188.000000
2226, 203070352.000000, 1947.500000, 8172.000000, 8189.000000, 8179.000000
2227, 203070512.000000, 1891.000000, 8186.000000, 8181.000000, 8174.000000
2228, 203070672.000000, 1937.500000, 8156.000000, 8188.000000, 8175.000000
2229, 203070832.000000, 2137.250000, 8171.000000, 8200.000000, 8197.000000
2230, 203070992.000000, 2448.000000, 8184.000000, 8208.000000, 8222.000000
2231, 203071152.000000, 2801.000000, 8202.000000, 8224.000000, 8242.000000
2232, 203071312.000000, 3121.250000, 8196.000000, 8189.000000, 8195.000000
2233, 203071472.000000, 3353.500000, 8159.000000, 8174.000000, 8161.000000
2234, 203071632.000000, 3466.250000, 8155.000000, 8182.000000, 8161.000000
2235, 203071792.000000, 3480.250000, 8167.000000, 8173.000000, 8160.000000
2236, 203071952.000000, 3427.250000, 8183.000000, 8181.000000, 8166.000000
2237, 203072112.000000, 3337.000000, 8314.000000, 8025.000000, 8095.000000
2238, 203072272.000000, 3225.750000, 8079.000000, 7900.000000, 7838.000000
2239, 203072432.000000, 3101.500000, 8162.000000, 8170.000000, 8147.000000
2240, 203072592.000000, 2976.250000, 8188.000000, 8218.000000, 8211.000000
2241, 203072752.000000, 2869.500000, 8208.000000, 8214.000000, 8218.000000
2242, 203072912.000000, 2796.000000, 8199.000000, 8221.000000, 8221.000000
2243, 203073072.000000, 2762.750000, 8213.000000, 8232.000000, 8237.000000
2244, 203073232.000000, 2762.000000, 8219.000000, 8236.000000, 8245.000000
2245, 203073392.000000, 2770.500000, 8222.000000, 8242.000000, 8255.000000
2246, 203073552.000000, 2764.250000, 8237.000000, 8243.000000, 8262.000000
2247, 203073712.000000, 2725.750000, 8235.000000, 8250.000000, 8268.000000
2248, 203073872.000000, 2659.500000, 8250.000000, 8258.000000, 8282.000000
2249, 203074032.000000, 2568.750000, 8249.000000, 8257.000000, 8282.000000
2250, 203074192.000000, 2465.000000, 8266.000000, 8240.000000, 8276.000000
2251, 203074352.000000, 2354.250000, 8231.000000, 8224.000000, 8247.000000
2252, 203074512.000000, 2242.000000, 8195.000000, 8210.000000, 8221.000000
2253, 203074672.000000, 2130.250000, 8156.000000, 8213.000000, 8212.000000
2254, 203074832.000000, 2025.500000, 8153.000000, 8208.000000, 8201.000000
2255, 203074992.000000, 1934.750000, 8149.000000, 8204.000000, 8195.000000
2256, 203075152.000000, 1847.000000, 8159.000000, 8196.000000, 8193.000000
2257, 203075312.000000, 1768.750000, 8154.000000, 8203.000000, 8191.000000
2258, 203075472.000000, 1697.250000, 8150.000000, 8207.000000, 8200.000000
2259, 203075632.000000, 1625.750000, 8169.000000, 8204.000000, 8202.000000
2260, 203075792.000000, 1546.250000, 8143.000000, 8201.000000, 8188.000000
2261, 203075952.000000, 1496.250000, 8149.000000, 8193.000000, 8174.000000
2262, 203076112.000000, 1549.750000, 8136.000000, 8193.000000, 8171.000000
2263, 203076272.000000, 1780.750000, 8164.000000, 8209.000000, 8209.000000
2264, 203076432.000000, 2159.500000, 8145.000000, 8237.000000, 8235.000000
2265, 203076592.000000, 2604.000000, 8186.000000, 8223.000000, 8228.000000
2266, 203076752.000000, 3020.750000, 8164.000000, 8191.000000, 8180.000000
2267, 203076912.000000, 3337.750000, 8134.000000, 8177.000000, 8154.000000
2268, 203077072.000000, 3521.750000, 8155.000000, 8181.000000, 8160.000000
2269, 203077232.000000, 3583.750000, 8132.000000, 8191.000000, 8164.000000
2270, 203077392.000000, 3568.500000, 8180.000000, 8242.000000, 8241.000000
2271, 203077552.000000, 3510.000000, 8316.000000, 7890.000000, 7954.000000
2272, 203077712.000000, 3425.250000, 8062.000000, 8013.000000, 7938.000000
2273, 203077872.000000, 3321.000000, 8145.000000, 8216.000000, 8196.000000
2274, 203078032.000000, 3211.750000, 8167.000000, 8237.000000, 8228.000000
2275, 203078192.000000, 3117.750000, 8157.000000, 8241.000000, 8227.000000
2276, 203078352.000000, 3051.500000, 8177.000000, 8237.000000, 8230.000000
2277, 203078512.000000, 3019.250000, 8185.000000, 8241.000000, 8238.000000
2278, 203078672.000000, 3009.250000, 8183.000000, 8254.000000, 8253.000000
2279, 203078832.000000, 3012.500000, 8200.000000, 8260.000000, 8264.000000
2280, 203078992.000000, 3013.000000, 8205.000000, 8262.000000, 8266.000000
2281, 203079152.000000, 2995.750000, 8217.000000, 8261.000000, 8273.000000
2282, 203079312.000000, 2949.500000, 8231.000000, 8259.000000, 8276.000000
2283, 203079472.000000, 2882.000000, 8253.000000, 8253.000000, 8277.000000
2284, 203079632.000000, 2803.500000, 8229.000000, 8243.000000, 8261.000000
2285, 203079792.000000, 2730.250000, 8210.000000, 8228.000000, 8237.000000
2286, 203079952.000000, 2662.750000, 8153.000000, 8219.000000, 8210.000000
2287, 203080112.000000, 2602.000000, 8150.000000, 8206.000000, 8193.000000
2288, 203080272.000000, 2549.250000, 8144.000000, 8209.000000, 8190.000000
2289, 203080432.000000, 2503.500000, 8130.000000, 8208.000000, 8188.000000
2290, 203080592.000000, 2457.000000, 8146.000000, 8208.000000, 8187.000000
2291, 203080752.000000, 2407.000000, 8149.000000, 8200.000000, 8181.000000
2292, 203080912.000000, 2353.000000, 8159.000000, 8203.000000, 8194.000000
2293, 203081072.000000, 2283.750000, 8156.000000, 8207.000000, 8192.000000
2294, 203081232.000000, 2201.250000, 8169.000000, 8196.000000, 8190.000000
2295, 203081392.000000, 2140.000000, 8161.000000, 8194.000000, 8183.000000
2296, 203081552.000000, 2172.000000, 8166.000000, 8188.000000, 8178.000000
2297, 203081712.000000, 2347.500000, 8172.000000, 8210.000000, 8212.000000
2298, 203081872.000000, 2661.250000, 8198.000000, 8233.000000, 8252.000000
2299, 203082032.000000, 3034.250000, 8205.000000, 8211.000000, 8223.000000
2300, 203082192.000000, 3384.000000, 8177.000000, 8184.000000, 8175.000000
2301, 203082352.000000, 3635.500000, 8168.000000, 8169.000000, 8154.000000
2302, 203082512.000000, 3771.500000, 8182.000000, 8165.000000, 8152.000000
2303, 203082672.000000, 3797.000000, 8173.000000, 8171.000000, 8158.000000
2304, 203082832.000000, 3743.500000, 8260.000000, 8220.000000, 8248.000000
2305, 203082992.000000, 3647.750000, 8310.000000, 7871.000000, 7919.000000
2306, 203083152.000000, 3519.750000, 8129.000000, 8051.000000, 8000.000000
2307, 203083312.000000, 3366.250000, 8200.000000, 8195.000000, 8188.000000
2308, 203083472.000000, 3203.500000, 8202.000000, 8217.000000, 8217.000000
2309, 203083632.000000, 3060.000000, 8212.000000, 8219.000000, 8225.000000
2310, 203083792.000000, 2956.500000, 8227.000000, 8215.000000, 8221.000000
2311, 203083952.000000, 2899.000000, 8231.000000, 8218.000000, 8231.000000
2312, 203084112.000000, 2872.250000, 8230.000000, 8225.000000, 8237.000000
2313, 203084272.000000, 2855.000000, 8243.000000, 8236.000000, 8261.000000
2314, 203084432.000000, 2824.000000, 8246.000000, 8240.000000, 8261.000000
2315, 203084592.000000, 2770.750000, 8258.000000, 8241.000000, 8266.000000
2316, 203084752.000000, 2687.000000, 8273.000000, 8241.000000, 8270.000000
2317, 203084912.000000, 2574.250000, 8271.000000, 8235.000000, 8267.000000
2318, 203085072.000000, 2446.750000, 8271.000000, 8224.000000, 8258.000000
2319, 203085232.000000, 2313.250000, 8217.000000, 8219.000000, 8233.000000
2320, 203085392.000000, 2180.250000, 8180.000000, 8203.000000, 8202.000000
2321, 203085552.000000, 2054.250000, 8184.000000, 8186.000000, 8186.000000
2322, 203085712.000000, 1938.750000, 8154.000000, 8193.000000, 8183.000000
2323, 203085872.000000, 1837.250000, 8162.000000, 8199.000000, 8190.000000
2324, 203086032.000000, 1738.250000, 8166.000000, 8199.000000, 8193.000000
2325, 203086192.000000, 1647.500000, 8185.000000, 8191.000000, 8186.000000
2326, 203086352.000000, 1566.000000, 8172.000000, 8189.000000, 8181.000000
2327, 203086512.000000, 1486.750000, 8171.000000, 8188.000000, 8177.000000
2328, 203086672.000000, 1413.000000, 8180.000000, 8183.000000, 8176.000000
2329, 203086832.000000, 1379.000000, 8164.000000, 8186.000000, 8171.000000
2330, 203086992.000000, 1473.500000, 8170.000000, 8189.000000, 8184.000000
2331, 203087152.000000, 1741.000000, 8194.000000, 8196.000000, 8202.000000
2332, 203087312.000000, 2172.250000, 8205.000000, 8210.000000, 8224.000000
2333, 203087472.000000, 2680.250000, 8195.000000, 8183.000000, 8182.000000
2334, 203087632.000000, 3160.250000, 8170.000000, 8163.000000, 8148.000000
2335, 203087792.000000, 3517.500000, 8163.000000, 8161.000000, 8141.000000
2336, 203087952.000000, 3722.500000, 8164.000000, 8161.000000, 8140.000000
2337, 203088112.000000, 3791.000000, 8177.000000, 8193.000000, 8182.000000
2338, 203088272.000000, 3753.000000, 8321.000000, 8009.000000, 8076.000000
2339, 203088432.000000, 3653.750000, 8091.000000, 7925.000000, 7869.000000
2340, 203088592.000000, 3517.750000, 8166.000000, 8154.000000, 8130.000000
2341, 203088752.000000, 3375.250000, 8178.000000, 8205.000000, 8195.000000
2342, 203088912.000000, 3247.000000, 8192.000000, 8215.000000, 8208.000000
2343, 203089072.000000, 3155.250000, 8196.000000, 8222.000000, 8222.000000
2344, 203089232.000000, 3106.500000, 8197.000000, 8230.000000, 8227.000000
2345, 203089392.000000, 3090.750000, 8223.000000, 8225.000000, 8231.000000
2346, 203089552.000000, 3092.500000, 8199.000000, 8236.000000, 8236.000000
2347, 203089712.000000, 3094.250000, 8232.000000, 8240.000000, 8250.000000
2348, 203089872.000000, 3076.500000, 8249.000000, 8250.000000, 8269.000000
2349, 203090032.000000, 3029.000000, 8261.000000, 8247.000000, 8272.000000
2350, 203090192.000000, 2957.000000, 8269.000000, 8233.000000, 8259.000000
2351, 203090352.000000, 2874.500000, 8253.000000, 8225.000000, 8245.000000
2352, 203090512.000000, 2789.000000, 8222.000000, 8218.000000, 8227.000000
2353, 203090672.000000, 2712.500000, 8195.000000, 8211.000000, 8216.000000
2354, 203090832.000000, 2644.750000, 8161.000000, 8200.000000, 8189.000000
2355, 203090992.000000, 2588.000000, 8153.000000, 8191.000000, 8176.000000
2356, 203091152.000000, 2539.500000, 8154.000000, 8188.000000, 8172.000000
2357, 203091312.000000, 2492.000000, 8160.000000, 8195.000000, 8183.000000
2358, 203091472.000000, 2438.500000, 8188.000000, 8196.000000, 8191.000000
2359, 203091632.000000, 2364.500000, 8185.000000, 8191.000000, 8191.000000
2360, 203091792.000000, 2261.750000, 8183.000000, 8191.000000, 8188.000000
2361, 203091952.000000, 2131.750000, 8183.000000, 8187.000000, 8180.000000
2362, 203092112.000000, 2000.750000, 8173.000000, 8185.000000, 8180.000000
2363, 203092272.000000, 1935.000000, 8174.000000, 8188.000000, 8181.000000
2364, 203092432.000000, 2018.250000, 8178.000000, 8181.000000, 8181.000000
2365, 203092592.000000, 2282.000000, 8188.000000, 8204.000000, 8214.000000
2366, 203092752.000000, 2669.000000, 8211.000000, 8219.000000, 8241.000000
2367, 203092912.000000, 3080.250000, 8208.000000, 8199.000000, 8209.000000
2368, 203093072.000000, 3417.750000, 8198.000000, 8179.000000, 8180.000000
2369, 203093232.000000, 3637.250000, 8179.000000, 8168.000000, 8159.000000
2370, 203093392.000000, 3727.500000, 8180.000000, 8161.000000, 8152.000000
2371, 203093552.000000, 3728.250000, 8183.000000, 8161.000000, 8148.000000
2372, 203093712.000000, 3667.500000, 8253.000000, 8198.000000, 8234.000000
2373, 203093872.000000, 3563.750000, 8301.000000, 7846.000000, 7890.000000
2374, 203094032.000000, 3426.500000, 8136.000000, 8064.000000, 8014.000000
2375, 203094192.000000, 3266.250000, 8199.000000, 8196.000000, 8200.000000
2376, 203094352.000000, 3105.250000, 8208.000000, 8209.000000, 8211.000000
2377, 203094512.000000, 2972.000000, 8199.000000, 8220.000000, 8222.000000
2378, 203094672.000000, 2875.500000, 8210.000000, 8230.000000, 8233.000000
2379, 203094832.000000, 2808.750000, 8230.000000, 8225.000000, 8241.000000
2380, 203094992.000000, 2761.500000, 8215.000000, 8238.000000, 8244.000000
2381, 203095152.000000, 2712.250000, 8224.000000, 8240.000000, 8256.000000
2382, 203095312.000000, 2647.500000, 8245.000000, 8250.000000, 8274.000000
2383, 203095472.000000, 2549.750000, 8254.000000, 8255.000000, 8281.000000
2384, 203095632.000000, 2421.250000, 8267.000000, 8248.000000, 8281.000000
2385, 203095792.000000, 2271.500000, 8273.000000, 8237.000000, 8272.000000
2386, 203095952.000000, 2115.000000, 8271.000000, 8221.000000, 8253.000000
2387, 203096112.000000, 1968.250000, 8209.000000, 8217.000000, 8233.000000
2388, 203096272.000000, 1830.000000, 8159.000000, 8218.000000, 8213.000000
2389, 203096432.000000, 1702.500000, 8149.000000, 8204.000000, 8195.000000
2390, 203096592.000000, 1589.750000, 8146.000000, 8190.000000, 8175.000000
2391, 203096752.000000, 1494.000000, 8138.000000, 8196.000000, 8175.000000
2392, 203096912.000000, 1406.750000, 8152.000000, 8200.000000, 8183.000000
2393, 203097072.000000, 1325.000000, 8154.000000, 8205.000000, 8193.000000
2394, 203097232.000000, 1248.750000, 8156.000000, 8200.000000, 8187.000000
2395, 203097392.000000, 1178.000000, 8161.000000, 8192.000000, 8175.000000
2396, 203097552.000000, 1116.000000, 8166.000000, 8186.000000, 8170.000000
2397, 203097712.000000, 1117.750000, 8152.000000, 8189.000000, 8170.000000
2398, 203097872.000000, 1249.750000, 8159.000000, 8191.000000, 8176.000000
2399, 203098032.000000, 1580.250000, 8160.000000, 8186.000000, 8168.000000
2400, 203098192.000000, 2062.000000, 8156.000000, 8182.000000, 8165.000000
2401, 203098352.000000, 2598.250000, 8167.000000, 8183.000000, 8168.000000
2402, 203098512.000000, 3071.750000, 8159.000000, 8186.000000, 8167.000000
2403, 203098672.000000, 3417.000000, 8177.000000, 8189.000000, 8180.000000
2404, 203098832.000000, 3615.000000, 8172.000000, 8203.000000, 8205.000000
2405, 203098992.000000, 3691.250000, 8168.000000, 8222.000000, 8231.000000
2406, 203099152.000000, 3694.750000, 8210.000000, 8203.000000, 8214.000000
2407, 203099312.000000, 3649.000000, 8172.000000, 8193.000000, 8183.000000
2408, 203099472.000000, 3562.250000, 8167.000000, 8182.000000, 8167.000000
2409, 203099632.000000, 3442.250000, 8157.000000, 8181.000000, 8163.000000
2410, 203099792.000000, 3306.250000, 8161.000000, 8177.000000, 8158.000000
2411, 203099952.000000, 3177.000000, 8235.000000, 8216.000000, 8238.000000
2412, 203100112.000000, 3071.000000, 8320.000000, 7865.000000, 7917.000000
2413, 203100272.000000, 2993.750000, 8104.000000, 8070.000000, 8011.000000
2414, 203100432.000000, 2936.000000, 8169.000000, 8219.000000, 8209.000000
2415, 203100592.000000, 2887.000000, 8194.000000, 8226.000000, 8221.000000
2416, 203100752.000000, 2833.000000, 8196.000000, 8227.000000, 8227.000000
2417, 203100912.000000, 2767.250000, 8180.000000, 8242.000000, 8237.000000
2418, 203101072.000000, 2679.250000, 8214.000000, 8244.000000, 8252.000000
2419, 203101232.000000, 2575.750000, 8186.000000, 8249.000000, 8250.000000
2420, 203101392.000000, 2465.750000, 8217.000000, 8243.000000, 8255.000000
2421, 203101552.000000, 2354.000000, 8236.000000, 8249.000000, 8269.000000
2422, 203101712.000000, 2252.500000, 8240.000000, 8261.000000, 8286.000000
2423, 203101872.000000, 2161.000000, 8265.000000, 8257.000000, 8289.000000
2424, 203102032.000000, 2070.750000, 8264.000000, 8250.000000, 8281.000000
2425, 203102192.000000, 1981.000000, 8262.000000, 8232.000000, 8262.000000
2426, 203102352.000000, 1889.750000, 8211.000000, 8225.000000, 8239.000000
2427, 203102512.000000, 1793.750000, 8182.000000, 8220.000000, 8224.000000
2428, 203102672.000000, 1695.750000, 8160.000000, 8210.000000, 8206.000000
2429, 203102832.000000, 1604.750000, 8158.000000, 8200.000000, 8191.000000
2430, 203102992.000000, 1519.750000, 8143.000000, 8198.000000, 8187.000000
2431, 203103152.000000, 1441.500000, 8161.000000, 8199.000000, 8188.000000
2432, 203103312.000000, 1366.500000, 8160.000000, 8205.000000, 8195.000000
2433, 203103472.000000, 1294.000000, 8177.000000, 8207.000000, 8202.000000
2434, 203103632.000000, 1219.500000, 8175.000000, 8200.000000, 8192.000000
2435, 203103792.000000, 1147.500000, 8176.000000, 8193.000000, 8186.000000
2436, 203103952.000000, 1113.000000, 8175.000000, 8189.000000, 8179.000000
2437, 203104112.000000, 1200.500000, 8158.000000, 8198.000000, 8185.000000
2438, 203104272.000000, 1462.000000, 8187.000000, 8187.000000, 8185.000000
2439, 203104432.000000, 1893.500000, 8176.000000, 8182.000000, 8175.000000
2440, 203104592.000000, 2393.750000, 8164.000000, 8182.000000, 8169.000000
2441, 203104752.000000, 2863.500000, 8192.000000, 8178.000000, 8175.000000
2442, 203104912.000000, 3219.250000, 8183.000000, 8186.000000, 8183.000000
2443, 203105072.000000, 3441.000000, 8199.000000, 8180.000000, 8182.000000
2444, 203105232.000000, 3533.250000, 8174.000000, 8188.000000, 8179.000000
2445, 203105392.000000, 3534.750000, 8179.000000, 8182.000000, 8179.000000
2446, 203105552.000000, 3474.750000, 8169.000000, 8199.000000, 8193.000000
2447, 203105712.000000, 3366.500000, 8180.000000, 8218.000000, 8227.000000
2448, 203105872.000000, 3212.250000, 8200.000000, 8220.000000, 8234.000000
2449, 203106032.000000, 3029.000000, 8188.000000, 8199.000000, 8201.000000
2450, 203106192.000000, 2841.250000, 8170.000000, 8174.000000, 8163.000000
2451, 203106352.000000, 2673.750000, 8166.000000, 8174.000000, 8164.000000
2452, 203106512.000000, 2528.750000, 8174.000000, 8180.000000, 8173.000000
2453, 203106672.000000, 2404.750000, 8191.000000, 8199.000000, 8194.000000
2454, 203106832.000000, 2298.000000, 8351.000000, 8039.000000, 8120.000000
2455, 203106992.000000, 2200.500000, 8096.000000, 7936.000000, 7883.000000
2456, 203107152.000000, 2100.000000, 8196.000000, 8153.000000, 8141.000000
2457, 203107312.000000, 2001.000000, 8179.000000, 8225.000000, 8218.000000
2458, 203107472.000000, 1887.500000, 8200.000000, 8222.000000, 8222.000000
2459, 203107632.000000, 1750.750000, 8205.000000, 8218.000000, 8216.000000
2460, 203107792.000000, 1600.250000, 8195.000000, 8225.000000, 8224.000000
2461, 203107952.000000, 1461.000000, 8219.000000, 8226.000000, 8233.000000
2462, 203108112.000000, 1348.750000, 8216.000000, 8240.000000, 8245.000000
2463, 203108272.000000, 1269.500000, 8237.000000, 8244.000000, 8259.000000
2464, 203108432.000000, 1220.500000, 8232.000000, 8249.000000, 8261.000000
2465, 203108592.000000, 1192.250000, 8249.000000, 8247.000000, 8268.000000
2466, 203108752.000000, 1173.500000, 8276.000000, 8242.000000, 8273.000000
2467, 203108912.000000, 1159.500000, 8283.000000, 8239.000000, 8271.000000
2468, 203109072.000000, 1144.750000, 8251.000000, 8227.000000, 8249.000000
2469, 203109232.000000, 1130.500000, 8198.000000, 8211.000000, 8216.000000
2470, 203109392.000000, 1119.250000, 8150.000000, 8203.000000, 8192.000000
2471, 203109552.000000, 1114.250000, 8161.000000, 8194.000000, 8181.000000
2472, 203109712.000000, 1111.500000, 8145.000000, 8197.000000, 8181.000000
2473, 203109872.000000, 1106.500000, 8151.000000, 8197.000000, 8181.000000
2474, 203110032.000000, 1101.750000, 8157.000000, 8189.000000, 8179.000000
2475, 203110192.000000, 1096.000000, 8156.000000, 8191.000000, 8178.000000
2476, 203110352.000000, 1084.000000, 8184.000000, 8185.000000, 8181.000000
2477, 203110512.000000, 1058.750000, 8164.000000, 8197.000000, 8184.000000
2478, 203110672.000000, 1035.750000, 8180.000000, 8188.000000, 8185.000000
2479, 203110832.000000, 1063.000000, 8157.000000, 8184.000000, 8168.000000
2480, 203110992.000000, 1225.250000, 8171.000000, 8180.000000, 8169.000000
2481, 203111152.000000, 1560.000000, 8166.000000, 8179.000000, 8163.000000
2482, 203111312.000000, 2033.250000, 8173.000000, 8180.000000, 8167.000000
2483, 203111472.000000, 2542.500000, 8168.000000, 8180.000000, 8169.000000
2484, 203111632.000000, 2995.250000, 8166.000000, 8172.000000, 8160.000000
2485, 203111792.000000, 3331.000000, 8171.000000, 8171.000000, 8158.000000
2486, 203111952.000000, 3529.500000, 8165.000000, 8178.000000, 8161.000000
2487, 203112112.000000, 3605.750000, 8180.000000, 8178.000000, 8169.000000
2488, 203112272.000000, 3603.250000, 8162.000000, 8183.000000, 8172.000000
2489, 203112432.000000, 3548.250000, 8195.000000, 8190.000000, 8197.000000
2490, 203112592.000000, 3445.500000, 8200.000000, 8204.000000, 8218.000000
2491, 203112752.000000, 3303.000000, 8205.000000, 8184.000000, 8184.000000
2492, 203112912.000000, 3127.250000, 8183.000000, 8178.000000, 8173.000000
2493, 203113072.000000, 2938.750000, 8179.000000, 8169.000000, 8158.000000
2494, 203113232.000000, 2764.500000, 8173.000000, 8166.000000, 8157.000000
2495, 203113392.000000, 2622.750000, 8180.000000, 8167.000000, 8156.000000
2496, 203113552.000000, 2515.000000, 8262.000000, 8186.000000, 8228.000000
2497, 203113712.000000, 2432.500000, 8290.000000, 7842.000000, 7882.000000
2498, 203113872.000000, 2357.500000, 8121.000000, 8088.000000, 8034.000000
2499, 203114032.000000, 2276.750000, 8212.000000, 8200.000000, 8206.000000
2500, 203114192.000000, 2182.500000, 8202.000000, 8213.000000, 8213.000000
2501, 203114352.000000, 2068.250000, 8230.000000, 8219.000000, 8227.000000
2502, 203114512.000000, 1943.000000, 8209.000000, 8230.000000, 8232.000000
2503, 203114672.000000, 1812.750000, 8226.000000, 8230.000000, 8240.000000
2504, 203114832.000000, 1687.000000, 8235.000000, 8230.000000, 8242.000000
2505, 203114992.000000, 1572.000000, 8239.000000, 8236.000000, 8252.000000
2506, 203115152.000000, 1470.500000, 8248.000000, 8245.000000, 8265.000000
2507, 203115312.000000, 1383.000000, 8267.000000, 8254.000000, 8281.000000
2508, 203115472.000000, 1305.750000, 8299.000000, 8241.000000, 8281.000000
2509, 203115632.000000, 1234.750000, 8284.000000, 8238.000000, 8270.000000
2510, 203115792.000000, 1174.000000, 8283.000000, 8219.000000, 8253.000000
2511, 203115952.000000, 1119.000000, 8237.000000, 8210.000000, 8231.000000
2512, 203116112.000000, 1069.250000, 8185.000000, 8206.000000, 8206.000000
2513, 203116272.000000, 1022.750000, 8153.000000, 8195.000000, 8182.000000
2514, 203116432.000000, 977.250000, 8156.000000, 8184.000000, 8173.000000
2515, 203116592.000000, 929.000000, 8153.000000, 8183.000000, 8168.000000
2516, 203116752.000000, 873.250000, 8149.000000, 8190.000000, 8171.000000
2517, 203116912.000000, 814.750000, 8155.000000, 8197.000000, 8186.000000
2518, 203117072.000000, 754.250000, 8170.000000, 8194.000000, 8187.000000
2519, 203117232.000000, 684.000000, 8161.000000, 8189.000000, 8178.000000
2520, 203117392.000000, 602.500000, 8176.000000, 8184.000000, 8177.000000
2521, 203117552.000000, 530.500000, 8156.000000, 8192.000000, 8181.000000
2522, 203117712.000000, 543.250000, 8174.000000, 8185.000000, 8180.000000
2523, 203117872.000000, 758.750000, 8177.000000, 8185.000000, 8178.000000
2524, 203118032.000000, 1290.750000, 8154.000000, 8184.000000, 8168.000000
2525, 203118192.000000, 1817.000000, 8157.000000, 8176.000000, 8160.000000
2526, 203118352.000000, 2239.500000, 8160.000000, 8181.000000, 8165.000000
2527, 203118512.000000, 2533.750000, 8158.000000, 8182.000000, 8167.000000
2528, 203118672.000000, 2712.250000, 8171.000000, 8178.000000, 8165.000000
2529, 203118832.000000, 2807.000000, 8179.000000, 8171.000000, 8158.000000
2530, 203118992.000000, 2860.750000, 8151.000000, 8177.000000, 8157.000000
2531, 203119152.000000, 2881.500000, 8159.000000, 8182.000000, 8167.000000
2532, 203119312.000000, 2859.000000, 8163.000000, 8205.000000, 8201.000000
2533, 203119472.000000, 2767.000000, 8178.000000, 8212.000000, 8220.000000
2534, 203119632.000000, 2631.500000, 8170.000000, 8194.000000, 8179.000000
2535, 203119792.000000, 2519.000000, 8160.000000, 8181.000000, 8167.000000
2536, 203119952.000000, 2425.250000, 8145.000000, 8177.000000, 8157.000000
2537, 203120112.000000, 2356.750000, 8142.000000, 8186.000000, 8166.000000
2538, 203120272.000000, 2310.250000, 8159.000000, 8176.000000, 8161.000000
2539, 203120432.000000, 2276.250000, 8229.000000, 8197.000000, 8219.000000
2540, 203120592.000000, 2243.500000, 8306.000000, 7835.000000, 7880.000000
2541, 203120752.000000, 2202.500000, 8093.000000, 8092.000000, 8029.000000
2542, 203120912.000000, 2147.000000, 8150.000000, 8234.000000, 8223.000000
2543, 203121072.000000, 2072.750000, 8175.000000, 8244.000000, 8240.000000
2544, 203121232.000000, 1984.500000, 8173.000000, 8247.000000, 8238.000000
2545, 203121392.000000, 1888.750000, 8187.000000, 8249.000000, 8243.000000
2546, 203121552.000000, 1787.750000, 8174.000000, 8263.000000, 8256.000000
2547, 203121712.000000, 1690.250000, 8181.000000, 8270.000000, 8266.000000
2548, 203121872.000000, 1606.000000, 8212.000000, 8263.000000, 8273.000000
2549, 203122032.000000, 1531.000000, 8228.000000, 8262.000000, 8279.000000
2550, 203122192.000000, 1461.250000, 8235.000000, 8269.000000, 8289.000000
2551, 203122352.000000, 1393.750000, 8265.000000, 8268.000000, 8296.000000
2552, 203122512.000000, 1327.000000, 8266.000000, 8262.000000, 8298.000000
2553, 203122672.000000, 1260.250000, 8276.000000, 8246.000000, 8281.000000
2554, 203122832.000000, 1198.750000, 8229.000000, 8233.000000, 8251.000000
2555, 203122992.000000, 1137.000000, 8188.000000, 8215.000000, 8219.000000
2556, 203123152.000000, 1075.000000, 8148.000000, 8216.000000, 8200.000000
2557, 203123312.000000, 1015.000000, 8149.000000, 8213.000000, 8196.000000
2558, 203123472.000000, 951.500000, 8147.000000, 8201.000000, 8190.000000
2559, 203123632.000000, 887.250000, 8157.000000, 8201.000000, 8185.000000
2560, 203123792.000000, 825.500000, 8142.000000, 8202.000000, 8188.000000
2561, 203123952.000000, 760.500000, 8153.000000, 8208.000000, 8197.000000
2562, 203124112.000000, 694.750000, 8152.000000, 8213.000000, 8204.000000
2563, 203124272.000000, 654.750000, 8175.000000, 8202.000000, 8198.000000
2564, 203124432.000000, 709.250000, 8163.000000, 8194.000000, 8188.000000
2565, 203124592.000000, 925.500000, 8169.000000, 8192.000000, 8184.000000
2566, 203124752.000000, 1285.250000, 8171.000000, 8189.000000, 8184.000000
2567, 203124912.000000, 1717.250000, 8176.000000, 8191.000000, 8184.000000
2568, 203125072.000000, 2124.250000, 8181.000000, 8186.000000, 8184.000000
2569, 203125232.000000, 2452.250000, 8170.000000, 8184.000000, 8175.000000
2570, 203125392.000000, 2670.000000, 8181.000000, 8179.000000, 8175.000000
2571, 203125552.000000, 2789.750000, 8184.000000, 8185.000000, 8179.000000
2572, 203125712.000000, 2834.000000, 8166.000000, 8192.000000, 8182.000000
2573, 203125872.000000, 2825.500000, 8175.000000, 8183.000000, 8181.000000
2574, 203126032.000000, 2782.250000, 8182.000000, 8181.000000, 8172.000000
2575, 203126192.000000, 2701.250000, 8182.000000, 8179.000000, 8174.000000
2576, 203126352.000000, 2586.750000, 8176.000000, 8193.000000, 8193.000000
2577, 203126512.000000, 2450.250000, 8183.000000, 8219.000000, 8228.000000
2578, 203126672.000000, 2308.750000, 8193.000000, 8215.000000, 8227.000000
2579, 203126832.000000, 2185.500000, 8190.000000, 8191.000000, 8193.000000
2580, 203126992.000000, 2085.500000, 8154.000000, 8181.000000, 8165.000000
2581, 203127152.000000, 2008.750000, 8161.000000, 8184.000000, 8171.000000
2582, 203127312.000000, 1943.750000, 8170.000000, 8184.000000, 8175.000000
2583, 203127472.000000, 1878.250000, 8184.000000, 8185.000000, 8175.000000
2584, 203127632.000000, 1793.250000, 8343.000000, 8064.000000, 8148.000000
2585, 203127792.000000, 1690.750000, 8122.000000, 7916.000000, 7875.000000
2586, 203127952.000000, 1578.750000, 8160.000000, 8164.000000, 8138.000000
2587, 203128112.000000, 1469.750000, 8192.000000, 8220.000000, 8225.000000
2588, 203128272.000000, 1364.750000, 8182.000000, 8224.000000, 8221.000000
2589, 203128432.000000, 1263.750000, 8202.000000, 8222.000000, 8220.000000
2590, 203128592.000000, 1167.750000, 8207.000000, 8219.000000, 8218.000000
2591, 203128752.000000, 1078.500000, 8207.000000, 8228.000000, 8231.000000
2592, 203128912.000000, 1005.500000, 8229.000000, 8234.000000, 8240.000000
2593, 203129072.000000, 946.250000, 8221.000000, 8237.000000, 8243.000000
2594, 203129232.000000, 902.000000, 8234.000000, 8239.000000, 8250.000000
2595, 203129392.000000, 866.250000, 8246.000000, 8242.000000, 8261.000000
2596, 203129552.000000, 839.750000, 8265.000000, 8246.000000, 8270.000000
2597, 203129712.000000, 819.000000, 8276.000000, 8238.000000, 8269.000000
2598, 203129872.000000, 802.750000, 8262.000000, 8221.000000, 8245.000000
2599, 203130032.000000, 794.500000, 8228.000000, 8203.000000, 8216.000000
2600, 203130192.000000, 800.000000, 8168.000000, 8198.000000, 8191.000000
2601, 203130352.000000, 811.750000, 8166.000000, 8194.000000, 8182.000000
2602, 203130512.000000, 823.000000, 8145.000000, 8193.000000, 8175.000000
2603, 203130672.000000, 833.000000, 8163.000000, 8185.000000, 8171.000000
2604, 203130832.000000, 844.500000, 8143.000000, 8186.000000, 8167.000000
2605, 203130992.000000, 857.000000, 8161.000000, 8186.000000, 8173.000000
2606, 203131152.000000, 870.250000, 8168.000000, 8192.000000, 8181.000000
2607, 203131312.000000, 884.250000, 8159.000000, 8191.000000, 8182.000000
2608, 203131472.000000, 930.000000, 8166.000000, 8186.000000, 8172.000000
2609, 203131632.000000, 1060.250000, 8166.000000, 8177.000000, 8165.000000
2610, 203131792.000000, 1317.250000, 8167.000000, 8179.000000, 8168.000000
2611, 203131952.000000, 1667.000000, 8175.000000, 8176.000000, 8166.000000
2612, 203132112.000000, 2040.500000, 8157.000000, 8185.000000, 8167.000000
2613, 203132272.000000, 2360.500000, 8160.000000, 8176.000000, 8162.000000
2614, 203132432.000000, 2589.250000, 8166.000000, 8168.000000, 8158.000000
2615, 203132592.000000, 2714.750000, 8153.000000, 8176.000000, 8159.000000
2616, 203132752.000000, 2762.250000, 8172.000000, 8177.000000, 8165.000000
2617, 203132912.000000, 2761.250000, 8187.000000, 8172.000000, 8166.000000
2618, 203133072.000000, 2732.000000, 8169.000000, 8177.000000, 8165.000000
2619, 203133232.000000, 2679.500000, 8189.000000, 8192.000000, 8197.000000
2620, 203133392.000000, 2595.500000, 8211.000000, 8200.000000, 8212.000000
2621, 203133552.000000, 2481.000000, 8179.000000, 8187.000000, 8184.000000
2622, 203133712.000000, 2354.250000, 8170.000000, 8175.000000, 8166.000000
2623, 203133872.000000, 2233.250000, 8177.000000, 8162.000000, 8153.000000
2624, 203134032.000000, 2133.500000, 8192.000000, 8161.000000, 8160.000000
2625, 203134192.000000, 2056.750000, 8183.000000, 8176.000000, 8163.000000
2626, 203134352.000000, 2000.500000, 8327.000000, 8122.000000, 8201.000000
2627, 203134512.000000, 1954.750000, 8169.000000, 7896.000000, 7880.000000
2628, 203134672.000000, 1904.500000, 8173.000000, 8127.000000, 8102.000000
2629, 203134832.000000, 1843.500000, 8198.000000, 8208.000000, 8207.000000
2630, 203134992.000000, 1771.000000, 8214.000000, 8212.000000, 8218.000000
2631, 203135152.000000, 1691.000000, 8207.000000, 8221.000000, 8230.000000
2632, 203135312.000000, 1609.000000, 8228.000000, 8220.000000, 8237.000000
2633, 203135472.000000, 1529.750000, 8231.000000, 8223.000000, 8240.000000
2634, 203135632.000000, 1453.750000, 8234.000000, 8222.000000, 8237.000000
2635, 203135792.000000, 1382.000000, 8249.000000, 8229.000000, 8254.000000
2636, 203135952.000000, 1319.250000, 8265.000000, 8238.000000, 8270.000000
2637, 203136112.000000, 1266.750000, 8272.000000, 8236.000000, 8272.000000
2638, 203136272.000000, 1218.500000, 8292.000000, 8231.000000, 8273.000000
2639, 203136432.000000, 1174.250000, 8302.000000, 8222.000000, 8268.000000
2640, 203136592.000000, 1130.250000, 8293.000000, 8205.000000, 8247.000000
2641, 203136752.000000, 1082.000000, 8224.000000, 8204.000000, 8224.000000
2642, 203136912.000000, 1030.000000, 8182.000000, 8192.000000, 8196.000000
2643, 203137072.000000, 978.500000, 8169.000000, 8179.000000, 8173.000000
2644, 203137232.000000, 917.250000, 8157.000000, 8173.000000, 8165.000000
2645, 203137392.000000, 849.750000, 8144.000000, 8183.000000, 8166.000000
2646, 203137552.000000, 785.000000, 8154.000000, 8190.000000, 8178.000000
2647, 203137712.000000, 729.250000, 8155.000000, 8190.000000, 8181.000000
2648, 203137872.000000, 676.250000, 8169.000000, 8185.000000, 8177.000000
2649, 203138032.000000, 621.250000, 8165.000000, 8185.000000, 8176.000000
2650, 203138192.000000, 581.750000, 8165.000000, 8187.000000, 8178.000000
2651, 203138352.000000, 614.500000, 8170.000000, 8185.000000, 8176.000000
2652, 203138512.000000, 769.250000, 8168.000000, 8186.000000, 8177.000000
2653, 203138672.000000, 1048.250000, 8155.000000, 8182.000000, 8169.000000
2654, 203138832.000000, 1392.500000, 8160.000000, 8177.000000, 8161.000000
2655, 203138992.000000, 1737.750000, 8158.000000, 8178.000000, 8161.000000
2656, 203139152.000000, 2026.000000, 8172.000000, 8178.000000, 8166.000000
2657, 203139312.000000, 2221.250000, 8159.000000, 8203.000000, 8194.000000
2658, 203139472.000000, 2323.000000, 8180.000000, 8207.000000, 8212.000000
2659, 203139632.000000, 2361.250000, 8197.000000, 8202.000000, 8204.000000
2660, 203139792.000000, 2365.500000, 8179.000000, 8178.000000, 8165.000000
2661, 203139952.000000, 2356.250000, 8148.000000, 8176.000000, 8150.000000
2662, 203140112.000000, 2332.000000, 8152.000000, 8173.000000, 8148.000000
2663, 203140272.000000, 2282.750000, 8157.000000, 8168.000000, 8148.000000
2664, 203140432.000000, 2213.250000, 8188.000000, 8228.000000, 8228.000000
2665, 203140592.000000, 2141.500000, 8308.000000, 7865.000000, 7923.000000
2666, 203140752.000000, 2087.000000, 8072.000000, 8002.000000, 7929.000000
2667, 203140912.000000, 2055.250000, 8158.000000, 8205.000000, 8188.000000
2668, 203141072.000000, 2045.250000, 8171.000000, 8222.000000, 8211.000000
2669, 203141232.000000, 2049.500000, 8197.000000, 8222.000000, 8219.000000
2670, 203141392.000000, 2052.750000, 8190.000000, 8236.000000, 8234.000000
2671, 203141552.000000, 2045.250000, 8194.000000, 8246.000000, 8243.000000
2672, 203141712.000000, 2019.000000, 8196.000000, 8248.000000, 8246.000000
2673, 203141872.000000, 1973.250000, 8199.000000, 8249.000000, 8257.000000
2674, 203142032.000000, 1911.250000, 8210.000000, 8257.000000, 8266.000000
2675, 203142192.000000, 1838.000000, 8246.000000, 8261.000000, 8282.000000
2676, 203142352.000000, 1755.250000, 8242.000000, 8272.000000, 8296.000000
2677, 203142512.000000, 1670.250000, 8267.000000, 8261.000000, 8296.000000
2678, 203142672.000000, 1590.750000, 8282.000000, 8240.000000, 8275.000000
2679, 203142832.000000, 1524.250000, 8236.000000, 8224.000000, 8246.000000
2680, 203142992.000000, 1468.500000, 8181.000000, 8214.000000, 8216.000000
2681, 203143152.000000, 1426.000000, 8167.000000, 8205.000000, 8198.000000
2682, 203143312.000000, 1395.000000, 8145.000000, 8197.000000, 8179.000000
2683, 203143472.000000, 1365.000000, 8171.000000, 8189.000000, 8178.000000
2684, 203143632.000000, 1333.750000, 8151.000000, 8188.000000, 8172.000000
2685, 203143792.000000, 1298.750000, 8154.000000, 8200.000000, 8184.000000
2686, 203143952.000000, 1255.750000, 8171.000000, 8198.000000, 8191.000000
2687, 203144112.000000, 1195.500000, 8161.000000, 8198.000000, 8187.000000
2688, 203144272.000000, 1126.250000, 8166.000000, 8193.000000, 8185.000000
2689, 203144432.000000, 1075.500000, 8172.000000, 8187.000000, 8181.000000
2690, 203144592.000000, 1119.250000, 8167.000000, 8191.000000, 8180.000000
2691, 203144752.000000, 1290.250000, 8164.000000, 8194.000000, 8183.000000
2692, 203144912.000000, 1577.500000, 8168.000000, 8189.000000, 8184.000000
2693, 203145072.000000, 1905.250000, 8177.000000, 8178.000000, 8173.000000
2694, 203145232.000000, 2205.250000, 8180.000000, 8178.000000, 8171.000000
2695, 203145392.000000, 2427.000000, 8185.000000, 8183.000000, 8178.000000
2696, 203145552.000000, 2563.750000, 8181.000000, 8186.000000, 8180.000000
2697, 203145712.000000, 2625.500000, 8187.000000, 8179.000000, 8177.000000
2698, 203145872.000000, 2629.250000, 8182.000000, 8179.000000, 8176.000000
2699, 203146032.000000, 2597.500000, 8204.000000, 8173.000000, 8174.000000
2700, 203146192.000000, 2542.500000, 8209.000000, 8199.000000, 8217.000000
2701, 203146352.000000, 2465.000000, 8215.000000, 8229.000000, 8253.000000
2702, 203146512.000000, 2367.500000, 8213.000000, 8203.000000, 8216.000000
2703, 203146672.000000, 2261.500000, 8182.000000, 8179.000000, 8179.000000
2704, 203146832.000000, 2162.250000, 8182.000000, 8168.000000, 8159.000000
2705, 203146992.000000, 2086.250000, 8178.000000, 8174.000000, 8164.000000
2706, 203147152.000000, 2035.000000, 8183.000000, 8178.000000, 8169.000000
2707, 203147312.000000, 1999.250000, 8268.000000, 8196.000000, 8240.000000
2708, 203147472.000000, 1966.000000, 8259.000000, 7865.000000, 7891.000000
2709, 203147632.000000, 1919.250000, 8124.000000, 8103.000000, 8047.000000
2710, 203147792.000000, 1855.500000, 8173.000000, 8214.000000, 8211.000000
2711, 203147952.000000, 1775.500000, 8183.000000, 8232.000000, 8231.000000
2712, 203148112.000000, 1679.750000, 8186.000000, 8231.000000, 8228.000000
2713, 203148272.000000, 1578.250000, 8187.000000, 8229.000000, 8229.000000
2714, 203148432.000000, 1472.750000, 8185.000000, 8238.000000, 8238.000000
2715, 203148592.000000, 1368.500000, 8202.000000, 8239.000000, 8249.000000
2716, 203148752.000000, 1272.500000, 8218.000000, 8248.000000, 8260.000000
2717, 203148912.000000, 1190.000000, 8218.000000, 8255.000000, 8265.000000
2718, 203149072.000000, 1114.750000, 8243.000000, 8247.000000, 8266.000000
2719, 203149232.000000, 1048.250000, 8241.000000, 8250.000000, 8270.000000
2720, 203149392.000000, 991.000000, 8269.000000, 8250.000000, 8282.000000
2721, 203149552.000000, 946.750000, 8248.000000, 8245.000000, 8271.000000
2722, 203149712.000000, 921.500000, 8227.000000, 8221.000000, 8237.000000
2723, 203149872.000000, 913.250000, 8177.000000, 8203.000000, 8202.000000
2724, 203150032.000000, 913.250000, 8148.000000, 8198.000000, 8180.000000
2725, 203150192.000000, 916.500000, 8141.000000, 8200.000000, 8177.000000
2726, 203150352.000000, 920.000000, 8149.000000, 8200.000000, 8181.000000
2727, 203150512.000000, 920.000000, 8139.000000, 8200.000000, 8180.000000
2728, 203150672.000000, 918.500000, 8157.000000, 8196.000000, 8178.000000
2729, 203150832.000000, 909.250000, 8160.000000, 8191.000000, 8181.000000
2730, 203150992.000000, 891.000000, 8152.000000, 8204.000000, 8187.000000
2731, 203151152.000000, 881.250000, 8152.000000, 8203.000000, 8188.000000
2732, 203151312.000000, 930.750000, 8168.000000, 8193.000000, 8182.000000
2733, 203151472.000000, 1111.000000, 8145.000000, 8194.000000, 8174.000000
2734, 203151632.000000, 1424.250000, 8158.000000, 8187.000000, 8174.000000
2735, 203151792.000000, 1825.750000, 8158.000000, 8191.000000, 8174.000000
2736, 203151952.000000, 2229.250000, 8156.000000, 8191.000000, 8176.000000
2737, 203152112.000000, 2569.750000, 8158.000000, 8188.000000, 8175.000000
2738, 203152272.000000, 2805.750000, 8163.000000, 8182.000000, 8172.000000
2739, 203152432.000000, 2945.000000, 8164.000000, 8185.000000, 8172.000000
2740, 203152592.000000, 3002.000000, 8163.000000, 8188.000000, 8176.000000
2741, 203152752.000000, 3002.500000, 8166.000000, 8209.000000, 8211.000000
2742, 203152912.000000, 2967.750000, 8178.000000, 8219.000000, 8233.000000
2743, 203153072.000000, 2908.500000, 8207.000000, 8198.000000, 8203.000000
2744, 203153232.000000, 2830.500000, 8182.000000, 8183.000000, 8176.000000
2745, 203153392.000000, 2742.250000, 8165.000000, 8170.000000, 8159.000000
2746, 203153552.000000, 2653.250000, 8168.000000, 8175.000000, 8158.000000
2747, 203153712.000000, 2571.750000, 8178.000000, 8170.000000, 8160.000000
2748, 203153872.000000, 2502.750000, 8242.000000, 8216.000000, 8244.000000
2749, 203154032.000000, 2442.000000, 8336.000000, 7864.000000, 7927.000000
2750, 203154192.000000, 2381.500000, 8105.000000, 8043.000000, 7986.000000
2751, 203154352.000000, 2314.750000, 8197.000000, 8205.000000, 8202.000000
2752, 203154512.000000, 2233.750000, 8193.000000, 8218.000000, 8220.000000
2753, 203154672.000000, 2137.750000, 8211.000000, 8215.000000, 8221.000000
2754, 203154832.000000, 2034.500000, 8207.000000, 8218.000000, 8225.000000
2755, 203154992.000000, 1928.750000, 8220.000000, 8229.000000, 8237.000000
2756, 203155152.000000, 1819.250000, 8230.000000, 8233.000000, 8251.000000
2757, 203155312.000000, 1713.500000, 8253.000000, 8229.000000, 8253.000000
2758, 203155472.000000, 1615.750000, 8261.000000, 8233.000000, 8260.000000
2759, 203155632.000000, 1526.500000, 8258.000000, 8242.000000, 8273.000000
2760, 203155792.000000, 1447.750000, 8287.000000, 8243.000000, 8285.000000
2761, 203155952.000000, 1379.500000, 8294.000000, 8241.000000, 8282.000000
2762, 203156112.000000, 1319.750000, 8299.000000, 8228.000000, 8276.000000
2763, 203156272.000000, 1268.750000, 8265.000000, 8207.000000, 8241.000000
2764, 203156432.000000, 1224.750000, 8214.000000, 8196.000000, 8210.000000
2765, 203156592.000000, 1184.500000, 8191.000000, 8188.000000, 8196.000000
2766, 203156752.000000, 1149.500000, 8175.000000, 8190.000000, 8188.000000
2767, 203156912.000000, 1115.250000, 8156.000000, 8186.000000, 8177.000000
2768, 203157072.000000, 1084.000000, 8175.000000, 8178.000000, 8174.000000
2769, 203157232.000000, 1051.500000, 8177.000000, 8182.000000, 8177.000000
2770, 203157392.000000, 1014.000000, 8171.000000, 8191.000000, 8188.000000
2771, 203157552.000000, 969.000000, 8178.000000, 8191.000000, 8191.000000
2772, 203157712.000000, 918.250000, 8184.000000, 8183.000000, 8179.000000
2773, 203157872.000000, 893.000000, 8183.000000, 8174.000000, 8175.000000
2774, 203158032.000000, 952.500000, 8177.000000, 8175.000000, 8170.000000
2775, 203158192.000000, 1150.250000, 8177.000000, 8178.000000, 8175.000000
2776, 203158352.000000, 1462.750000, 8173.000000, 8177.000000, 8174.000000
2777, 203158512.000000, 1822.250000, 8175.000000, 8176.000000, 8168.000000
2778, 203158672.000000, 2151.250000, 8169.000000, 8170.000000, 8160.000000
2779, 203158832.000000, 2409.000000, 8170.000000, 8169.000000, 8158.000000
2780, 203158992.000000, 2577.000000, 8156.000000, 8178.000000, 8161.000000
2781, 203159152.000000, 2648.250000, 8168.000000, 8186.000000, 8179.000000
2782, 203159312.000000, 2650.000000, 8196.000000, 8195.000000, 8203.000000
2783, 203159472.000000, 2607.250000, 8198.000000, 8204.000000, 8211.000000
2784, 203159632.000000, 2543.750000, 8189.000000, 8183.000000, 8180.000000
2785, 203159792.000000, 2466.250000, 8161.000000, 8170.000000, 8151.000000
2786, 203159952.000000, 2376.750000, 8173.000000, 8168.000000, 8151.000000
2787, 203160112.000000, 2285.750000, 8161.000000, 8166.000000, 8143.000000
2788, 203160272.000000, 2209.750000, 8184.000000, 8176.000000, 8162.000000
2789, 203160432.000000, 2160.750000, 8325.000000, 8041.000000, 8109.000000
2790, 203160592.000000, 2141.250000, 8097.000000, 7918.000000, 7862.000000
2791, 203160752.000000, 2141.500000, 8157.000000, 8164.000000, 8136.000000
2792, 203160912.000000, 2145.000000, 8191.000000, 8211.000000, 8213.000000
2793, 203161072.000000, 2136.750000, 8183.000000, 8218.000000, 8217.000000
2794, 203161232.000000, 2110.750000, 8195.000000, 8221.000000, 8222.000000
2795, 203161392.000000, 2070.000000, 8197.000000, 8235.000000, 8237.000000
2796, 203161552.000000, 2015.750000, 8210.000000, 8237.000000, 8246.000000
2797, 203161712.000000, 1948.250000, 8212.000000, 8243.000000, 8251.000000
2798, 203161872.000000, 1876.000000, 8225.000000, 8243.000000, 8260.000000
2799, 203162032.000000, 1811.000000, 8231.000000, 8252.000000, 8269.000000
2800, 203162192.000000, 1754.750000, 8244.000000, 8261.000000, 8285.000000
2801, 203162352.000000, 1705.750000, 8240.000000, 8265.000000, 8288.000000
2802, 203162512.000000, 1657.000000, 8286.000000, 8237.000000, 8275.000000
2803, 203162672.000000, 1605.250000, 8249.000000, 8221.000000, 8246.000000
2804, 203162832.000000, 1554.000000, 8209.000000, 8210.000000, 8222.000000
2805, 203162992.000000, 1506.500000, 8156.000000, 8207.000000, 8198.000000
2806, 203163152.000000, 1472.250000, 8153.000000, 8198.000000, 8183.000000
2807, 203163312.000000, 1447.250000, 8145.000000, 8193.000000, 8171.000000
2808, 203163472.000000, 1428.250000, 8159.000000, 8181.000000, 8166.000000
2809, 203163632.000000, 1413.250000, 8158.000000, 8186.000000, 8177.000000
2810, 203163792.000000, 1405.500000, 8145.000000, 8200.000000, 8182.000000
2811, 203163952.000000, 1398.000000, 8166.000000, 8193.000000, 8181.000000
2812, 203164112.000000, 1380.750000, 8167.000000, 8188.000000, 8177.000000
2813, 203164272.000000, 1359.750000, 8161.000000, 8187.000000, 8172.000000
2814, 203164432.000000, 1373.250000, 8169.000000, 8183.000000, 8175.000000
2815, 203164592.000000, 1486.750000, 8166.000000, 8190.000000, 8176.000000
2816, 203164752.000000, 1709.250000, 8169.000000, 8186.000000, 8174.000000
2817, 203164912.000000, 2011.000000, 8170.000000, 8177.000000, 8168.000000
2818, 203165072.000000, 2327.250000, 8181.000000, 8177.000000, 8169.000000
2819, 203165232.000000, 2599.250000, 8170.000000, 8180.000000, 8171.000000
2820, 203165392.000000, 2786.750000, 8175.000000, 8178.000000, 8174.000000
2821, 203165552.000000, 2874.750000, 8193.000000, 8181.000000, 8177.000000
2822, 203165712.000000, 2885.000000, 8181.000000, 8203.000000, 8211.000000
2823, 203165872.000000, 2840.750000, 8210.000000, 8225.000000, 8250.000000
2824, 203166032.000000, 2766.250000, 8217.000000, 8197.000000, 8209.000000
2825, 203166192.000000, 2669.500000, 8201.000000, 8176.000000, 8179.000000
2826, 203166352.000000, 2555.000000, 8172.000000, 8173.000000, 8161.000000
2827, 203166512.000000, 2434.000000, 8198.000000, 8161.000000, 8156.000000
2828, 203166672.000000, 2323.500000, 8182.000000, 8163.000000, 8148.000000
2829, 203166832.000000, 2239.250000, 8275.000000, 8182.000000, 8228.000000
2830, 203166992.000000, 2183.500000, 8266.000000, 7859.000000, 7885.000000
2831, 203167152.000000, 2157.000000, 8137.000000, 8099.000000, 8050.000000
2832, 203167312.000000, 2143.750000, 8184.000000, 8208.000000, 8204.000000
2833, 203167472.000000, 2125.500000, 8206.000000, 8214.000000, 8220.000000
2834, 203167632.000000, 2088.250000, 8196.000000, 8228.000000, 8226.000000
2835, 203167792.000000, 2029.000000, 8209.000000, 8231.000000, 8237.000000
2836, 203167952.000000, 1950.250000, 8215.000000, 8236.000000, 8244.000000
2837, 203168112.000000, 1855.750000, 8207.000000, 8240.000000, 8247.000000
2838, 203168272.000000, 1757.750000, 8227.000000, 8241.000000, 8257.000000
2839, 203168432.000000, 1654.500000, 8234.000000, 8253.000000, 8270.000000
2840, 203168592.000000, 1551.000000, 8260.000000, 8257.000000, 8287.000000
2841, 203168752.000000, 1454.250000, 8252.000000, 8263.000000, 8294.000000
2842, 203168912.000000, 1371.500000, 8258.000000, 8252.000000, 8279.000000
2843, 203169072.000000, 1299.000000, 8262.000000, 8234.000000, 8264.000000
2844, 203169232.000000, 1233.250000, 8214.000000, 8219.000000, 8231.000000
2845, 203169392.000000, 1178.250000, 8188.000000, 8209.000000, 8206.000000
2846, 203169552.000000, 1131.000000, 8157.000000, 8204.000000, 8188.000000
2847, 203169712.000000, 1093.500000, 8162.000000, 8189.000000, 8174.000000
2848, 203169872.000000, 1067.750000, 8149.000000, 8191.000000, 8168.000000
2849, 203170032.000000, 1049.500000, 8137.000000, 8202.000000, 8175.000000
2850, 203170192.000000, 1040.750000, 8169.000000, 8197.000000, 8183.000000
2851, 203170352.000000, 1037.250000, 8163.000000, 8201.000000, 8183.000000
2852, 203170512.000000, 1035.250000, 8137.000000, 8205.000000, 8178.000000
2853, 203170672.000000, 1033.500000, 8152.000000, 8198.000000, 8177.000000
2854, 203170832.000000, 1066.000000, 8171.000000, 8192.000000, 8179.000000
2855, 203170992.000000, 1189.250000, 8143.000000, 8203.000000, 8180.000000
2856, 203171152.000000, 1444.750000, 8150.000000, 8195.000000, 8176.000000
2857, 203171312.000000, 1814.000000, 8157.000000, 8188.000000, 8168.000000
2858, 203171472.000000, 2228.750000, 8134.000000, 8193.000000, 8170.000000
2859, 203171632.000000, 2609.250000, 8150.000000, 8194.000000, 8175.000000
2860, 203171792.000000, 2899.750000, 8157.000000, 8191.000000, 8177.000000
2861, 203171952.000000, 3074.250000, 8147.000000, 8197.000000, 8178.000000
2862, 203172112.000000, 3153.000000, 8154.000000, 8190.000000, 8172.000000
2863, 203172272.000000, 3164.500000, 8157.000000, 8208.000000, 8206.000000
2864, 203172432.000000, 3139.000000, 8154.000000, 8234.000000, 8238.000000
2865, 203172592.000000, 3089.250000, 8184.000000, 8223.000000, 8227.000000
2866, 203172752.000000, 3007.750000, 8166.000000, 8200.000000, 8192.000000
2867, 203172912.000000, 2907.500000, 8155.000000, 8180.000000, 8163.000000
2868, 203173072.000000, 2802.750000, 8156.000000, 8175.000000, 8158.000000
2869, 203173232.000000, 2707.750000, 8158.000000, 8180.000000, 8159.000000
2870, 203173392.000000, 2634.000000, 8218.000000, 8237.000000, 8255.000000
2871, 203173552.000000, 2583.250000, 8304.000000, 7887.000000, 7939.000000
2872, 203173712.000000, 2554.000000, 8112.000000, 8034.000000, 7976.000000
2873, 203173872.000000, 2536.500000, 8160.000000, 8205.000000, 8197.000000
2874, 203174032.000000, 2514.250000, 8187.000000, 8219.000000, 8219.000000
2875, 203174192.000000, 2479.250000, 8183.000000, 8231.000000, 8230.000000
2876, 203174352.000000, 2429.500000, 8191.000000, 8229.000000, 8231.000000
2877, 203174512.000000, 2356.000000, 8209.000000, 8222.000000, 8228.000000
2878, 203174672.000000, 2265.500000, 8209.000000, 8234.000000, 8242.000000
2879, 203174832.000000, 2156.250000, 8234.000000, 8239.000000, 8260.000000
2880, 203174992.000000, 2042.500000, 8237.000000, 8251.000000, 8272.000000
2881, 203175152.000000, 1931.750000, 8245.000000, 8250.000000, 8276.000000
2882, 203175312.000000, 1828.000000, 8262.000000, 8247.000000, 8281.000000
2883, 203175472.000000, 1734.000000, 8277.000000, 8244.000000, 8284.000000
2884, 203175632.000000, 1647.000000, 8289.000000, 8231.000000, 8277.000000
2885, 203175792.000000, 1571.250000, 8264.000000, 8218.000000, 8251.000000
2886, 203175952.000000, 1502.500000, 8207.000000, 8207.000000, 8220.000000
2887, 203176112.000000, 1439.250000, 8201.000000, 8184.000000, 8193.000000
2888, 203176272.000000, 1382.750000, 8170.000000, 8185.000000, 8180.000000
2889, 203176432.000000, 1334.500000, 8173.000000, 8189.000000, 8186.000000
2890, 203176592.000000, 1295.250000, 8178.000000, 8185.000000, 8185.000000
2891, 203176752.000000, 1257.750000, 8175.000000, 8191.000000, 8187.000000
2892, 203176912.000000, 1219.250000, 8165.000000, 8188.000000, 8181.000000
2893, 203177072.000000, 1179.250000, 8198.000000, 8176.000000, 8179.000000
2894, 203177232.000000, 1135.000000, 8181.000000, 8189.000000, 8185.000000
2895, 203177392.000000, 1103.000000, 8175.000000, 8189.000000, 8185.000000
2896, 203177552.000000, 1140.500000, 8189.000000, 8176.000000, 8179.000000
2897, 203177712.000000, 1298.250000, 8180.000000, 8175.000000, 8172.000000
2898, 203177872.000000, 1596.250000, 8179.000000, 8173.000000, 8166.000000
2899, 203178032.000000, 1965.000000, 8187.000000, 8175.000000, 8175.000000
2900, 203178192.000000, 2330.000000, 8165.000000, 8183.000000, 8178.000000
2901, 203178352.000000, 2620.750000, 8195.000000, 8192.000000, 8205.000000
2902, 203178512.000000, 2812.250000, 8186.000000, 8209.000000, 8224.000000
2903, 203178672.000000, 2900.500000, 8211.000000, 8193.000000, 8205.000000
2904, 203178832.000000, 2907.500000, 8191.000000, 8175.000000, 8177.000000
2905, 203178992.000000, 2853.500000, 8157.000000, 8172.000000, 8156.000000
2906, 203179152.000000, 2758.000000, 8166.000000, 8166.000000, 8154.000000
2907, 203179312.000000, 2633.750000, 8154.000000, 8163.000000, 8141.000000
2908, 203179472.000000, 2487.000000, 8208.000000, 8224.000000, 8234.000000
2909, 203179632.000000, 2340.250000, 8335.000000, 7934.000000, 8004.000000
2910, 203179792.000000, 2209.750000, 8093.000000, 8002.000000, 7943.000000
2911, 203179952.000000, 2109.750000, 8175.000000, 8177.000000, 8161.000000
2912, 203180112.000000, 2049.500000, 8180.000000, 8196.000000, 8187.000000
2913, 203180272.000000, 2027.000000, 8192.000000, 8202.000000, 8195.000000
2914, 203180432.000000, 2033.500000, 8197.000000, 8209.000000, 8202.000000
2915, 203180592.000000, 2050.250000, 8205.000000, 8218.000000, 8218.000000
2916, 203180752.000000, 2066.750000, 8214.000000, 8220.000000, 8224.000000
2917, 203180912.000000, 2071.000000, 8219.000000, 8224.000000, 8229.000000
2918, 203181072.000000, 2061.750000, 8233.000000, 8226.000000, 8242.000000
2919, 203181232.000000, 2041.750000, 8239.000000, 8244.000000, 8262.000000
2920, 203181392.000000, 2007.250000, 8242.000000, 8253.000000, 8271.000000
2921, 203181552.000000, 1956.500000, 8274.000000, 8233.000000, 8265.000000
2922, 203181712.000000, 1904.500000, 8241.000000, 8226.000000, 8248.000000
2923, 203181872.000000, 1860.500000, 8233.000000, 8206.000000, 8224.000000
2924, 203182032.000000, 1819.750000, 8196.000000, 8199.000000, 8205.000000
2925, 203182192.000000, 1777.250000, 8149.000000, 8200.000000, 8191.000000
2926, 203182352.000000, 1738.250000, 8146.000000, 8186.000000, 8171.000000
2927, 203182512.000000, 1699.000000, 8146.000000, 8189.000000, 8168.000000
2928, 203182672.000000, 1660.000000, 8139.000000, 8189.000000, 8169.000000
2929, 203182832.000000, 1622.500000, 8170.000000, 8189.000000, 8180.000000
2930, 203182992.000000, 1585.750000, 8155.000000, 8199.000000, 8184.000000
2931, 203183152.000000, 1554.000000, 8161.000000, 8191.000000, 8176.000000
2932, 203183312.000000, 1522.500000, 8188.000000, 8178.000000, 8171.000000
2933, 203183472.000000, 1491.500000, 8167.000000, 8183.000000, 8172.000000
2934, 203183632.000000, 1496.500000, 8170.000000, 8182.000000, 8171.000000
2935, 203183792.000000, 1593.000000, 8157.000000, 8185.000000, 8169.000000
2936, 203183952.000000, 1821.250000, 8164.000000, 8179.000000, 8164.000000
2937, 203184112.000000, 2148.750000, 8166.000000, 8175.000000, 8161.000000
2938, 203184272.000000, 2507.000000, 8168.000000, 8174.000000, 8163.000000
2939, 203184432.000000, 2832.250000, 8157.000000, 8179.000000, 8163.000000
2940, 203184592.000000, 3076.250000, 8172.000000, 8180.000000, 8168.000000
2941, 203184752.000000, 3214.500000, 8173.000000, 8174.000000, 8167.000000
2942, 203184912.000000, 3257.250000, 8174.000000, 8199.000000, 8202.000000
2943, 203185072.000000, 3225.500000, 8195.000000, 8216.000000, 8233.000000
2944, 203185232.000000, 3139.750000, 8187.000000, 8206.000000, 8214.000000
2945, 203185392.000000, 3014.750000, 8184.000000, 8185.000000, 8181.000000
2946, 203185552.000000, 2859.250000, 8162.000000, 8170.000000, 8157.000000
2947, 203185712.000000, 2692.500000, 8155.000000, 8169.000000, 8150.000000
2948, 203185872.000000, 2542.000000, 8176.000000, 8164.000000, 8153.000000
2949, 203186032.000000, 2427.750000, 8247.000000, 8200.000000, 8232.000000
2950, 203186192.000000, 2352.500000, 8296.000000, 7846.000000, 7890.000000
2951, 203186352.000000, 2310.000000, 8130.000000, 8078.000000, 8026.000000
2952, 203186512.000000, 2287.250000, 8208.000000, 8201.000000, 8205.000000
2953, 203186672.000000, 2267.250000, 8206.000000, 8220.000000, 8224.000000
2954, 203186832.000000, 2239.250000, 8208.000000, 8230.000000, 8236.000000
2955, 203186992.000000, 2190.750000, 8213.000000, 8229.000000, 8240.000000
2956, 203187152.000000, 2124.500000, 8236.000000, 8232.000000, 8246.000000
2957, 203187312.000000, 2045.250000, 8222.000000, 8236.000000, 8247.000000
2958, 203187472.000000, 1967.500000, 8244.000000, 8238.000000, 8258.000000
2959, 203187632.000000, 1892.500000, 8243.000000, 8254.000000, 8279.000000
2960, 203187792.000000, 1819.750000, 8254.000000, 8268.000000, 8294.000000
2961, 203187952.000000, 1748.750000, 8248.000000, 8264.000000, 8290.000000
2962, 203188112.000000, 1683.500000, 8272.000000, 8255.000000, 8293.000000
2963, 203188272.000000, 1621.750000, 8265.000000, 8248.000000, 8284.000000
2964, 203188432.000000, 1562.000000, 8215.000000, 8243.000000, 8259.000000
2965, 203188592.000000, 1505.250000, 8178.000000, 8223.000000, 8227.000000
2966, 203188752.000000, 1453.750000, 8159.000000, 8210.000000, 8203.000000
2967, 203188912.000000, 1402.000000, 8141.000000, 8202.000000, 8183.000000
2968, 203189072.000000, 1348.500000, 8131.000000, 8209.000000, 8188.000000
2969, 203189232.000000, 1293.500000, 8152.000000, 8210.000000, 8193.000000
2970, 203189392.000000, 1240.500000, 8142.000000, 8211.000000, 8197.000000
2971, 203189552.000000, 1184.750000, 8131.000000, 8211.000000, 8188.000000
2972, 203189712.000000, 1129.250000, 8146.000000, 8203.000000, 8186.000000
2973, 203189872.000000, 1070.750000, 8131.000000, 8209.000000, 8188.000000
2974, 203190032.000000, 1032.250000, 8141.000000, 8208.000000, 8189.000000
2975, 203190192.000000, 1074.500000, 8142.000000, 8196.000000, 8174.000000
2976, 203190352.000000, 1261.250000, 8143.000000, 8189.000000, 8164.000000
2977, 203190512.000000, 1591.000000, 8131.000000, 8192.000000, 8157.000000
2978, 203190672.000000, 2008.250000, 8136.000000, 8190.000000, 8162.000000
2979, 203190832.000000, 2427.750000, 8143.000000, 8219.000000, 8208.000000
2980, 203190992.000000, 2791.250000, 8160.000000, 8230.000000, 8232.000000
2981, 203191152.000000, 3057.750000, 8181.000000, 8212.000000, 8206.000000
2982, 203191312.000000, 3221.500000, 8139.000000, 8189.000000, 8161.000000
2983, 203191472.000000, 3300.500000, 8145.000000, 8179.000000, 8149.000000
2984, 203191632.000000, 3326.000000, 8128.000000, 8186.000000, 8151.000000
2985, 203191792.000000, 3312.750000, 8139.000000, 8180.000000, 8150.000000
2986, 203191952.000000, 3262.250000, 8186.000000, 8234.000000, 8231.000000
2987, 203192112.000000, 3183.000000, 8349.000000, 7893.000000, 7961.000000
2988, 203192272.000000, 3088.750000, 8063.000000, 8029.000000, 7950.000000
2989, 203192432.000000, 3003.750000, 8153.000000, 8214.000000, 8193.000000
2990, 203192592.000000, 2937.000000, 8164.000000, 8229.000000, 8220.000000
2991, 203192752.000000, 2899.500000, 8168.000000, 8230.000000, 8217.000000
2992, 203192912.000000, 2883.000000, 8179.000000, 8231.000000, 8222.000000
2993, 203193072.000000, 2874.750000, 8198.000000, 8237.000000, 8238.000000
2994, 203193232.000000, 2857.500000, 8198.000000, 8247.000000, 8248.000000
2995, 203193392.000000, 2825.000000, 8204.000000, 8256.000000, 8257.000000
2996, 203193552.000000, 2772.500000, 8223.000000, 8248.000000, 8260.000000
2997, 203193712.000000, 2699.250000, 8241.000000, 8248.000000, 8270.000000
2998, 203193872.000000, 2611.250000, 8240.000000, 8259.000000, 8280.000000
2999, 203194032.000000, 2512.750000, 8262.000000, 8250.000000, 8284.000000
3000, 203194192.000000, 2411.500000, 8271.000000, 8230.000000, 8264.000000
3001, 203194352.000000, 2309.750000, 8222.000000, 8221.000000, 8236.000000
3002, 203194512.000000, 2215.000000, 8194.000000, 8204.000000, 8210.000000
3003, 203194672.000000, 2129.250000, 8148.000000, 8204.000000, 8192.000000
3004, 203194832.000000, 2054.500000, 8147.000000, 8203.000000, 8188.000000
3005, 203194992.000000, 1992.000000, 8153.000000, 8199.000000, 8184.000000
3006, 203195152.000000, 1938.000000, 8140.000000, 8193.000000, 8174.000000
3007, 203195312.000000, 1889.000000, 8155.000000, 8193.000000, 8182.000000
3008, 203195472.000000, 1837.500000, 8159.000000, 8200.000000, 8191.000000
3009, 203195632.000000, 1777.500000, 8156.000000, 8200.000000, 8189.000000
3010, 203195792.000000, 1706.250000, 8164.000000, 8191.000000, 8186.000000
3011, 203195952.000000, 1629.250000, 8171.000000, 8185.000000, 8182.000000
3012, 203196112.000000, 1585.000000, 8166.000000, 8182.000000, 8174.000000
3013, 203196272.000000, 1639.250000, 8160.000000, 8186.000000, 8172.000000
3014, 203196432.000000, 1827.000000, 8179.000000, 8186.000000, 8179.000000
3015, 203196592.000000, 2143.500000, 8170.000000, 8182.000000, 8173.000000
3016, 203196752.000000, 2508.250000, 8179.000000, 8178.000000, 8169.000000
3017, 203196912.000000, 2849.500000, 8183.000000, 8172.000000, 8167.000000
3018, 203197072.000000, 3099.250000, 8183.000000, 8180.000000, 8175.000000
3019, 203197232.000000, 3247.000000, 8197.000000, 8191.000000, 8195.000000
3020, 203197392.000000, 3295.250000, 8187.000000, 8206.000000, 8216.000000
3021, 203197552.000000, 3271.500000, 8230.000000, 8208.000000, 8234.000000
3022, 203197712.000000, 3201.250000, 8217.000000, 8181.000000, 8189.000000
3023, 203197872.000000, 3090.250000, 8182.000000, 8169.000000, 8160.000000
3024, 203198032.000000, 2947.000000, 8191.000000, 8169.000000, 8166.000000
3025, 203198192.000000, 2783.500000, 8193.000000, 8164.000000, 8160.000000
3026, 203198352.000000, 2630.000000, 8227.000000, 8181.000000, 8191.000000
3027, 203198512.000000, 2506.500000, 8360.000000, 8031.000000, 8122.000000
3028, 203198672.000000, 2429.750000, 8099.000000, 7951.000000, 7902.000000
3029, 203198832.000000, 2388.000000, 8175.000000, 8166.000000, 8152.000000
3030, 203198992.000000, 2367.250000, 8213.000000, 8205.000000, 8212.000000
3031, 203199152.000000, 2343.000000, 8211.000000, 8207.000000, 8211.000000
3032, 203199312.000000, 2300.250000, 8225.000000, 8203.000000, 8216.000000
3033, 203199472.000000, 2236.250000, 8227.000000, 8216.000000, 8232.000000
3034, 203199632.000000, 2148.250000, 8229.000000, 8221.000000, 8239.000000
3035, 203199792.000000, 2045.000000, 8238.000000, 8222.000000, 8240.000000
3036, 203199952.000000, 1932.750000, 8242.000000, 8224.000000, 8246.000000
3037, 203200112.000000, 1823.500000, 8267.000000, 8230.000000, 8261.000000
3038, 203200272.000000, 1724.500000, 8258.000000, 8241.000000, 8270.000000
3039, 203200432.000000, 1634.500000, 8273.000000, 8237.000000, 8272.000000
3040, 203200592.000000, 1553.000000, 8271.000000, 8226.000000, 8258.000000
3041, 203200752.000000, 1474.750000, 8254.000000, 8207.000000, 8229.000000
3042, 203200912.000000, 1402.500000, 8215.000000, 8195.000000, 8203.000000
3043, 203201072.000000, 1340.000000, 8173.000000, 8190.000000, 8181.000000
3044, 203201232.000000, 1289.250000, 8153.000000, 8187.000000, 8172.000000
3045, 203201392.000000, 1248.500000, 8167.000000, 8180.000000, 8165.000000
3046, 203201552.000000, 1215.000000, 8170.000000, 8174.000000, 8161.000000
3047, 203201712.000000, 1194.250000, 8168.000000, 8176.000000, 8163.000000
3048, 203201872.000000, 1190.250000, 8164.000000, 8185.000000, 8168.000000
3049, 203202032.000000, 1192.000000, 8183.000000, 8182.000000, 8177.000000
3050, 203202192.000000, 1189.000000, 8184.000000, 8180.000000, 8174.000000
3051, 203202352.000000, 1198.000000, 8170.000000, 8177.000000, 8162.000000
3052, 203202512.000000, 1320.500000, 8169.000000, 8174.000000, 8160.000000
3053, 203202672.000000, 1731.000000, 8176.000000, 8176.000000, 8167.000000
3054, 203202832.000000, 2267.500000, 8183.000000, 8180.000000, 8177.000000
3055, 203202992.000000, 2733.750000, 8185.000000, 8198.000000, 8212.000000
3056, 203203152.000000, 3125.250000, 8189.000000, 8214.000000, 8231.000000
3057, 203203312.000000, 3400.500000, 8193.000000, 8195.000000, 8197.000000
3058, 203203472.000000, 3546.500000, 8173.000000, 8174.000000, 8165.000000
3059, 203203632.000000, 3594.750000, 8157.000000, 8171.000000, 8151.000000
3060, 203203792.000000, 3569.250000, 8154.000000, 8166.000000, 8152.000000
3061, 203203952.000000, 3495.000000, 8161.000000, 8163.000000, 8142.000000
3062, 203204112.000000, 3383.000000, 8232.000000, 8216.000000, 8242.000000
3063, 203204272.000000, 3246.250000, 8295.000000, 7860.000000, 7904.000000
3064, 203204432.000000, 3104.500000, 8116.000000, 8064.000000, 8011.000000
3065, 203204592.000000, 2981.000000, 8181.000000, 8203.000000, 8195.000000
3066, 203204752.000000, 2899.000000, 8174.000000, 8209.000000, 8204.000000
3067, 203204912.000000, 2854.000000, 8193.000000, 8214.000000, 8212.000000
3068, 203205072.000000, 2837.250000, 8209.000000, 8220.000000, 8224.000000
3069, 203205232.000000, 2830.750000, 8212.000000, 8231.000000, 8235.000000
3070, 203205392.000000, 2817.500000, 8204.000000, 8234.000000, 8239.000000
3071, 203205552.000000, 2783.250000, 8222.000000, 8233.000000, 8244.000000
3072, 203205712.000000, 2729.000000, 8256.000000, 8236.000000, 8260.000000
3073, 203205872.000000, 2652.500000, 8250.000000, 8251.000000, 8277.000000
3074, 203206032.000000, 2554.250000, 8265.000000, 8250.000000, 8276.000000
3075, 203206192.000000, 2439.000000, 8268.000000, 8239.000000, 8271.000000
3076, 203206352.000000, 2316.750000, 8264.000000, 8223.000000, 8250.000000
3077, 203206512.000000, 2191.500000, 8226.000000, 8205.000000, 8223.000000
3078, 203206672.000000, 2070.500000, 8176.000000, 8204.000000, 8204.000000
3079, 203206832.000000, 1959.750000, 8155.000000, 8200.000000, 8189.000000
3080, 203206992.000000, 1857.500000, 8149.000000, 8191.000000, 8178.000000
3081, 203207152.000000, 1765.000000, 8154.000000, 8184.000000, 8172.000000
3082, 203207312.000000, 1686.000000, 8165.000000, 8185.000000, 8180.000000
3083, 203207472.000000, 1617.000000, 8162.000000, 8196.000000, 8189.000000
3084, 203207632.000000, 1551.500000, 8178.000000, 8195.000000, 8191.000000
3085, 203207792.000000, 1484.750000, 8176.000000, 8188.000000, 8183.000000
3086, 203207952.000000, 1430.000000, 8174.000000, 8186.000000, 8179.000000
3087, 203208112.000000, 1445.500000, 8184.000000, 8182.000000, 8178.000000
3088, 203208272.000000, 1596.750000, 8187.000000, 8186.000000, 8182.000000
3089, 203208432.000000, 1893.500000, 8172.000000, 8188.000000, 8182.000000
3090, 203208592.000000, 2283.750000, 8172.000000, 8180.000000, 8174.000000
3091, 203208752.000000, 2677.500000, 8169.000000, 8182.000000, 8180.000000
3092, 203208912.000000, 3001.500000, 8181.000000, 8206.000000, 8216.000000
3093, 203209072.000000, 3216.250000, 8203.000000, 8230.000000, 8256.000000
3094, 203209232.000000, 3323.500000, 8181.000000, 8205.000000, 8205.000000
3095, 203209392.000000, 3339.250000, 8159.000000, 8179.000000, 8168.000000
3096, 203209552.000000, 3290.250000, 8164.000000, 8166.000000, 8157.000000
3097, 203209712.000000, 3197.750000, 8179.000000, 8163.000000, 8156.000000
3098, 203209872.000000, 3063.250000, 8158.000000, 8182.000000, 8159.000000
3099, 203210032.000000, 2895.500000, 8282.000000, 8164.000000, 8221.000000
3100, 203210192.000000, 2721.250000, 8187.000000, 7876.000000, 7864.000000
3101, 203210352.000000, 2568.750000, 8126.000000, 8130.000000, 8085.000000
3102, 203210512.000000, 2456.000000, 8176.000000, 8214.000000, 8207.000000
3103, 203210672.000000, 2394.500000, 8190.000000, 8224.000000, 8222.000000
3104, 203210832.000000, 2377.250000, 8191.000000, 8232.000000, 8232.000000
3105, 203210992.000000, 2381.500000, 8204.000000, 8225.000000, 8230.000000
3106, 203211152.000000, 2375.000000, 8202.000000, 8228.000000, 8232.000000
3107, 203211312.000000, 2344.250000, 8203.000000, 8243.000000, 8247.000000
3108, 203211472.000000, 2284.750000, 8216.000000, 8246.000000, 8253.000000
3109, 203211632.000000, 2205.500000, 8216.000000, 8251.000000, 8260.000000
3110, 203211792.000000, 2114.500000, 8242.000000, 8248.000000, 8266.000000
3111, 203211952.000000, 2022.750000, 8255.000000, 8239.000000, 8262.000000
3112, 203212112.000000, 1934.750000, 8258.000000, 8234.000000, 8259.000000
3113, 203212272.000000, 1854.500000, 8265.000000, 8220.000000, 8246.000000
3114, 203212432.000000, 1785.750000, 8215.000000, 8209.000000, 8217.000000
3115, 203212592.000000, 1730.000000, 8167.000000, 8198.000000, 8185.000000
3116, 203212752.000000, 1688.500000, 8155.000000, 8187.000000, 8166.000000
3117, 203212912.000000, 1657.000000, 8132.000000, 8190.000000, 8165.000000
3118, 203213072.000000, 1628.750000, 8145.000000, 8193.000000, 8171.000000
3119, 203213232.000000, 1598.000000, 8149.000000, 8200.000000, 8177.000000
3120, 203213392.000000, 1571.750000, 8165.000000, 8194.000000, 8183.000000
3121, 203213552.000000, 1552.750000, 8157.000000, 8189.000000, 8173.000000
3122, 203213712.000000, 1536.500000, 8147.000000, 8196.000000, 8177.000000
3123, 203213872.000000, 1558.500000, 8161.000000, 8198.000000, 8183.000000
3124, 203214032.000000, 1680.250000, 8150.000000, 8194.000000, 8177.000000
3125, 203214192.000000, 1965.750000, 8160.000000, 8180.000000, 8166.000000
3126, 203214352.000000, 2386.000000, 8172.000000, 8179.000000, 8167.000000
3127, 203214512.000000, 2862.250000, 8146.000000, 8186.000000, 8167.000000
3128, 203214672.000000, 3298.750000, 8163.000000, 8186.000000, 8172.000000
3129, 203214832.000000, 3629.750000, 8141.000000, 8192.000000, 8177.000000
3130, 203214992.000000, 3828.750000, 8171.000000, 8181.000000, 8172.000000
3131, 203215152.000000, 3911.250000, 8177.000000, 8206.000000, 8209.000000
3132, 203215312.000000, 3906.750000, 8187.000000, 8230.000000, 8246.000000
3133, 203215472.000000, 3843.000000, 8173.000000, 8203.000000, 8203.000000
3134, 203215632.000000, 3748.750000, 8170.000000, 8180.000000, 8165.000000
3135, 203215792.000000, 3625.500000, 8144.000000, 8172.000000, 8153.000000
3136, 203215952.000000, 3475.500000, 8162.000000, 8163.000000, 8148.000000
3137, 203216112.000000, 3325.500000, 8189.000000, 8159.000000, 8144.000000
3138, 203216272.000000, 3196.750000, 8292.000000, 8147.000000, 8207.000000
3139, 203216432.000000, 3097.750000, 8203.000000, 7869.000000, 7858.000000
3140, 203216592.000000, 3024.250000, 8114.000000, 8131.000000, 8078.000000
3141, 203216752.000000, 2959.250000, 8173.000000, 8204.000000, 8195.000000
3142, 203216912.000000, 2892.500000, 8181.000000, 8223.000000, 8213.000000
3143, 203217072.000000, 2811.750000, 8183.000000, 8228.000000, 8223.000000
3144, 203217232.000000, 2711.750000, 8197.000000, 8227.000000, 8227.000000
3145, 203217392.000000, 2591.750000, 8228.000000, 8226.000000, 8235.000000
3146, 203217552.000000, 2455.000000, 8209.000000, 8234.000000, 8244.000000
3147, 203217712.000000, 2310.000000, 8233.000000, 8241.000000, 8257.000000
3148, 203217872.000000, 2164.000000, 8251.000000, 8247.000000, 8273.000000
3149, 203218032.000000, 2026.500000, 8271.000000, 8249.000000, 8279.000000
3150, 203218192.000000, 1902.750000, 8268.000000, 8244.000000, 8274.000000
3151, 203218352.000000, 1797.000000, 8289.000000, 8230.000000, 8268.000000
3152, 203218512.000000, 1704.500000, 8286.000000, 8217.000000, 8255.000000
3153, 203218672.000000, 1624.500000, 8240.000000, 8215.000000, 8240.000000
3154, 203218832.000000, 1552.000000, 8194.000000, 8202.000000, 8208.000000
3155, 203218992.000000, 1483.750000, 8167.000000, 8196.000000, 8191.000000
3156, 203219152.000000, 1421.250000, 8165.000000, 8188.000000, 8179.000000
3157, 203219312.000000, 1366.000000, 8155.000000, 8192.000000, 8183.000000
3158, 203219472.000000, 1321.750000, 8180.000000, 8196.000000, 8191.000000
3159, 203219632.000000, 1282.000000, 8154.000000, 8203.000000, 8191.000000
3160, 203219792.000000, 1236.250000, 8169.000000, 8195.000000, 8189.000000
3161, 203219952.000000, 1191.000000, 8173.000000, 8191.000000, 8182.000000
3162, 203220112.000000, 1186.250000, 8183.000000, 8191.000000, 8192.000000
3163, 203220272.000000, 1290.750000, 8172.000000, 8194.000000, 8186.000000
3164, 203220432.000000, 1552.500000, 8169.000000, 8189.000000, 8179.000000
3165, 203220592.000000, 1958.250000, 8155.000000, 8183.000000, 8170.000000
3166, 203220752.000000, 2422.250000, 8170.000000, 8179.000000, 8176.000000
3167, 203220912.000000, 2849.000000, 8167.000000, 8184.000000, 8177.000000
3168, 203221072.000000, 3174.750000, 8152.000000, 8189.000000, 8176.000000
3169, 203221232.000000, 3377.750000, 8176.000000, 8186.000000, 8179.000000
3170, 203221392.000000, 3456.500000, 8189.000000, 8196.000000, 8207.000000
3171, 203221552.000000, 3448.000000, 8180.000000, 8219.000000, 8234.000000
3172, 203221712.000000, 3381.000000, 8191.000000, 8211.000000, 8219.000000
3173, 203221872.000000, 3277.500000, 8198.000000, 8183.000000, 8188.000000
3174, 203222032.000000, 3148.000000, 8153.000000, 8177.000000, 8156.000000
3175, 203222192.000000, 2986.250000, 8163.000000, 8162.000000, 8144.000000
3176, 203222352.000000, 2814.500000, 8158.000000, 8164.000000, 8137.000000
3177, 203222512.000000, 2660.250000, 8222.000000, 8217.000000, 8228.000000
3178, 203222672.000000, 2547.250000, 8334.000000, 7897.000000, 7961.000000
3179, 203222832.000000, 2481.750000, 8081.000000, 8025.000000, 7948.000000
3180, 203222992.000000, 2451.750000, 8178.000000, 8191.000000, 8179.000000
3181, 203223152.000000, 2427.750000, 8185.000000, 8207.000000, 8194.000000
3182, 203223312.000000, 2390.000000, 8191.000000, 8217.000000, 8210.000000
3183, 203223472.000000, 2331.750000, 8192.000000, 8227.000000, 8222.000000
3184, 203223632.000000, 2257.000000, 8211.000000, 8226.000000, 8228.000000
3185, 203223792.000000, 2177.000000, 8210.000000, 8227.000000, 8228.000000
3186, 203223952.000000, 2097.000000, 8222.000000, 8232.000000, 8241.000000
3187, 203224112.000000, 2013.750000, 8231.000000, 8245.000000, 8260.000000
3188, 203224272.000000, 1928.250000, 8243.000000, 8254.000000, 8273.000000
3189, 203224432.000000, 1858.250000, 8260.000000, 8248.000000, 8274.000000
3190, 203224592.000000, 1802.750000, 8266.000000, 8235.000000, 8267.000000
3191, 203224752.000000, 1753.750000, 8272.000000, 8233.000000, 8261.000000
3192, 203224912.000000, 1709.750000, 8231.000000, 8218.000000, 8239.000000
3193, 203225072.000000, 1670.750000, 8198.000000, 8207.000000, 8214.000000
3194, 203225232.000000, 1632.000000, 8166.000000, 8194.000000, 8186.000000
3195, 203225392.000000, 1592.000000, 8152.000000, 8188.000000, 8171.000000
3196, 203225552.000000, 1548.250000, 8146.000000, 8186.000000, 8165.000000
3197, 203225712.000000, 1501.500000, 8155.000000, 8188.000000, 8171.000000
3198, 203225872.000000, 1458.750000, 8155.000000, 8196.000000, 8181.000000
3199, 203226032.000000, 1416.250000, 8160.000000, 8192.000000, 8178.000000
3200, 203226192.000000, 1367.250000, 8169.000000, 8184.000000, 8172.000000
3201, 203226352.000000, 1311.000000, 8163.000000, 8183.000000, 8169.000000
3202, 203226512.000000, 1301.000000, 8175.000000, 8177.000000, 8169.000000
3203, 203226672.000000, 1406.250000, 8189.000000, 8177.000000, 8172.000000
3204, 203226832.000000, 1670.500000, 8166.000000, 8174.000000, 8162.000000
3205, 203226992.000000, 2057.750000, 8181.000000, 8168.000000, 8160.000000
3206, 203227152.000000, 2480.000000, 8171.000000, 8170.000000, 8161.000000
3207, 203227312.000000, 2852.750000, 8185.000000, 8167.000000, 8164.000000
3208, 203227472.000000, 3119.250000, 8164.000000, 8175.000000, 8162.000000
3209, 203227632.000000, 3268.000000, 8173.000000, 8185.000000, 8182.000000
3210, 203227792.000000, 3306.500000, 8184.000000, 8198.000000, 8208.000000
3211, 203227952.000000, 3274.000000, 8224.000000, 8200.000000, 8218.000000
3212, 203228112.000000, 3192.750000, 8207.000000, 8176.000000, 8181.000000
3213, 203228272.000000, 3073.250000, 8172.000000, 8164.000000, 8156.000000
3214, 203228432.000000, 2927.000000, 8185.000000, 8159.000000, 8148.000000
3215, 203228592.000000, 2763.500000, 8188.000000, 8150.000000, 8143.000000
3216, 203228752.000000, 2607.500000, 8229.000000, 8184.000000, 8192.000000
3217, 203228912.000000, 2472.250000, 8348.000000, 7997.000000, 8076.000000
3218, 203229072.000000, 2374.500000, 8107.000000, 7929.000000, 7878.000000
3219, 203229232.000000, 2311.250000, 8196.000000, 8149.000000, 8139.000000
3220, 203229392.000000, 2267.750000, 8213.000000, 8196.000000, 8203.000000
3221, 203229552.000000, 2220.250000, 8230.000000, 8197.000000, 8215.000000
3222, 203229712.000000, 2161.750000, 8211.000000, 8210.000000, 8220.000000
3223, 203229872.000000, 2082.500000, 8230.000000, 8216.000000, 8232.000000
3224, 203230032.000000, 1990.250000, 8243.000000, 8214.000000, 8237.000000
3225, 203230192.000000, 1891.250000, 8239.000000, 8221.000000, 8241.000000
3226, 203230352.000000, 1789.000000, 8262.000000, 8228.000000, 8254.000000
3227, 203230512.000000, 1688.000000, 8271.000000, 8238.000000, 8272.000000
3228, 203230672.000000, 1591.750000, 8281.000000, 8240.000000, 8278.000000
3229, 203230832.000000, 1500.750000, 8292.000000, 8239.000000, 8277.000000
3230, 203230992.000000, 1415.500000, 8298.000000, 8225.000000, 8267.000000
3231, 203231152.000000, 1332.000000, 8261.000000, 8215.000000, 8248.000000
3232, 203231312.000000, 1263.250000, 8218.000000, 8208.000000, 8224.000000
3233, 203231472.000000, 1212.250000, 8172.000000, 8200.000000, 8200.000000
3234, 203231632.000000, 1176.750000, 8171.000000, 8188.000000, 8183.000000
3235, 203231792.000000, 1140.250000, 8144.000000, 8186.000000, 8171.000000
3236, 203231952.000000, 1094.000000, 8142.000000, 8193.000000, 8175.000000
3237, 203232112.000000, 1039.000000, 8156.000000, 8197.000000, 8188.000000
3238, 203232272.000000, 982.500000, 8169.000000, 8198.000000, 8196.000000
3239, 203232432.000000, 928.250000, 8166.000000, 8199.000000, 8191.000000
3240, 203232592.000000, 883.750000, 8164.000000, 8193.000000, 8184.000000
3241, 203232752.000000, 868.250000, 8160.000000, 8187.000000, 8177.000000
3242, 203232912.000000, 950.000000, 8139.000000, 8195.000000, 8177.000000
3243, 203233072.000000, 1184.750000, 8156.000000, 8193.000000, 8174.000000
3244, 203233232.000000, 1576.250000, 8145.000000, 8184.000000, 8164.000000
3245, 203233392.000000, 2046.750000, 8156.000000, 8176.000000, 8157.000000
3246, 203233552.000000, 2501.250000, 8157.000000, 8191.000000, 8177.000000
3247, 203233712.000000, 2858.500000, 8163.000000, 8215.000000, 8215.000000
3248, 203233872.000000, 3094.250000, 8182.000000, 8225.000000, 8235.000000
3249, 203234032.000000, 3218.500000, 8186.000000, 8190.000000, 8187.000000
3250, 203234192.000000, 3258.500000, 8152.000000, 8168.000000, 8145.000000
3251, 203234352.000000, 3244.250000, 8155.000000, 8169.000000, 8146.000000
3252, 203234512.000000, 3195.000000, 8151.000000, 8173.000000, 8151.000000
3253, 203234672.000000, 3106.500000, 8176.000000, 8177.000000, 8158.000000
3254, 203234832.000000, 2985.500000, 8312.000000, 8043.000000, 8106.000000
3255, 203234992.000000, 2848.750000, 8105.000000, 7878.000000, 7829.000000
3256, 203235152.000000, 2720.500000, 8150.000000, 8150.000000, 8117.000000
3257, 203235312.000000, 2616.250000, 8180.000000, 8219.000000, 8214.000000
3258, 203235472.000000, 2539.500000, 8166.000000, 8228.000000, 8220.000000
3259, 203235632.000000, 2483.750000, 8188.000000, 8227.000000, 8222.000000
3260, 203235792.000000, 2440.750000, 8196.000000, 8226.000000, 8224.000000
3261, 203235952.000000, 2392.250000, 8193.000000, 8237.000000, 8233.000000
3262, 203236112.000000, 2329.750000, 8221.000000, 8245.000000, 8255.000000
3263, 203236272.000000, 2249.500000, 8222.000000, 8250.000000, 8259.000000
3264, 203236432.000000, 2157.250000, 8228.000000, 8254.000000, 8271.000000
3265, 203236592.000000, 2058.000000, 8243.000000, 8252.000000, 8271.000000
3266, 203236752.000000, 1958.000000, 8261.000000, 8249.000000, 8272.000000
3267, 203236912.000000, 1861.250000, 8267.000000, 8247.000000, 8278.000000
3268, 203237072.000000, 1772.500000, 8252.000000, 8227.000000, 8256.000000
3269, 203237232.000000, 1694.250000, 8207.000000, 8209.000000, 8218.000000
3270, 203237392.000000, 1631.000000, 8163.000000, 8198.000000, 8188.000000
3271, 203237552.000000, 1576.750000, 8160.000000, 8183.000000, 8169.000000
3272, 203237712.000000, 1530.750000, 8153.000000, 8191.000000, 8176.000000
3273, 203237872.000000, 1489.000000, 8149.000000, 8192.000000, 8177.000000
3274, 203238032.000000, 1441.750000, 8163.000000, 8186.000000, 8174.000000
3275, 203238192.000000, 1385.000000, 8157.000000, 8188.000000, 8172.000000
3276, 203238352.000000, 1314.000000, 8160.000000, 8192.000000, 8180.000000
3277, 203238512.000000, 1229.750000, 8168.000000, 8193.000000, 8184.000000
3278, 203238672.000000, 1156.000000, 8164.000000, 8190.000000, 8179.000000
3279, 203238832.000000, 1148.250000, 8183.000000, 8182.000000, 8175.000000
3280, 203238992.000000, 1268.250000, 8161.000000, 8180.000000, 8167.000000
3281, 203239152.000000, 1528.750000, 8179.000000, 8175.000000, 8170.000000
3282, 203239312.000000, 1888.750000, 8180.000000, 8181.000000, 8176.000000
3283, 203239472.000000, 2271.000000, 8180.000000, 8181.000000, 8174.000000
3284, 203239632.000000, 2604.250000, 8181.000000, 8174.000000, 8168.000000
3285, 203239792.000000, 2840.000000, 8190.000000, 8170.000000, 8172.000000
3286, 203239952.000000, 2969.500000, 8181.000000, 8177.000000, 8171.000000
3287, 203240112.000000, 3002.500000, 8196.000000, 8175.000000, 8179.000000
3288, 203240272.000000, 2971.000000, 8189.000000, 8183.000000, 8182.000000
3289, 203240432.000000, 2898.750000, 8180.000000, 8181.000000, 8178.000000
3290, 203240592.000000, 2788.250000, 8191.000000, 8185.000000, 8189.000000
3291, 203240752.000000, 2644.000000, 8200.000000, 8209.000000, 8227.000000
3292, 203240912.000000, 2477.250000, 8220.000000, 8222.000000, 8246.000000
3293, 203241072.000000, 2317.250000, 8193.000000, 8200.000000, 8210.000000
3294, 203241232.000000, 2188.000000, 8194.000000, 8174.000000, 8171.000000
3295, 203241392.000000, 2104.000000, 8169.000000, 8173.000000, 8163.000000
3296, 203241552.000000, 2048.750000, 8174.000000, 8172.000000, 8167.000000
3297, 203241712.000000, 2005.500000, 8185.000000, 8207.000000, 8202.000000
3298, 203241872.000000, 1953.000000, 8345.000000, 7978.000000, 8057.000000
3299, 203242032.000000, 1882.250000, 8085.000000, 7941.000000, 7883.000000
3300, 203242192.000000, 1794.750000, 8162.000000, 8176.000000, 8161.000000
3301, 203242352.000000, 1699.750000, 8197.000000, 8216.000000, 8224.000000
3302, 203242512.000000, 1601.750000, 8183.000000, 8232.000000, 8233.000000
3303, 203242672.000000, 1500.000000, 8187.000000, 8233.000000, 8239.000000
3304, 203242832.000000, 1399.250000, 8197.000000, 8229.000000, 8237.000000
3305, 203242992.000000, 1305.000000, 8211.000000, 8230.000000, 8238.000000
3306, 203243152.000000, 1221.000000, 8205.000000, 8244.000000, 8250.000000
3307, 203243312.000000, 1144.250000, 8212.000000, 8251.000000, 8259.000000
3308, 203243472.000000, 1078.250000, 8224.000000, 8253.000000, 8261.000000
3309, 203243632.000000, 1028.250000, 8241.000000, 8252.000000, 8270.000000
3310, 203243792.000000, 991.250000, 8257.000000, 8250.000000, 8274.000000
3311, 203243952.000000, 968.750000, 8259.000000, 8241.000000, 8267.000000
3312, 203244112.000000, 962.000000, 8254.000000, 8229.000000, 8255.000000
3313, 203244272.000000, 963.000000, 8201.000000, 8218.000000, 8223.000000
3314, 203244432.000000, 961.250000, 8183.000000, 8192.000000, 8187.000000
3315, 203244592.000000, 966.250000, 8130.000000, 8198.000000, 8172.000000
3316, 203244752.000000, 972.750000, 8150.000000, 8195.000000, 8178.000000
3317, 203244912.000000, 982.000000, 8157.000000, 8193.000000, 8175.000000
3318, 203245072.000000, 991.750000, 8158.000000, 8195.000000, 8176.000000
3319, 203245232.000000, 992.500000, 8150.000000, 8194.000000, 8179.000000
3320, 203245392.000000, 978.500000, 8150.000000, 8196.000000, 8177.000000
3321, 203245552.000000, 950.750000, 8151.000000, 8198.000000, 8182.000000
3322, 203245712.000000, 953.500000, 8167.000000, 8196.000000, 8187.000000
3323, 203245872.000000, 1060.250000, 8147.000000, 8198.000000, 8183.000000
3324, 203246032.000000, 1337.500000, 8156.000000, 8187.000000, 8174.000000
3325, 203246192.000000, 1780.750000, 8165.000000, 8184.000000, 8171.000000
3326, 203246352.000000, 2293.500000, 8156.000000, 8190.000000, 8173.000000
3327, 203246512.000000, 2771.500000, 8158.000000, 8192.000000, 8177.000000
