1985, 206721264.000000, 1420.750000, 8165.000000, 8180.000000, 8171.000000
1986, 206721424.000000, 1825.250000, 8166.000000, 8176.000000, 8166.000000
1987, 206721584.000000, 2291.750000, 8161.000000, 8180.000000, 8165.000000
1988, 206721744.000000, 2716.250000, 8165.000000, 8183.000000, 8174.000000
1989, 206721904.000000, 3017.750000, 8164.000000, 8180.000000, 8169.000000
1990, 206722064.000000, 3182.250000, 8163.000000, 8176.000000, 8166.000000
1991, 206722224.000000, 3223.750000, 8161.000000, 8177.000000, 8164.000000
1992, 206722384.000000, 3175.500000, 8153.000000, 8184.000000, 8167.000000
1993, 206722544.000000, 3078.750000, 8195.000000, 8178.000000, 8177.000000
1994, 206722704.000000, 2959.000000, 8162.000000, 8186.000000, 8173.000000
1995, 206722864.000000, 2824.750000, 8181.000000, 8185.000000, 8179.000000
1996, 206723024.000000, 2689.500000, 8169.000000, 8186.000000, 8178.000000
1997, 206723184.000000, 2577.750000, 8187.000000, 8183.000000, 8175.000000
1998, 206723344.000000, 2500.500000, 8179.000000, 8181.000000, 8176.000000
1999, 206723504.000000, 2457.250000, 8173.000000, 8178.000000, 8171.000000
2000, 206723664.000000, 2433.500000, 8161.000000, 8180.000000, 8167.000000
2001, 206723824.000000, 2417.000000, 8203.000000, 8199.000000, 8201.000000
2002, 206723984.000000, 2387.500000, 8305.000000, 7969.000000, 8039.000000
2003, 206724144.000000, 2338.500000, 8079.000000, 7927.000000, 7867.000000
2004, 206724304.000000, 2260.000000, 8146.000000, 8190.000000, 8169.000000
2005, 206724464.000000, 2160.750000, 8168.000000, 8231.000000, 8226.000000
2006, 206724624.000000, 2047.000000, 8172.000000, 8238.000000, 8234.000000
2007, 206724784.000000, 1925.250000, 8196.000000, 8243.000000, 8249.000000
2008, 206724944.000000, 1805.500000, 8199.000000, 8247.000000, 8253.000000
2009, 206725104.000000, 1694.750000, 8202.000000, 8246.000000, 8252.000000
2010, 206725264.000000, 1597.250000, 8220.000000, 8244.000000, 8256.000000
2011, 206725424.000000, 1516.500000, 8213.000000, 8255.000000, 8268.000000
2012, 206725584.000000, 1449.000000, 8233.000000, 8261.000000, 8281.000000
2013, 206725744.000000, 1393.250000, 8249.000000, 8272.000000, 8297.000000
2014, 206725904.000000, 1345.750000, 8259.000000, 8262.000000, 8292.000000
2015, 206726064.000000, 1307.500000, 8265.000000, 8240.000000, 8272.000000
2016, 206726224.000000, 1271.500000, 8237.000000, 8229.000000, 8250.000000
2017, 206726384.000000, 1238.250000, 8199.000000, 8213.000000, 8221.000000
2018, 206726544.000000, 1208.000000, 8179.000000, 8201.000000, 8196.000000
2019, 206726704.000000, 1179.750000, 8152.000000, 8191.000000, 8174.000000
2020, 206726864.000000, 1152.750000, 8153.000000, 8185.000000, 8168.000000
2021, 206727024.000000, 1129.250000, 8166.000000, 8182.000000, 8168.000000
2022, 206727184.000000, 1107.750000, 8163.000000, 8190.000000, 8178.000000
2023, 206727344.000000, 1084.500000, 8160.000000, 8199.000000, 8185.000000
2024, 206727504.000000, 1060.250000, 8150.000000, 8196.000000, 8179.000000
2025, 206727664.000000, 1030.250000, 8171.000000, 8190.000000, 8179.000000
2026, 206727824.000000, 998.750000, 8162.000000, 8189.000000, 8178.000000
2027, 206727984.000000, 1004.250000, 8177.000000, 8188.000000, 8175.000000
2028, 206728144.000000, 1135.250000, 8170.000000, 8190.000000, 8179.000000
2029, 206728304.000000, 1461.000000, 8160.000000, 8184.000000, 8168.000000
2030, 206728464.000000, 1930.250000, 8172.000000, 8177.000000, 8163.000000
2031, 206728624.000000, 2434.250000, 8168.000000, 8180.000000, 8165.000000
2032, 206728784.000000, 2857.250000, 8164.000000, 8182.000000, 8169.000000
2033, 206728944.000000, 3143.250000, 8171.000000, 8185.000000, 8172.000000
2034, 206729104.000000, 3290.000000, 8158.000000, 8185.000000, 8168.000000
2035, 206729264.000000, 3327.250000, 8159.000000, 8179.000000, 8166.000000
2036, 206729424.000000, 3292.500000, 8170.000000, 8178.000000, 8163.000000
2037, 206729584.000000, 3215.750000, 8171.000000, 8185.000000, 8174.000000
2038, 206729744.000000, 3120.750000, 8161.000000, 8199.000000, 8186.000000
2039, 206729904.000000, 3014.750000, 8187.000000, 8192.000000, 8184.000000
2040, 206730064.000000, 2902.500000, 8190.000000, 8176.000000, 8168.000000
2041, 206730224.000000, 2795.750000, 8159.000000, 8185.000000, 8168.000000
2042, 206730384.000000, 2715.750000, 8165.000000, 8182.000000, 8169.000000
2043, 206730544.000000, 2664.250000, 8183.000000, 8182.000000, 8175.000000
2044, 206730704.000000, 2630.500000, 8192.000000, 8181.000000, 8170.000000
2045, 206730864.000000, 2601.500000, 8279.000000, 8084.000000, 8143.000000
2046, 206731024.000000, 2562.250000, 8169.000000, 7836.000000, 7804.000000
2047, 206731184.000000, 2506.250000, 8160.000000, 8157.000000, 8129.000000
2048, 206731344.000000, 2425.750000, 8173.000000, 8240.000000, 8237.000000
2049, 206731504.000000, 2324.000000, 8190.000000, 8241.000000, 8241.000000
2050, 206731664.000000, 2207.750000, 8199.000000, 8241.000000, 8243.000000
2051, 206731824.000000, 2085.250000, 8188.000000, 8249.000000, 8249.000000
2052, 206731984.000000, 1966.500000, 8220.000000, 8250.000000, 8258.000000
2053, 206732144.000000, 1854.750000, 8208.000000, 8254.000000, 8262.000000
2054, 206732304.000000, 1754.250000, 8221.000000, 8259.000000, 8271.000000
2055, 206732464.000000, 1670.750000, 8236.000000, 8260.000000, 8276.000000
2056, 206732624.000000, 1605.500000, 8241.000000, 8269.000000, 8289.000000
2057, 206732784.000000, 1555.500000, 8259.000000, 8271.000000, 8299.000000
2058, 206732944.000000, 1510.750000, 8257.000000, 8263.000000, 8295.000000
2059, 206733104.000000, 1469.000000, 8251.000000, 8240.000000, 8268.000000
2060, 206733264.000000, 1429.250000, 8232.000000, 8207.000000, 8225.000000
2061, 206733424.000000, 1391.750000, 8182.000000, 8202.000000, 8195.000000
2062, 206733584.000000, 1355.500000, 8161.000000, 8200.000000, 8185.000000
2063, 206733744.000000, 1322.250000, 8169.000000, 8193.000000, 8181.000000
2064, 206733904.000000, 1291.750000, 8156.000000, 8193.000000, 8174.000000
2065, 206734064.000000, 1260.000000, 8166.000000, 8191.000000, 8175.000000
2066, 206734224.000000, 1231.000000, 8170.000000, 8189.000000, 8178.000000
2067, 206734384.000000, 1201.000000, 8157.000000, 8200.000000, 8182.000000
2068, 206734544.000000, 1168.000000, 8168.000000, 8196.000000, 8185.000000
2069, 206734704.000000, 1127.000000, 8186.000000, 8184.000000, 8177.000000
2070, 206734864.000000, 1110.750000, 8173.000000, 8180.000000, 8169.000000
2071, 206735024.000000, 1198.750000, 8175.000000, 8182.000000, 8168.000000
2072, 206735184.000000, 1467.000000, 8163.000000, 8187.000000, 8173.000000
2073, 206735344.000000, 1892.250000, 8160.000000, 8189.000000, 8173.000000
2074, 206735504.000000, 2376.500000, 8173.000000, 8180.000000, 8167.000000
2075, 206735664.000000, 2811.250000, 8171.000000, 8177.000000, 8162.000000
2076, 206735824.000000, 3125.500000, 8168.000000, 8180.000000, 8167.000000
2077, 206735984.000000, 3301.750000, 8180.000000, 8182.000000, 8173.000000
2078, 206736144.000000, 3361.250000, 8180.000000, 8183.000000, 8174.000000
2079, 206736304.000000, 3339.250000, 8173.000000, 8181.000000, 8168.000000
2080, 206736464.000000, 3280.000000, 8182.000000, 8178.000000, 8165.000000
2081, 206736624.000000, 3206.750000, 8180.000000, 8180.000000, 8169.000000
2082, 206736784.000000, 3119.500000, 8173.000000, 8190.000000, 8177.000000
2083, 206736944.000000, 3019.500000, 8177.000000, 8193.000000, 8182.000000
2084, 206737104.000000, 2911.500000, 8210.000000, 8185.000000, 8182.000000
2085, 206737264.000000, 2816.500000, 8205.000000, 8169.000000, 8165.000000
2086, 206737424.000000, 2746.250000, 8167.000000, 8181.000000, 8166.000000
2087, 206737584.000000, 2697.250000, 8190.000000, 8181.000000, 8177.000000
2088, 206737744.000000, 2659.250000, 8185.000000, 8184.000000, 8179.000000
2089, 206737904.000000, 2617.500000, 8253.000000, 8208.000000, 8242.000000
2090, 206738064.000000, 2559.250000, 8341.000000, 7813.000000, 7869.000000
2091, 206738224.000000, 2481.000000, 8124.000000, 8068.000000, 8008.000000
2092, 206738384.000000, 2381.000000, 8227.000000, 8209.000000, 8225.000000
2093, 206738544.000000, 2266.750000, 8212.000000, 8237.000000, 8247.000000
2094, 206738704.000000, 2146.750000, 8206.000000, 8238.000000, 8242.000000
2095, 206738864.000000, 2025.000000, 8226.000000, 8231.000000, 8243.000000
2096, 206739024.000000, 1909.000000, 8244.000000, 8230.000000, 8244.000000
2097, 206739184.000000, 1806.500000, 8221.000000, 8247.000000, 8265.000000
2098, 206739344.000000, 1717.250000, 8247.000000, 8248.000000, 8272.000000
2099, 206739504.000000, 1643.000000, 8250.000000, 8245.000000, 8265.000000
2100, 206739664.000000, 1579.250000, 8267.000000, 8250.000000, 8277.000000
2101, 206739824.000000, 1523.250000, 8297.000000, 8252.000000, 8295.000000
2102, 206739984.000000, 1474.750000, 8287.000000, 8250.000000, 8288.000000
2103, 206740144.000000, 1433.750000, 8290.000000, 8243.000000, 8289.000000
2104, 206740304.000000, 1402.000000, 8266.000000, 8213.000000, 8247.000000
2105, 206740464.000000, 1372.250000, 8218.000000, 8191.000000, 8201.000000
2106, 206740624.000000, 1335.750000, 8208.000000, 8181.000000, 8195.000000
2107, 206740784.000000, 1290.000000, 8198.000000, 8186.000000, 8191.000000
2108, 206740944.000000, 1238.000000, 8193.000000, 8178.000000, 8172.000000
2109, 206741104.000000, 1188.750000, 8196.000000, 8172.000000, 8174.000000
2110, 206741264.000000, 1141.000000, 8205.000000, 8181.000000, 8191.000000
2111, 206741424.000000, 1091.000000, 8219.000000, 8177.000000, 8194.000000
2112, 206741584.000000, 1044.500000, 8215.000000, 8174.000000, 8182.000000
2113, 206741744.000000, 999.500000, 8216.000000, 8184.000000, 8195.000000
2114, 206741904.000000, 968.250000, 8238.000000, 8172.000000, 8190.000000
2115, 206742064.000000, 1001.500000, 8203.000000, 8173.000000, 8177.000000
2116, 206742224.000000, 1177.750000, 8208.000000, 8176.000000, 8182.000000
2117, 206742384.000000, 1539.250000, 8221.000000, 8178.000000, 8192.000000
2118, 206742544.000000, 2017.500000, 8216.000000, 8174.000000, 8185.000000
2119, 206742704.000000, 2509.500000, 8206.000000, 8166.000000, 8174.000000
2120, 206742864.000000, 2923.250000, 8183.000000, 8177.000000, 8176.000000
2121, 206743024.000000, 3216.000000, 8198.000000, 8182.000000, 8181.000000
2122, 206743184.000000, 3372.750000, 8201.000000, 8170.000000, 8173.000000
2123, 206743344.000000, 3421.000000, 8188.000000, 8181.000000, 8181.000000
2124, 206743504.000000, 3397.000000, 8181.000000, 8182.000000, 8182.000000
2125, 206743664.000000, 3336.750000, 8188.000000, 8179.000000, 8168.000000
2126, 206743824.000000, 3254.000000, 8200.000000, 8180.000000, 8180.000000
2127, 206743984.000000, 3144.750000, 8200.000000, 8190.000000, 8190.000000
2128, 206744144.000000, 3023.750000, 8203.000000, 8191.000000, 8195.000000
2129, 206744304.000000, 2909.500000, 8192.000000, 8174.000000, 8173.000000
2130, 206744464.000000, 2820.500000, 8182.000000, 8180.000000, 8171.000000
2131, 206744624.000000, 2755.500000, 8193.000000, 8179.000000, 8177.000000
2132, 206744784.000000, 2711.500000, 8168.000000, 8186.000000, 8181.000000
2133, 206744944.000000, 2675.750000, 8238.000000, 8237.000000, 8263.000000
2134, 206745104.000000, 2639.000000, 8346.000000, 7983.000000, 8065.000000
2135, 206745264.000000, 2594.750000, 8106.000000, 8000.000000, 7948.000000
2136, 206745424.000000, 2533.250000, 8188.000000, 8192.000000, 8185.000000
2137, 206745584.000000, 2442.250000, 8206.000000, 8223.000000, 8233.000000
2138, 206745744.000000, 2323.000000, 8199.000000, 8231.000000, 8235.000000
2139, 206745904.000000, 2161.500000, 8218.000000, 8225.000000, 8233.000000
2140, 206746064.000000, 2001.000000, 8226.000000, 8229.000000, 8243.000000
2141, 206746224.000000, 1874.250000, 8239.000000, 8227.000000, 8249.000000
2142, 206746384.000000, 1755.750000, 8219.000000, 8242.000000, 8253.000000
2143, 206746544.000000, 1649.000000, 8245.000000, 8250.000000, 8268.000000
2144, 206746704.000000, 1563.500000, 8253.000000, 8245.000000, 8267.000000
2145, 206746864.000000, 1495.250000, 8256.000000, 8252.000000, 8278.000000
2146, 206747024.000000, 1437.500000, 8270.000000, 8249.000000, 8278.000000
2147, 206747184.000000, 1384.250000, 8273.000000, 8237.000000, 8274.000000
2148, 206747344.000000, 1339.250000, 8250.000000, 8229.000000, 8251.000000
2149, 206747504.000000, 1303.250000, 8214.000000, 8212.000000, 8228.000000
2150, 206747664.000000, 1273.750000, 8178.000000, 8206.000000, 8204.000000
2151, 206747824.000000, 1258.000000, 8154.000000, 8214.000000, 8204.000000
2152, 206747984.000000, 1254.000000, 8164.000000, 8215.000000, 8198.000000
2153, 206748144.000000, 1255.750000, 8149.000000, 8218.000000, 8205.000000
2154, 206748304.000000, 1254.750000, 8139.000000, 8222.000000, 8204.000000
2155, 206748464.000000, 1249.750000, 8157.000000, 8211.000000, 8193.000000
2156, 206748624.000000, 1236.250000, 8155.000000, 8221.000000, 8210.000000
2157, 206748784.000000, 1210.250000, 8162.000000, 8228.000000, 8219.000000
2158, 206748944.000000, 1219.750000, 8177.000000, 8224.000000, 8217.000000
2159, 206749104.000000, 1394.500000, 8160.000000, 8226.000000, 8208.000000
2160, 206749264.000000, 1803.000000, 8152.000000, 8219.000000, 8202.000000
2161, 206749424.000000, 2260.000000, 8161.000000, 8226.000000, 8209.000000
2162, 206749584.000000, 2702.250000, 8142.000000, 8231.000000, 8209.000000
2163, 206749744.000000, 3058.500000, 8157.000000, 8221.000000, 8203.000000
2164, 206749904.000000, 3290.750000, 8152.000000, 8217.000000, 8194.000000
2165, 206750064.000000, 3397.750000, 8138.000000, 8222.000000, 8201.000000
2166, 206750224.000000, 3408.250000, 8140.000000, 8224.000000, 8195.000000
2167, 206750384.000000, 3354.000000, 8156.000000, 8221.000000, 8200.000000
2168, 206750544.000000, 3263.000000, 8132.000000, 8225.000000, 8196.000000
2169, 206750704.000000, 3145.500000, 8145.000000, 8212.000000, 8188.000000
2170, 206750864.000000, 3017.500000, 8145.000000, 8218.000000, 8184.000000
2171, 206751024.000000, 2903.250000, 8121.000000, 8223.000000, 8185.000000
2172, 206751184.000000, 2825.500000, 8133.000000, 8220.000000, 8188.000000
2173, 206751344.000000, 2787.250000, 8145.000000, 8212.000000, 8186.000000
2174, 206751504.000000, 2787.500000, 8167.000000, 8208.000000, 8179.000000
2175, 206751664.000000, 2810.250000, 8157.000000, 8199.000000, 8171.000000
2176, 206751824.000000, 2825.750000, 8147.000000, 8199.000000, 8170.000000
2177, 206751984.000000, 2812.500000, 8146.000000, 8194.000000, 8163.000000
2178, 206752144.000000, 2768.500000, 8144.000000, 8192.000000, 8165.000000
2179, 206752304.000000, 2701.000000, 8163.000000, 8180.000000, 8156.000000
2180, 206752464.000000, 2611.250000, 8261.000000, 8226.000000, 8259.000000
2181, 206752624.000000, 2508.500000, 8321.000000, 7924.000000, 7969.000000
2182, 206752784.000000, 2403.500000, 8089.000000, 8102.000000, 8029.000000
2183, 206752944.000000, 2296.750000, 8166.000000, 8210.000000, 8198.000000
2184, 206753104.000000, 2185.250000, 8171.000000, 8219.000000, 8206.000000
2185, 206753264.000000, 2064.250000, 8174.000000, 8229.000000, 8216.000000
2186, 206753424.000000, 1937.000000, 8168.000000, 8229.000000, 8216.000000
2187, 206753584.000000, 1813.500000, 8185.000000, 8231.000000, 8226.000000
2188, 206753744.000000, 1711.750000, 8193.000000, 8224.000000, 8222.000000
2189, 206753904.000000, 1651.250000, 8202.000000, 8230.000000, 8228.000000
2190, 206754064.000000, 1636.000000, 8211.000000, 8231.000000, 8233.000000
2191, 206754224.000000, 1656.250000, 8230.000000, 8235.000000, 8247.000000
2192, 206754384.000000, 1685.750000, 8256.000000, 8236.000000, 8258.000000
2193, 206754544.000000, 1708.250000, 8259.000000, 8230.000000, 8250.000000
2194, 206754704.000000, 1710.000000, 8264.000000, 8211.000000, 8236.000000
2195, 206754864.000000, 1687.500000, 8237.000000, 8196.000000, 8211.000000
2196, 206755024.000000, 1646.500000, 8197.000000, 8193.000000, 8195.000000
2197, 206755184.000000, 1602.250000, 8137.000000, 8201.000000, 8180.000000
2198, 206755344.000000, 1564.750000, 8146.000000, 8185.000000, 8166.000000
2199, 206755504.000000, 1534.000000, 8153.000000, 8182.000000, 8163.000000
2200, 206755664.000000, 1500.500000, 8145.000000, 8186.000000, 8164.000000
2201, 206755824.000000, 1464.750000, 8154.000000, 8194.000000, 8176.000000
2202, 206755984.000000, 1420.000000, 8156.000000, 8194.000000, 8179.000000
2203, 206756144.000000, 1369.000000, 8164.000000, 8191.000000, 8178.000000
2204, 206756304.000000, 1336.250000, 8165.000000, 8185.000000, 8174.000000
2205, 206756464.000000, 1414.500000, 8152.000000, 8189.000000, 8172.000000
2206, 206756624.000000, 1662.000000, 8164.000000, 8188.000000, 8177.000000
2207, 206756784.000000, 2067.000000, 8170.000000, 8186.000000, 8175.000000
2208, 206756944.000000, 2508.500000, 8170.000000, 8186.000000, 8171.000000
2209, 206757104.000000, 2884.250000, 8162.000000, 8179.000000, 8166.000000
2210, 206757264.000000, 3124.500000, 8172.000000, 8178.000000, 8166.000000
2211, 206757424.000000, 3235.250000, 8177.000000, 8177.000000, 8170.000000
2212, 206757584.000000, 3241.500000, 8184.000000, 8178.000000, 8172.000000
2213, 206757744.000000, 3171.250000, 8198.000000, 8174.000000, 8175.000000
2214, 206757904.000000, 3052.000000, 8187.000000, 8171.000000, 8167.000000
2215, 206758064.000000, 2907.000000, 8213.000000, 8165.000000, 8170.000000
2216, 206758224.000000, 2745.750000, 8190.000000, 8171.000000, 8167.000000
2217, 206758384.000000, 2566.500000, 8184.000000, 8176.000000, 8174.000000
2218, 206758544.000000, 2385.000000, 8200.000000, 8168.000000, 8170.000000
2219, 206758704.000000, 2230.750000, 8216.000000, 8160.000000, 8163.000000
2220, 206758864.000000, 2119.500000, 8190.000000, 8172.000000, 8170.000000
2221, 206759024.000000, 2051.250000, 8212.000000, 8166.000000, 8170.000000
2222, 206759184.000000, 2007.750000, 8213.000000, 8174.000000, 8181.000000
2223, 206759344.000000, 1967.000000, 8218.000000, 8160.000000, 8166.000000
2224, 206759504.000000, 1920.250000, 8213.000000, 8155.000000, 8162.000000
2225, 206759664.000000, 1856.250000, 8210.000000, 8158.000000, 8169.000000
2226, 206759824.000000, 1771.250000, 8207.000000, 8167.000000, 8176.000000
2227, 206759984.000000, 1663.750000, 8306.000000, 8221.000000, 8278.000000
2228, 206760144.000000, 1535.250000, 8395.000000, 7891.000000, 7979.000000
2229, 206760304.000000, 1392.500000, 8149.000000, 8046.000000, 8011.000000
2230, 206760464.000000, 1251.000000, 8217.000000, 8181.000000, 8197.000000
2231, 206760624.000000, 1129.250000, 8222.000000, 8205.000000, 8222.000000
2232, 206760784.000000, 1029.250000, 8243.000000, 8207.000000, 8232.000000
2233, 206760944.000000, 948.500000, 8248.000000, 8202.000000, 8228.000000
2234, 206761104.000000, 881.250000, 8243.000000, 8206.000000, 8225.000000
2235, 206761264.000000, 831.250000, 8255.000000, 8206.000000, 8235.000000
2236, 206761424.000000, 796.500000, 8271.000000, 8214.000000, 8246.000000
2237, 206761584.000000, 762.250000, 8270.000000, 8224.000000, 8255.000000
2238, 206761744.000000, 732.250000, 8299.000000, 8221.000000, 8263.000000
2239, 206761904.000000, 708.000000, 8306.000000, 8219.000000, 8266.000000
2240, 206762064.000000, 690.000000, 8319.000000, 8220.000000, 8264.000000
2241, 206762224.000000, 671.500000, 8306.000000, 8214.000000, 8257.000000
2242, 206762384.000000, 665.000000, 8285.000000, 8199.000000, 8238.000000
2243, 206762544.000000, 669.250000, 8232.000000, 8186.000000, 8204.000000
2244, 206762704.000000, 679.250000, 8205.000000, 8168.000000, 8178.000000
2245, 206762864.000000, 692.750000, 8195.000000, 8166.000000, 8169.000000
2246, 206763024.000000, 702.750000, 8192.000000, 8168.000000, 8169.000000
2247, 206763184.000000, 709.500000, 8190.000000, 8176.000000, 8178.000000
2248, 206763344.000000, 707.250000, 8204.000000, 8171.000000, 8178.000000
2249, 206763504.000000, 697.250000, 8206.000000, 8164.000000, 8172.000000
2250, 206763664.000000, 681.500000, 8188.000000, 8178.000000, 8180.000000
2251, 206763824.000000, 677.750000, 8205.000000, 8181.000000, 8191.000000
2252, 206763984.000000, 739.500000, 8202.000000, 8179.000000, 8185.000000
2253, 206764144.000000, 954.750000, 8195.000000, 8176.000000, 8177.000000
2254, 206764304.000000, 1338.000000, 8193.000000, 8173.000000, 8175.000000
2255, 206764464.000000, 1828.000000, 8205.000000, 8165.000000, 8173.000000
2256, 206764624.000000, 2299.000000, 8192.000000, 8174.000000, 8175.000000
2257, 206764784.000000, 2672.000000, 8191.000000, 8176.000000, 8178.000000
2258, 206764944.000000, 2903.250000, 8196.000000, 8168.000000, 8172.000000
2259, 206765104.000000, 3001.750000, 8192.000000, 8169.000000, 8168.000000
2260, 206765264.000000, 2985.500000, 8206.000000, 8168.000000, 8172.000000
2261, 206765424.000000, 2897.750000, 8182.000000, 8176.000000, 8176.000000
2262, 206765584.000000, 2778.250000, 8190.000000, 8176.000000, 8176.000000
2263, 206765744.000000, 2655.750000, 8180.000000, 8173.000000, 8166.000000
2264, 206765904.000000, 2539.500000, 8183.000000, 8166.000000, 8161.000000
2265, 206766064.000000, 2422.000000, 8203.000000, 8172.000000, 8172.000000
2266, 206766224.000000, 2311.500000, 8196.000000, 8180.000000, 8182.000000
2267, 206766384.000000, 2230.500000, 8200.000000, 8169.000000, 8169.000000
2268, 206766544.000000, 2192.000000, 8172.000000, 8172.000000, 8164.000000
2269, 206766704.000000, 2199.000000, 8173.000000, 8161.000000, 8154.000000
2270, 206766864.000000, 2231.250000, 8171.000000, 8174.000000, 8165.000000
2271, 206767024.000000, 2273.000000, 8207.000000, 8216.000000, 8223.000000
2272, 206767184.000000, 2299.500000, 8335.000000, 7987.000000, 8065.000000
2273, 206767344.000000, 2303.750000, 8071.000000, 7971.000000, 7912.000000
2274, 206767504.000000, 2280.250000, 8162.000000, 8172.000000, 8151.000000
2275, 206767664.000000, 2234.500000, 8157.000000, 8222.000000, 8212.000000
2276, 206767824.000000, 2170.000000, 8177.000000, 8230.000000, 8225.000000
2277, 206767984.000000, 2100.750000, 8169.000000, 8239.000000, 8229.000000
2278, 206768144.000000, 2037.750000, 8181.000000, 8235.000000, 8233.000000
2279, 206768304.000000, 1988.500000, 8169.000000, 8235.000000, 8233.000000
2280, 206768464.000000, 1948.750000, 8190.000000, 8245.000000, 8243.000000
2281, 206768624.000000, 1918.000000, 8195.000000, 8250.000000, 8251.000000
2282, 206768784.000000, 1891.750000, 8220.000000, 8257.000000, 8265.000000
2283, 206768944.000000, 1867.750000, 8217.000000, 8259.000000, 8273.000000
2284, 206769104.000000, 1835.750000, 8231.000000, 8259.000000, 8274.000000
2285, 206769264.000000, 1790.750000, 8256.000000, 8243.000000, 8267.000000
2286, 206769424.000000, 1739.500000, 8228.000000, 8235.000000, 8248.000000
2287, 206769584.000000, 1684.500000, 8180.000000, 8219.000000, 8216.000000
2288, 206769744.000000, 1627.750000, 8148.000000, 8201.000000, 8185.000000
2289, 206769904.000000, 1576.750000, 8106.000000, 8197.000000, 8167.000000
2290, 206770064.000000, 1534.750000, 8114.000000, 8195.000000, 8164.000000
2291, 206770224.000000, 1505.750000, 8126.000000, 8197.000000, 8170.000000
2292, 206770384.000000, 1480.500000, 8130.000000, 8199.000000, 8173.000000
2293, 206770544.000000, 1453.000000, 8137.000000, 8196.000000, 8171.000000
2294, 206770704.000000, 1414.000000, 8162.000000, 8194.000000, 8177.000000
2295, 206770864.000000, 1362.000000, 8145.000000, 8197.000000, 8177.000000
2296, 206771024.000000, 1349.750000, 8157.000000, 8197.000000, 8181.000000
2297, 206771184.000000, 1455.500000, 8170.000000, 8194.000000, 8179.000000
2298, 206771344.000000, 1744.250000, 8151.000000, 8191.000000, 8171.000000
2299, 206771504.000000, 2152.500000, 8173.000000, 8179.000000, 8166.000000
2300, 206771664.000000, 2582.750000, 8164.000000, 8184.000000, 8165.000000
2301, 206771824.000000, 2932.500000, 8163.000000, 8189.000000, 8177.000000
2302, 206771984.000000, 3162.250000, 8178.000000, 8185.000000, 8173.000000
2303, 206772144.000000, 3264.500000, 8162.000000, 8187.000000, 8172.000000
2304, 206772304.000000, 3273.250000, 8168.000000, 8182.000000, 8167.000000
2305, 206772464.000000, 3213.250000, 8181.000000, 8181.000000, 8177.000000
2306, 206772624.000000, 3093.000000, 8178.000000, 8189.000000, 8181.000000
2307, 206772784.000000, 2926.250000, 8173.000000, 8186.000000, 8181.000000
2308, 206772944.000000, 2727.000000, 8179.000000, 8183.000000, 8174.000000
2309, 206773104.000000, 2514.250000, 8175.000000, 8187.000000, 8179.000000
2310, 206773264.000000, 2313.250000, 8189.000000, 8188.000000, 8181.000000
2311, 206773424.000000, 2140.750000, 8184.000000, 8194.000000, 8188.000000
2312, 206773584.000000, 2007.750000, 8207.000000, 8182.000000, 8185.000000
2313, 206773744.000000, 1906.750000, 8185.000000, 8177.000000, 8172.000000
2314, 206773904.000000, 1835.000000, 8186.000000, 8180.000000, 8177.000000
2315, 206774064.000000, 1776.000000, 8183.000000, 8185.000000, 8178.000000
2316, 206774224.000000, 1713.250000, 8227.000000, 8244.000000, 8268.000000
2317, 206774384.000000, 1643.250000, 8354.000000, 7904.000000, 7985.000000
2318, 206774544.000000, 1570.250000, 8098.000000, 8025.000000, 7968.000000
2319, 206774704.000000, 1492.000000, 8190.000000, 8202.000000, 8202.000000
2320, 206774864.000000, 1408.250000, 8210.000000, 8230.000000, 8241.000000
2321, 206775024.000000, 1322.250000, 8204.000000, 8245.000000, 8254.000000
2322, 206775184.000000, 1241.000000, 8216.000000, 8239.000000, 8256.000000
2323, 206775344.000000, 1163.500000, 8201.000000, 8245.000000, 8256.000000
2324, 206775504.000000, 1094.500000, 8231.000000, 8243.000000, 8262.000000
2325, 206775664.000000, 1031.250000, 8238.000000, 8245.000000, 8269.000000
2326, 206775824.000000, 976.500000, 8240.000000, 8256.000000, 8281.000000
2327, 206775984.000000, 934.000000, 8251.000000, 8261.000000, 8289.000000
2328, 206776144.000000, 897.750000, 8280.000000, 8256.000000, 8292.000000
2329, 206776304.000000, 866.750000, 8279.000000, 8252.000000, 8291.000000
2330, 206776464.000000, 840.750000, 8286.000000, 8247.000000, 8289.000000
2331, 206776624.000000, 819.000000, 8259.000000, 8226.000000, 8260.000000
2332, 206776784.000000, 798.750000, 8227.000000, 8208.000000, 8228.000000
2333, 206776944.000000, 776.000000, 8180.000000, 8200.000000, 8199.000000
2334, 206777104.000000, 755.000000, 8168.000000, 8188.000000, 8181.000000
2335, 206777264.000000, 735.000000, 8163.000000, 8188.000000, 8174.000000
2336, 206777424.000000, 711.750000, 8160.000000, 8192.000000, 8178.000000
2337, 206777584.000000, 690.250000, 8162.000000, 8199.000000, 8184.000000
2338, 206777744.000000, 664.000000, 8163.000000, 8191.000000, 8179.000000
2339, 206777904.000000, 630.750000, 8155.000000, 8194.000000, 8175.000000
2340, 206778064.000000, 595.250000, 8156.000000, 8200.000000, 8181.000000
2341, 206778224.000000, 618.250000, 8137.000000, 8203.000000, 8178.000000
2342, 206778384.000000, 782.000000, 8136.000000, 8204.000000, 8176.000000
2343, 206778544.000000, 1138.500000, 8149.000000, 8193.000000, 8170.000000
2344, 206778704.000000, 1618.250000, 8134.000000, 8195.000000, 8166.000000
2345, 206778864.000000, 2117.000000, 8133.000000, 8196.000000, 8170.000000
2346, 206779024.000000, 2536.750000, 8128.000000, 8200.000000, 8171.000000
2347, 206779184.000000, 2836.750000, 8122.000000, 8200.000000, 8169.000000
2348, 206779344.000000, 3016.000000, 8120.000000, 8196.000000, 8167.000000
2349, 206779504.000000, 3098.000000, 8131.000000, 8197.000000, 8164.000000
2350, 206779664.000000, 3122.500000, 8116.000000, 8200.000000, 8165.000000
2351, 206779824.000000, 3118.250000, 8110.000000, 8198.000000, 8161.000000
2352, 206779984.000000, 3102.000000, 8117.000000, 8197.000000, 8160.000000
2353, 206780144.000000, 3083.750000, 8128.000000, 8190.000000, 8155.000000
2354, 206780304.000000, 3061.000000, 8124.000000, 8196.000000, 8158.000000
2355, 206780464.000000, 3022.750000, 8113.000000, 8202.000000, 8163.000000
2356, 206780624.000000, 2959.750000, 8134.000000, 8197.000000, 8170.000000
2357, 206780784.000000, 2882.000000, 8164.000000, 8184.000000, 8161.000000
2358, 206780944.000000, 2805.750000, 8147.000000, 8182.000000, 8159.000000
2359, 206781104.000000, 2734.750000, 8143.000000, 8185.000000, 8162.000000
2360, 206781264.000000, 2669.500000, 8158.000000, 8184.000000, 8163.000000
2361, 206781424.000000, 2598.750000, 8256.000000, 8205.000000, 8241.000000
2362, 206781584.000000, 2509.000000, 8293.000000, 7877.000000, 7909.000000
2363, 206781744.000000, 2404.750000, 8121.000000, 8111.000000, 8051.000000
2364, 206781904.000000, 2304.000000, 8201.000000, 8210.000000, 8209.000000
2365, 206782064.000000, 2224.000000, 8173.000000, 8234.000000, 8229.000000
2366, 206782224.000000, 2162.000000, 8210.000000, 8231.000000, 8238.000000
2367, 206782384.000000, 2103.000000, 8179.000000, 8238.000000, 8233.000000
2368, 206782544.000000, 2024.500000, 8209.000000, 8228.000000, 8234.000000
2369, 206782704.000000, 1924.500000, 8225.000000, 8233.000000, 8246.000000
2370, 206782864.000000, 1816.750000, 8227.000000, 8245.000000, 8259.000000
2371, 206783024.000000, 1716.500000, 8247.000000, 8245.000000, 8271.000000
2372, 206783184.000000, 1628.000000, 8247.000000, 8256.000000, 8278.000000
2373, 206783344.000000, 1559.000000, 8266.000000, 8250.000000, 8278.000000
2374, 206783504.000000, 1507.500000, 8284.000000, 8244.000000, 8284.000000
2375, 206783664.000000, 1467.500000, 8287.000000, 8235.000000, 8277.000000
2376, 206783824.000000, 1439.750000, 8259.000000, 8216.000000, 8250.000000
2377, 206783984.000000, 1420.750000, 8210.000000, 8203.000000, 8220.000000
2378, 206784144.000000, 1405.250000, 8201.000000, 8181.000000, 8188.000000
2379, 206784304.000000, 1383.500000, 8187.000000, 8181.000000, 8181.000000
2380, 206784464.000000, 1353.500000, 8173.000000, 8189.000000, 8186.000000
2381, 206784624.000000, 1315.000000, 8189.000000, 8189.000000, 8190.000000
2382, 206784784.000000, 1276.250000, 8188.000000, 8188.000000, 8194.000000
2383, 206784944.000000, 1242.250000, 8187.000000, 8187.000000, 8187.000000
2384, 206785104.000000, 1212.250000, 8207.000000, 8178.000000, 8189.000000
2385, 206785264.000000, 1192.000000, 8201.000000, 8186.000000, 8189.000000
2386, 206785424.000000, 1228.500000, 8205.000000, 8183.000000, 8191.000000
2387, 206785584.000000, 1370.750000, 8206.000000, 8180.000000, 8188.000000
2388, 206785744.000000, 1635.250000, 8202.000000, 8176.000000, 8180.000000
2389, 206785904.000000, 1960.000000, 8198.000000, 8175.000000, 8182.000000
2390, 206786064.000000, 2264.250000, 8195.000000, 8178.000000, 8183.000000
2391, 206786224.000000, 2495.250000, 8206.000000, 8180.000000, 8190.000000
2392, 206786384.000000, 2632.250000, 8206.000000, 8176.000000, 8184.000000
2393, 206786544.000000, 2686.500000, 8209.000000, 8167.000000, 8179.000000
2394, 206786704.000000, 2674.250000, 8215.000000, 8171.000000, 8177.000000
2395, 206786864.000000, 2625.000000, 8212.000000, 8173.000000, 8183.000000
2396, 206787024.000000, 2554.250000, 8220.000000, 8172.000000, 8184.000000
2397, 206787184.000000, 2471.000000, 8213.000000, 8173.000000, 8176.000000
2398, 206787344.000000, 2370.750000, 8194.000000, 8171.000000, 8173.000000
2399, 206787504.000000, 2253.250000, 8210.000000, 8178.000000, 8183.000000
2400, 206787664.000000, 2136.750000, 8204.000000, 8182.000000, 8185.000000
2401, 206787824.000000, 2029.250000, 8205.000000, 8172.000000, 8174.000000
2402, 206787984.000000, 1936.250000, 8186.000000, 8176.000000, 8171.000000
2403, 206788144.000000, 1850.250000, 8189.000000, 8169.000000, 8166.000000
2404, 206788304.000000, 1768.750000, 8206.000000, 8169.000000, 8171.000000
2405, 206788464.000000, 1682.750000, 8208.000000, 8220.000000, 8234.000000
2406, 206788624.000000, 1589.000000, 8345.000000, 7985.000000, 8068.000000
2407, 206788784.000000, 1486.500000, 8089.000000, 7986.000000, 7931.000000
2408, 206788944.000000, 1381.750000, 8187.000000, 8172.000000, 8162.000000
2409, 206789104.000000, 1282.000000, 8178.000000, 8218.000000, 8216.000000
2410, 206789264.000000, 1188.500000, 8197.000000, 8225.000000, 8229.000000
2411, 206789424.000000, 1105.250000, 8185.000000, 8237.000000, 8234.000000
2412, 206789584.000000, 1026.500000, 8197.000000, 8227.000000, 8235.000000
2413, 206789744.000000, 954.000000, 8192.000000, 8233.000000, 8234.000000
2414, 206789904.000000, 887.750000, 8203.000000, 8229.000000, 8231.000000
2415, 206790064.000000, 829.500000, 8186.000000, 8243.000000, 8240.000000
2416, 206790224.000000, 778.250000, 8227.000000, 8246.000000, 8260.000000
2417, 206790384.000000, 734.000000, 8243.000000, 8247.000000, 8266.000000
2418, 206790544.000000, 701.750000, 8244.000000, 8242.000000, 8258.000000
2419, 206790704.000000, 682.750000, 8264.000000, 8233.000000, 8256.000000
2420, 206790864.000000, 669.750000, 8226.000000, 8221.000000, 8235.000000
2421, 206791024.000000, 656.250000, 8194.000000, 8203.000000, 8205.000000
2422, 206791184.000000, 642.750000, 8161.000000, 8188.000000, 8177.000000
2423, 206791344.000000, 632.000000, 8141.000000, 8178.000000, 8159.000000
2424, 206791504.000000, 624.250000, 8146.000000, 8174.000000, 8153.000000
2425, 206791664.000000, 618.250000, 8145.000000, 8183.000000, 8163.000000
2426, 206791824.000000, 619.500000, 8137.000000, 8185.000000, 8166.000000
2427, 206791984.000000, 625.500000, 8132.000000, 8188.000000, 8167.000000
2428, 206792144.000000, 634.750000, 8151.000000, 8189.000000, 8173.000000
2429, 206792304.000000, 641.500000, 8161.000000, 8179.000000, 8166.000000
2430, 206792464.000000, 663.000000, 8146.000000, 8187.000000, 8170.000000
2431, 206792624.000000, 755.250000, 8168.000000, 8183.000000, 8172.000000
2432, 206792784.000000, 961.000000, 8156.000000, 8177.000000, 8168.000000
2433, 206792944.000000, 1269.500000, 8153.000000, 8178.000000, 8159.000000
2434, 206793104.000000, 1608.500000, 8166.000000, 8172.000000, 8158.000000
2435, 206793264.000000, 1901.250000, 8145.000000, 8183.000000, 8161.000000
2436, 206793424.000000, 2103.250000, 8156.000000, 8179.000000, 8164.000000
2437, 206793584.000000, 2206.750000, 8168.000000, 8172.000000, 8159.000000
2438, 206793744.000000, 2247.250000, 8155.000000, 8173.000000, 8158.000000
2439, 206793904.000000, 2248.000000, 8169.000000, 8176.000000, 8164.000000
2440, 206794064.000000, 2224.500000, 8175.000000, 8176.000000, 8164.000000
2441, 206794224.000000, 2188.750000, 8164.000000, 8185.000000, 8174.000000
2442, 206794384.000000, 2145.250000, 8168.000000, 8185.000000, 8170.000000
2443, 206794544.000000, 2092.750000, 8172.000000, 8179.000000, 8167.000000
2444, 206794704.000000, 2037.500000, 8180.000000, 8173.000000, 8166.000000
2445, 206794864.000000, 1987.500000, 8160.000000, 8181.000000, 8171.000000
2446, 206795024.000000, 1951.250000, 8162.000000, 8182.000000, 8171.000000
2447, 206795184.000000, 1928.000000, 8175.000000, 8179.000000, 8173.000000
2448, 206795344.000000, 1915.250000, 8285.000000, 8175.000000, 8232.000000
2449, 206795504.000000, 1905.250000, 8240.000000, 7872.000000, 7889.000000
2450, 206795664.000000, 1886.750000, 8143.000000, 8114.000000, 8077.000000
2451, 206795824.000000, 1857.500000, 8182.000000, 8225.000000, 8229.000000
2452, 206795984.000000, 1815.250000, 8196.000000, 8225.000000, 8233.000000
2453, 206796144.000000, 1762.750000, 8219.000000, 8228.000000, 8241.000000
2454, 206796304.000000, 1707.500000, 8211.000000, 8229.000000, 8243.000000
2455, 206796464.000000, 1650.000000, 8218.000000, 8240.000000, 8256.000000
2456, 206796624.000000, 1590.000000, 8233.000000, 8242.000000, 8262.000000
2457, 206796784.000000, 1532.500000, 8244.000000, 8235.000000, 8259.000000
2458, 206796944.000000, 1481.000000, 8238.000000, 8249.000000, 8269.000000
2459, 206797104.000000, 1433.500000, 8258.000000, 8251.000000, 8280.000000
2460, 206797264.000000, 1389.750000, 8274.000000, 8252.000000, 8290.000000
2461, 206797424.000000, 1349.000000, 8284.000000, 8254.000000, 8294.000000
2462, 206797584.000000, 1310.000000, 8272.000000, 8230.000000, 8270.000000
2463, 206797744.000000, 1269.000000, 8230.000000, 8205.000000, 8229.000000
2464, 206797904.000000, 1228.750000, 8192.000000, 8198.000000, 8203.000000
2465, 206798064.000000, 1185.250000, 8164.000000, 8192.000000, 8189.000000
2466, 206798224.000000, 1147.500000, 8136.000000, 8197.000000, 8181.000000
2467, 206798384.000000, 1112.500000, 8131.000000, 8188.000000, 8171.000000
2468, 206798544.000000, 1080.000000, 8138.000000, 8189.000000, 8172.000000
2469, 206798704.000000, 1047.500000, 8131.000000, 8197.000000, 8178.000000
2470, 206798864.000000, 1013.250000, 8123.000000, 8208.000000, 8187.000000
2471, 206799024.000000, 975.750000, 8159.000000, 8197.000000, 8188.000000
2472, 206799184.000000, 942.750000, 8125.000000, 8203.000000, 8178.000000
2473, 206799344.000000, 939.750000, 8133.000000, 8193.000000, 8173.000000
2474, 206799504.000000, 1025.750000, 8107.000000, 8201.000000, 8172.000000
2475, 206799664.000000, 1217.500000, 8144.000000, 8194.000000, 8173.000000
2476, 206799824.000000, 1480.000000, 8131.000000, 8196.000000, 8171.000000
2477, 206799984.000000, 1736.000000, 8106.000000, 8195.000000, 8159.000000
2478, 206800144.000000, 1939.500000, 8131.000000, 8184.000000, 8153.000000
2479, 206800304.000000, 2067.750000, 8124.000000, 8185.000000, 8155.000000
2480, 206800464.000000, 2125.500000, 8143.000000, 8181.000000, 8158.000000
2481, 206800624.000000, 2134.750000, 8138.000000, 8192.000000, 8167.000000
2482, 206800784.000000, 2110.750000, 8152.000000, 8184.000000, 8165.000000
2483, 206800944.000000, 2072.500000, 8137.000000, 8185.000000, 8160.000000
2484, 206801104.000000, 2027.250000, 8150.000000, 8191.000000, 8170.000000
2485, 206801264.000000, 1977.250000, 8166.000000, 8193.000000, 8177.000000
2486, 206801424.000000, 1924.750000, 8170.000000, 8183.000000, 8166.000000
2487, 206801584.000000, 1878.250000, 8153.000000, 8183.000000, 8162.000000
2488, 206801744.000000, 1842.750000, 8169.000000, 8174.000000, 8160.000000
2489, 206801904.000000, 1825.250000, 8164.000000, 8182.000000, 8165.000000
2490, 206802064.000000, 1818.000000, 8170.000000, 8186.000000, 8171.000000
2491, 206802224.000000, 1823.000000, 8310.000000, 8068.000000, 8138.000000
2492, 206802384.000000, 1839.000000, 8152.000000, 7884.000000, 7849.000000
2493, 206802544.000000, 1855.750000, 8132.000000, 8161.000000, 8124.000000
2494, 206802704.000000, 1861.250000, 8167.000000, 8228.000000, 8221.000000
2495, 206802864.000000, 1851.250000, 8156.000000, 8246.000000, 8237.000000
2496, 206803024.000000, 1832.500000, 8188.000000, 8238.000000, 8240.000000
2497, 206803184.000000, 1804.250000, 8191.000000, 8239.000000, 8239.000000
2498, 206803344.000000, 1772.000000, 8197.000000, 8241.000000, 8243.000000
2499, 206803504.000000, 1739.500000, 8204.000000, 8247.000000, 8252.000000
2500, 206803664.000000, 1705.000000, 8210.000000, 8256.000000, 8263.000000
2501, 206803824.000000, 1662.500000, 8245.000000, 8255.000000, 8277.000000
2502, 206803984.000000, 1616.250000, 8236.000000, 8264.000000, 8284.000000
2503, 206804144.000000, 1567.000000, 8249.000000, 8258.000000, 8283.000000
2504, 206804304.000000, 1520.500000, 8239.000000, 8253.000000, 8279.000000
2505, 206804464.000000, 1478.000000, 8253.000000, 8241.000000, 8269.000000
2506, 206804624.000000, 1444.000000, 8212.000000, 8219.000000, 8233.000000
2507, 206804784.000000, 1414.750000, 8172.000000, 8204.000000, 8198.000000
2508, 206804944.000000, 1389.500000, 8163.000000, 8189.000000, 8179.000000
2509, 206805104.000000, 1364.500000, 8159.000000, 8195.000000, 8178.000000
2510, 206805264.000000, 1342.750000, 8145.000000, 8197.000000, 8181.000000
2511, 206805424.000000, 1319.250000, 8162.000000, 8195.000000, 8184.000000
2512, 206805584.000000, 1300.250000, 8154.000000, 8193.000000, 8179.000000
2513, 206805744.000000, 1282.750000, 8178.000000, 8189.000000, 8181.000000
2514, 206805904.000000, 1267.500000, 8168.000000, 8192.000000, 8185.000000
2515, 206806064.000000, 1258.000000, 8170.000000, 8192.000000, 8183.000000
2516, 206806224.000000, 1282.500000, 8180.000000, 8184.000000, 8181.000000
2517, 206806384.000000, 1391.000000, 8180.000000, 8180.000000, 8173.000000
2518, 206806544.000000, 1592.500000, 8203.000000, 8168.000000, 8168.000000
2519, 206806704.000000, 1851.250000, 8178.000000, 8178.000000, 8168.000000
2520, 206806864.000000, 2102.750000, 8195.000000, 8179.000000, 8178.000000
2521, 206807024.000000, 2309.000000, 8189.000000, 8180.000000, 8177.000000
2522, 206807184.000000, 2439.750000, 8167.000000, 8182.000000, 8171.000000
2523, 206807344.000000, 2498.000000, 8182.000000, 8178.000000, 8171.000000
2524, 206807504.000000, 2497.500000, 8180.000000, 8185.000000, 8180.000000
2525, 206807664.000000, 2462.500000, 8163.000000, 8195.000000, 8185.000000
2526, 206807824.000000, 2412.500000, 8163.000000, 8193.000000, 8181.000000
2527, 206807984.000000, 2354.000000, 8165.000000, 8198.000000, 8191.000000
2528, 206808144.000000, 2288.750000, 8146.000000, 8200.000000, 8185.000000
2529, 206808304.000000, 2217.250000, 8164.000000, 8192.000000, 8179.000000
2530, 206808464.000000, 2144.000000, 8148.000000, 8200.000000, 8184.000000
2531, 206808624.000000, 2079.000000, 8136.000000, 8196.000000, 8178.000000
2532, 206808784.000000, 2024.500000, 8143.000000, 8195.000000, 8176.000000
2533, 206808944.000000, 1984.500000, 8165.000000, 8192.000000, 8175.000000
2534, 206809104.000000, 1951.750000, 8275.000000, 8114.000000, 8176.000000
2535, 206809264.000000, 1918.250000, 8093.000000, 7925.000000, 7878.000000
2536, 206809424.000000, 1883.250000, 8111.000000, 8177.000000, 8130.000000
2537, 206809584.000000, 1843.250000, 8152.000000, 8228.000000, 8209.000000
2538, 206809744.000000, 1799.250000, 8138.000000, 8242.000000, 8217.000000
2539, 206809904.000000, 1750.250000, 8159.000000, 8239.000000, 8224.000000
2540, 206810064.000000, 1697.750000, 8167.000000, 8247.000000, 8234.000000
2541, 206810224.000000, 1645.000000, 8180.000000, 8245.000000, 8236.000000
2542, 206810384.000000, 1597.250000, 8187.000000, 8242.000000, 8234.000000
2543, 206810544.000000, 1553.250000, 8160.000000, 8258.000000, 8242.000000
2544, 206810704.000000, 1510.250000, 8195.000000, 8255.000000, 8252.000000
2545, 206810864.000000, 1476.250000, 8233.000000, 8263.000000, 8277.000000
2546, 206811024.000000, 1454.500000, 8219.000000, 8263.000000, 8272.000000
2547, 206811184.000000, 1446.250000, 8230.000000, 8250.000000, 8264.000000
2548, 206811344.000000, 1445.000000, 8226.000000, 8234.000000, 8248.000000
2549, 206811504.000000, 1445.000000, 8200.000000, 8216.000000, 8220.000000
2550, 206811664.000000, 1445.000000, 8165.000000, 8210.000000, 8203.000000
2551, 206811824.000000, 1446.000000, 8147.000000, 8198.000000, 8181.000000
2552, 206811984.000000, 1445.000000, 8127.000000, 8196.000000, 8170.000000
2553, 206812144.000000, 1445.000000, 8150.000000, 8190.000000, 8173.000000
2554, 206812304.000000, 1446.250000, 8150.000000, 8198.000000, 8183.000000
2555, 206812464.000000, 1448.000000, 8146.000000, 8200.000000, 8185.000000
2556, 206812624.000000, 1448.000000, 8155.000000, 8200.000000, 8185.000000
2557, 206812784.000000, 1445.500000, 8157.000000, 8193.000000, 8179.000000
2558, 206812944.000000, 1444.500000, 8158.000000, 8190.000000, 8177.000000
2559, 206813104.000000, 1476.750000, 8157.000000, 8190.000000, 8178.000000
2560, 206813264.000000, 1593.750000, 8143.000000, 8196.000000, 8179.000000
2561, 206813424.000000, 1815.250000, 8131.000000, 8196.000000, 8173.000000
2562, 206813584.000000, 2100.500000, 8162.000000, 8182.000000, 8169.000000
2563, 206813744.000000, 2381.750000, 8164.000000, 8185.000000, 8170.000000
2564, 206813904.000000, 2607.250000, 8152.000000, 8185.000000, 8168.000000
2565, 206814064.000000, 2755.250000, 8177.000000, 8182.000000, 8177.000000
2566, 206814224.000000, 2838.750000, 8171.000000, 8185.000000, 8174.000000
2567, 206814384.000000, 2874.500000, 8168.000000, 8179.000000, 8168.000000
2568, 206814544.000000, 2883.250000, 8160.000000, 8179.000000, 8171.000000
2569, 206814704.000000, 2870.000000, 8158.000000, 8197.000000, 8184.000000
2570, 206814864.000000, 2842.500000, 8210.000000, 8186.000000, 8195.000000
2571, 206815024.000000, 2801.500000, 8183.000000, 8189.000000, 8186.000000
2572, 206815184.000000, 2750.750000, 8185.000000, 8177.000000, 8177.000000
2573, 206815344.000000, 2698.250000, 8203.000000, 8170.000000, 8174.000000
2574, 206815504.000000, 2652.250000, 8173.000000, 8179.000000, 8174.000000
2575, 206815664.000000, 2621.500000, 8200.000000, 8179.000000, 8185.000000
2576, 206815824.000000, 2600.500000, 8236.000000, 8236.000000, 8264.000000
2577, 206815984.000000, 2587.250000, 8372.000000, 7887.000000, 7970.000000
2578, 206816144.000000, 2569.750000, 8102.000000, 8019.000000, 7968.000000
2579, 206816304.000000, 2543.250000, 8206.000000, 8203.000000, 8209.000000
2580, 206816464.000000, 2498.750000, 8221.000000, 8224.000000, 8242.000000
2581, 206816624.000000, 2439.750000, 8233.000000, 8221.000000, 8243.000000
2582, 206816784.000000, 2372.500000, 8223.000000, 8222.000000, 8240.000000
2583, 206816944.000000, 2297.500000, 8251.000000, 8223.000000, 8247.000000
2584, 206817104.000000, 2222.250000, 8247.000000, 8224.000000, 8260.000000
2585, 206817264.000000, 2144.750000, 8251.000000, 8238.000000, 8266.000000
2586, 206817424.000000, 2069.500000, 8259.000000, 8237.000000, 8269.000000
2587, 206817584.000000, 1997.000000, 8282.000000, 8236.000000, 8279.000000
2588, 206817744.000000, 1931.500000, 8286.000000, 8246.000000, 8288.000000
2589, 206817904.000000, 1867.250000, 8310.000000, 8239.000000, 8293.000000
2590, 206818064.000000, 1809.500000, 8321.000000, 8229.000000, 8284.000000
2591, 206818224.000000, 1758.750000, 8275.000000, 8222.000000, 8262.000000
2592, 206818384.000000, 1714.000000, 8239.000000, 8192.000000, 8224.000000
2593, 206818544.000000, 1675.750000, 8201.000000, 8186.000000, 8199.000000
2594, 206818704.000000, 1637.500000, 8188.000000, 8187.000000, 8189.000000
2595, 206818864.000000, 1600.000000, 8196.000000, 8182.000000, 8190.000000
2596, 206819024.000000, 1558.500000, 8185.000000, 8185.000000, 8185.000000
2597, 206819184.000000, 1511.000000, 8193.000000, 8180.000000, 8184.000000
2598, 206819344.000000, 1464.250000, 8193.000000, 8178.000000, 8186.000000
2599, 206819504.000000, 1415.000000, 8200.000000, 8187.000000, 8193.000000
2600, 206819664.000000, 1361.500000, 8207.000000, 8182.000000, 8193.000000
2601, 206819824.000000, 1310.500000, 8191.000000, 8181.000000, 8185.000000
2602, 206819984.000000, 1305.250000, 8174.000000, 8181.000000, 8178.000000
2603, 206820144.000000, 1400.750000, 8180.000000, 8169.000000, 8160.000000
2604, 206820304.000000, 1613.750000, 8170.000000, 8174.000000, 8157.000000
2605, 206820464.000000, 1894.750000, 8169.000000, 8170.000000, 8152.000000
2606, 206820624.000000, 2169.000000, 8160.000000, 8169.000000, 8147.000000
2607, 206820784.000000, 2379.000000, 8162.000000, 8165.000000, 8140.000000
2608, 206820944.000000, 2507.500000, 8175.000000, 8168.000000, 8152.000000
2609, 206821104.000000, 2573.500000, 8182.000000, 8190.000000, 8185.000000
2610, 206821264.000000, 2595.750000, 8178.000000, 8199.000000, 8189.000000
2611, 206821424.000000, 2596.500000, 8187.000000, 8175.000000, 8163.000000
2612, 206821584.000000, 2591.250000, 8175.000000, 8154.000000, 8134.000000
2613, 206821744.000000, 2581.250000, 8152.000000, 8158.000000, 8133.000000
2614, 206821904.000000, 2562.750000, 8177.000000, 8158.000000, 8139.000000
2615, 206822064.000000, 2537.500000, 8190.000000, 8189.000000, 8177.000000
2616, 206822224.000000, 2516.500000, 8329.000000, 8034.000000, 8104.000000
2617, 206822384.000000, 2504.750000, 8079.000000, 7929.000000, 7869.000000
2618, 206822544.000000, 2509.500000, 8157.000000, 8149.000000, 8117.000000
2619, 206822704.000000, 2527.750000, 8180.000000, 8209.000000, 8198.000000
2620, 206822864.000000, 2553.750000, 8187.000000, 8214.000000, 8208.000000
2621, 206823024.000000, 2575.250000, 8186.000000, 8216.000000, 8215.000000
2622, 206823184.000000, 2588.500000, 8192.000000, 8222.000000, 8215.000000
2623, 206823344.000000, 2588.500000, 8195.000000, 8227.000000, 8224.000000
2624, 206823504.000000, 2571.000000, 8236.000000, 8228.000000, 8242.000000
2625, 206823664.000000, 2535.250000, 8205.000000, 8242.000000, 8248.000000
2626, 206823824.000000, 2484.000000, 8230.000000, 8247.000000, 8259.000000
2627, 206823984.000000, 2418.250000, 8259.000000, 8238.000000, 8262.000000
2628, 206824144.000000, 2341.250000, 8250.000000, 8247.000000, 8269.000000
2629, 206824304.000000, 2249.500000, 8254.000000, 8238.000000, 8262.000000
2630, 206824464.000000, 2154.500000, 8249.000000, 8217.000000, 8240.000000
2631, 206824624.000000, 2064.250000, 8201.000000, 8203.000000, 8212.000000
2632, 206824784.000000, 1990.500000, 8174.000000, 8190.000000, 8185.000000
2633, 206824944.000000, 1933.000000, 8144.000000, 8189.000000, 8174.000000
2634, 206825104.000000, 1889.250000, 8141.000000, 8192.000000, 8177.000000
2635, 206825264.000000, 1854.250000, 8158.000000, 8190.000000, 8177.000000
2636, 206825424.000000, 1825.250000, 8150.000000, 8195.000000, 8178.000000
2637, 206825584.000000, 1797.750000, 8170.000000, 8186.000000, 8175.000000
2638, 206825744.000000, 1773.000000, 8175.000000, 8186.000000, 8182.000000
2639, 206825904.000000, 1738.750000, 8153.000000, 8196.000000, 8185.000000
2640, 206826064.000000, 1698.750000, 8185.000000, 8187.000000, 8187.000000
2641, 206826224.000000, 1667.500000, 8159.000000, 8191.000000, 8180.000000
2642, 206826384.000000, 1702.750000, 8150.000000, 8187.000000, 8172.000000
2643, 206826544.000000, 1881.750000, 8181.000000, 8177.000000, 8175.000000
2644, 206826704.000000, 2184.250000, 8169.000000, 8187.000000, 8177.000000
2645, 206826864.000000, 2466.250000, 8167.000000, 8185.000000, 8178.000000
2646, 206827024.000000, 2713.000000, 8176.000000, 8182.000000, 8175.000000
2647, 206827184.000000, 2895.750000, 8177.000000, 8202.000000, 8207.000000
2648, 206827344.000000, 2997.250000, 8201.000000, 8210.000000, 8237.000000
2649, 206827504.000000, 3032.000000, 8191.000000, 8224.000000, 8234.000000
2650, 206827664.000000, 2995.250000, 8201.000000, 8188.000000, 8201.000000
2651, 206827824.000000, 2932.250000, 8182.000000, 8175.000000, 8172.000000
2652, 206827984.000000, 2852.500000, 8179.000000, 8170.000000, 8165.000000
2653, 206828144.000000, 2764.000000, 8169.000000, 8176.000000, 8168.000000
2654, 206828304.000000, 2679.750000, 8231.000000, 8227.000000, 8256.000000
2655, 206828464.000000, 2613.750000, 8332.000000, 7877.000000, 7949.000000
2656, 206828624.000000, 2570.750000, 8080.000000, 8043.000000, 7978.000000
2657, 206828784.000000, 2545.000000, 8182.000000, 8204.000000, 8204.000000
2658, 206828944.000000, 2526.000000, 8178.000000, 8225.000000, 8225.000000
2659, 206829104.000000, 2502.750000, 8207.000000, 8227.000000, 8238.000000
2660, 206829264.000000, 2464.500000, 8174.000000, 8244.000000, 8241.000000
2661, 206829424.000000, 2411.250000, 8205.000000, 8234.000000, 8242.000000
2662, 206829584.000000, 2343.250000, 8204.000000, 8234.000000, 8243.000000
2663, 206829744.000000, 2261.500000, 8215.000000, 8247.000000, 8259.000000
2664, 206829904.000000, 2152.750000, 8216.000000, 8255.000000, 8268.000000
2665, 206830064.000000, 2048.500000, 8248.000000, 8258.000000, 8282.000000
2666, 206830224.000000, 1954.250000, 8239.000000, 8261.000000, 8283.000000
2667, 206830384.000000, 1867.500000, 8245.000000, 8254.000000, 8280.000000
2668, 206830544.000000, 1785.250000, 8258.000000, 8237.000000, 8266.000000
2669, 206830704.000000, 1714.250000, 8201.000000, 8229.000000, 8238.000000
2670, 206830864.000000, 1661.750000, 8182.000000, 8203.000000, 8194.000000
2671, 206831024.000000, 1621.750000, 8120.000000, 8193.000000, 8152.000000
2672, 206831184.000000, 1586.500000, 8105.000000, 8186.000000, 8137.000000
2673, 206831344.000000, 1554.000000, 8111.000000, 8186.000000, 8141.000000
2674, 206831504.000000, 1525.500000, 8102.000000, 8196.000000, 8153.000000
2675, 206831664.000000, 1499.750000, 8121.000000, 8198.000000, 8158.000000
2676, 206831824.000000, 1474.000000, 8133.000000, 8195.000000, 8161.000000
2677, 206831984.000000, 1445.500000, 8132.000000, 8193.000000, 8160.000000
2678, 206832144.000000, 1441.500000, 8131.000000, 8193.000000, 8162.000000
2679, 206832304.000000, 1517.250000, 8140.000000, 8196.000000, 8169.000000
2680, 206832464.000000, 1716.250000, 8146.000000, 8190.000000, 8165.000000
2681, 206832624.000000, 2015.500000, 8155.000000, 8182.000000, 8163.000000
2682, 206832784.000000, 2348.500000, 8147.000000, 8180.000000, 8155.000000
2683, 206832944.000000, 2654.500000, 8145.000000, 8183.000000, 8157.000000
2684, 206833104.000000, 2905.250000, 8154.000000, 8185.000000, 8167.000000
2685, 206833264.000000, 3087.750000, 8135.000000, 8193.000000, 8168.000000
2686, 206833424.000000, 3207.250000, 8149.000000, 8186.000000, 8167.000000
2687, 206833584.000000, 3272.750000, 8139.000000, 8211.000000, 8199.000000
2688, 206833744.000000, 3305.500000, 8177.000000, 8224.000000, 8235.000000
2689, 206833904.000000, 3310.500000, 8176.000000, 8211.000000, 8208.000000
2690, 206834064.000000, 3282.750000, 8155.000000, 8192.000000, 8175.000000
2691, 206834224.000000, 3222.750000, 8158.000000, 8173.000000, 8156.000000
2692, 206834384.000000, 3136.750000, 8137.000000, 8178.000000, 8151.000000
2693, 206834544.000000, 3045.000000, 8165.000000, 8173.000000, 8156.000000
2694, 206834704.000000, 2962.750000, 8235.000000, 8208.000000, 8234.000000
2695, 206834864.000000, 2893.750000, 8323.000000, 7848.000000, 7902.000000
2696, 206835024.000000, 2832.250000, 8092.000000, 8086.000000, 8017.000000
2697, 206835184.000000, 2775.750000, 8170.000000, 8211.000000, 8200.000000
2698, 206835344.000000, 2713.500000, 8166.000000, 8225.000000, 8219.000000
2699, 206835504.000000, 2645.250000, 8165.000000, 8234.000000, 8225.000000
2700, 206835664.000000, 2565.000000, 8170.000000, 8240.000000, 8231.000000
2701, 206835824.000000, 2473.250000, 8188.000000, 8233.000000, 8233.000000
2702, 206835984.000000, 2382.000000, 8203.000000, 8235.000000, 8241.000000
2703, 206836144.000000, 2293.750000, 8200.000000, 8244.000000, 8254.000000
2704, 206836304.000000, 2212.250000, 8222.000000, 8257.000000, 8272.000000
2705, 206836464.000000, 2138.250000, 8243.000000, 8259.000000, 8284.000000
2706, 206836624.000000, 2069.250000, 8260.000000, 8255.000000, 8285.000000
2707, 206836784.000000, 2003.500000, 8266.000000, 8245.000000, 8279.000000
2708, 206836944.000000, 1941.250000, 8268.000000, 8234.000000, 8272.000000
2709, 206837104.000000, 1886.000000, 8226.000000, 8223.000000, 8245.000000
2710, 206837264.000000, 1838.750000, 8184.000000, 8217.000000, 8221.000000
2711, 206837424.000000, 1796.250000, 8158.000000, 8205.000000, 8198.000000
2712, 206837584.000000, 1753.000000, 8155.000000, 8192.000000, 8181.000000
2713, 206837744.000000, 1714.750000, 8153.000000, 8195.000000, 8180.000000
2714, 206837904.000000, 1677.500000, 8155.000000, 8197.000000, 8186.000000
2715, 206838064.000000, 1637.500000, 8173.000000, 8197.000000, 8190.000000
2716, 206838224.000000, 1587.750000, 8178.000000, 8192.000000, 8188.000000
2717, 206838384.000000, 1537.750000, 8183.000000, 8190.000000, 8187.000000
2718, 206838544.000000, 1518.000000, 8169.000000, 8192.000000, 8184.000000
2719, 206838704.000000, 1587.000000, 8187.000000, 8189.000000, 8185.000000
2720, 206838864.000000, 1784.500000, 8180.000000, 8189.000000, 8184.000000
2721, 206839024.000000, 2088.000000, 8184.000000, 8180.000000, 8172.000000
2722, 206839184.000000, 2424.750000, 8180.000000, 8174.000000, 8169.000000
2723, 206839344.000000, 2727.000000, 8180.000000, 8178.000000, 8169.000000
2724, 206839504.000000, 2950.750000, 8181.000000, 8181.000000, 8175.000000
2725, 206839664.000000, 3080.500000, 8183.000000, 8182.000000, 8177.000000
2726, 206839824.000000, 3131.000000, 8177.000000, 8178.000000, 8169.000000
2727, 206839984.000000, 3122.500000, 8178.000000, 8178.000000, 8168.000000
2728, 206840144.000000, 3077.250000, 8181.000000, 8176.000000, 8166.000000
2729, 206840304.000000, 3012.250000, 8180.000000, 8182.000000, 8173.000000
2730, 206840464.000000, 2928.500000, 8195.000000, 8185.000000, 8188.000000
2731, 206840624.000000, 2824.250000, 8188.000000, 8205.000000, 8209.000000
2732, 206840784.000000, 2712.250000, 8218.000000, 8200.000000, 8212.000000
2733, 206840944.000000, 2611.250000, 8199.000000, 8181.000000, 8183.000000
2734, 206841104.000000, 2529.000000, 8159.000000, 8177.000000, 8162.000000
2735, 206841264.000000, 2466.500000, 8178.000000, 8174.000000, 8162.000000
2736, 206841424.000000, 2413.750000, 8181.000000, 8169.000000, 8157.000000
2737, 206841584.000000, 2359.500000, 8189.000000, 8182.000000, 8175.000000
2738, 206841744.000000, 2296.250000, 8359.000000, 8021.000000, 8101.000000
2739, 206841904.000000, 2220.250000, 8073.000000, 7930.000000, 7852.000000
2740, 206842064.000000, 2131.500000, 8142.000000, 8155.000000, 8103.000000
2741, 206842224.000000, 2032.250000, 8199.000000, 8196.000000, 8186.000000
2742, 206842384.000000, 1927.750000, 8187.000000, 8209.000000, 8193.000000
2743, 206842544.000000, 1830.250000, 8179.000000, 8217.000000, 8202.000000
2744, 206842704.000000, 1751.250000, 8184.000000, 8229.000000, 8217.000000
2745, 206842864.000000, 1690.500000, 8225.000000, 8224.000000, 8229.000000
2746, 206843024.000000, 1643.000000, 8223.000000, 8223.000000, 8229.000000
2747, 206843184.000000, 1608.750000, 8225.000000, 8231.000000, 8236.000000
2748, 206843344.000000, 1588.750000, 8246.000000, 8239.000000, 8256.000000
2749, 206843504.000000, 1582.250000, 8253.000000, 8250.000000, 8276.000000
2750, 206843664.000000, 1580.750000, 8292.000000, 8241.000000, 8275.000000
2751, 206843824.000000, 1575.750000, 8283.000000, 8234.000000, 8266.000000
2752, 206843984.000000, 1562.500000, 8252.000000, 8222.000000, 8247.000000
2753, 206844144.000000, 1548.250000, 8237.000000, 8202.000000, 8223.000000
2754, 206844304.000000, 1538.250000, 8191.000000, 8200.000000, 8206.000000
2755, 206844464.000000, 1532.500000, 8175.000000, 8188.000000, 8186.000000
2756, 206844624.000000, 1526.500000, 8172.000000, 8180.000000, 8180.000000
2757, 206844784.000000, 1520.500000, 8201.000000, 8170.000000, 8175.000000
2758, 206844944.000000, 1520.000000, 8174.000000, 8185.000000, 8184.000000
2759, 206845104.000000, 1519.250000, 8191.000000, 8186.000000, 8192.000000
2760, 206845264.000000, 1506.750000, 8190.000000, 8185.000000, 8191.000000
2761, 206845424.000000, 1484.750000, 8167.000000, 8191.000000, 8188.000000
2762, 206845584.000000, 1503.250000, 8192.000000, 8182.000000, 8185.000000
2763, 206845744.000000, 1618.500000, 8180.000000, 8181.000000, 8180.000000
2764, 206845904.000000, 1866.750000, 8193.000000, 8176.000000, 8180.000000
2765, 206846064.000000, 2212.250000, 8182.000000, 8177.000000, 8177.000000
2766, 206846224.000000, 2577.000000, 8196.000000, 8169.000000, 8175.000000
2767, 206846384.000000, 2889.750000, 8184.000000, 8171.000000, 8169.000000
2768, 206846544.000000, 3105.000000, 8183.000000, 8173.000000, 8172.000000
2769, 206846704.000000, 3221.000000, 8206.000000, 8169.000000, 8177.000000
2770, 206846864.000000, 3254.750000, 8190.000000, 8177.000000, 8177.000000
2771, 206847024.000000, 3234.500000, 8182.000000, 8169.000000, 8173.000000
2772, 206847184.000000, 3185.750000, 8171.000000, 8196.000000, 8201.000000
2773, 206847344.000000, 3117.500000, 8220.000000, 8203.000000, 8231.000000
2774, 206847504.000000, 3031.000000, 8211.000000, 8198.000000, 8216.000000
2775, 206847664.000000, 2925.000000, 8213.000000, 8178.000000, 8189.000000
2776, 206847824.000000, 2814.750000, 8176.000000, 8169.000000, 8166.000000
2777, 206847984.000000, 2720.500000, 8185.000000, 8165.000000, 8162.000000
2778, 206848144.000000, 2649.000000, 8215.000000, 8156.000000, 8166.000000
2779, 206848304.000000, 2592.500000, 8253.000000, 8225.000000, 8261.000000
2780, 206848464.000000, 2534.000000, 8334.000000, 7851.000000, 7917.000000
2781, 206848624.000000, 2470.750000, 8118.000000, 8036.000000, 7986.000000
2782, 206848784.000000, 2398.000000, 8208.000000, 8191.000000, 8199.000000
2783, 206848944.000000, 2313.000000, 8202.000000, 8215.000000, 8225.000000
2784, 206849104.000000, 2213.250000, 8208.000000, 8228.000000, 8238.000000
2785, 206849264.000000, 2105.000000, 8225.000000, 8223.000000, 8242.000000
2786, 206849424.000000, 1996.750000, 8221.000000, 8223.000000, 8241.000000
2787, 206849584.000000, 1896.750000, 8233.000000, 8231.000000, 8253.000000
2788, 206849744.000000, 1801.500000, 8217.000000, 8245.000000, 8267.000000
2789, 206849904.000000, 1708.250000, 8253.000000, 8250.000000, 8282.000000
2790, 206850064.000000, 1620.500000, 8268.000000, 8254.000000, 8296.000000
2791, 206850224.000000, 1538.000000, 8278.000000, 8254.000000, 8300.000000
2792, 206850384.000000, 1467.500000, 8280.000000, 8250.000000, 8296.000000
2793, 206850544.000000, 1406.000000, 8283.000000, 8239.000000, 8287.000000
2794, 206850704.000000, 1349.250000, 8260.000000, 8223.000000, 8263.000000
2795, 206850864.000000, 1293.250000, 8211.000000, 8209.000000, 8231.000000
2796, 206851024.000000, 1243.750000, 8185.000000, 8193.000000, 8205.000000
2797, 206851184.000000, 1207.250000, 8164.000000, 8194.000000, 8189.000000
2798, 206851344.000000, 1175.750000, 8162.000000, 8191.000000, 8184.000000
2799, 206851504.000000, 1141.500000, 8155.000000, 8195.000000, 8188.000000
2800, 206851664.000000, 1104.000000, 8169.000000, 8196.000000, 8188.000000
2801, 206851824.000000, 1060.750000, 8175.000000, 8188.000000, 8186.000000
2802, 206851984.000000, 1008.750000, 8169.000000, 8191.000000, 8185.000000
2803, 206852144.000000, 971.750000, 8176.000000, 8191.000000, 8184.000000
2804, 206852304.000000, 994.250000, 8147.000000, 8197.000000, 8184.000000
2805, 206852464.000000, 1136.250000, 8147.000000, 8192.000000, 8177.000000
2806, 206852624.000000, 1399.500000, 8151.000000, 8184.000000, 8170.000000
2807, 206852784.000000, 1742.500000, 8149.000000, 8184.000000, 8167.000000
2808, 206852944.000000, 2079.500000, 8142.000000, 8184.000000, 8158.000000
2809, 206853104.000000, 2354.750000, 8131.000000, 8183.000000, 8148.000000
2810, 206853264.000000, 2543.250000, 8126.000000, 8176.000000, 8137.000000
2811, 206853424.000000, 2654.750000, 8125.000000, 8177.000000, 8132.000000
2812, 206853584.000000, 2712.500000, 8140.000000, 8173.000000, 8136.000000
2813, 206853744.000000, 2735.750000, 8162.000000, 8172.000000, 8145.000000
2814, 206853904.000000, 2741.000000, 8144.000000, 8187.000000, 8156.000000
2815, 206854064.000000, 2724.250000, 8147.000000, 8206.000000, 8189.000000
2816, 206854224.000000, 2678.000000, 8170.000000, 8217.000000, 8214.000000
2817, 206854384.000000, 2600.500000, 8183.000000, 8186.000000, 8171.000000
2818, 206854544.000000, 2517.500000, 8144.000000, 8184.000000, 8153.000000
2819, 206854704.000000, 2451.750000, 8136.000000, 8177.000000, 8145.000000
2820, 206854864.000000, 2406.750000, 8140.000000, 8177.000000, 8144.000000
2821, 206855024.000000, 2381.000000, 8165.000000, 8167.000000, 8142.000000
2822, 206855184.000000, 2366.750000, 8255.000000, 8148.000000, 8177.000000
2823, 206855344.000000, 2355.250000, 8237.000000, 7843.000000, 7846.000000
2824, 206855504.000000, 2332.000000, 8111.000000, 8118.000000, 8059.000000
2825, 206855664.000000, 2295.500000, 8163.000000, 8212.000000, 8202.000000
2826, 206855824.000000, 2238.250000, 8153.000000, 8230.000000, 8211.000000
2827, 206855984.000000, 2164.750000, 8171.000000, 8229.000000, 8222.000000
2828, 206856144.000000, 2085.000000, 8196.000000, 8233.000000, 8229.000000
2829, 206856304.000000, 2003.250000, 8189.000000, 8240.000000, 8243.000000
2830, 206856464.000000, 1925.500000, 8190.000000, 8247.000000, 8249.000000
2831, 206856624.000000, 1853.000000, 8198.000000, 8252.000000, 8255.000000
2832, 206856784.000000, 1784.500000, 8207.000000, 8253.000000, 8262.000000
2833, 206856944.000000, 1719.500000, 8238.000000, 8261.000000, 8281.000000
2834, 206857104.000000, 1652.500000, 8227.000000, 8270.000000, 8292.000000
2835, 206857264.000000, 1585.750000, 8265.000000, 8249.000000, 8279.000000
2836, 206857424.000000, 1524.500000, 8271.000000, 8228.000000, 8260.000000
2837, 206857584.000000, 1470.250000, 8231.000000, 8214.000000, 8235.000000
2838, 206857744.000000, 1425.500000, 8179.000000, 8209.000000, 8213.000000
2839, 206857904.000000, 1383.000000, 8156.000000, 8202.000000, 8195.000000
2840, 206858064.000000, 1341.000000, 8152.000000, 8196.000000, 8183.000000
2841, 206858224.000000, 1301.750000, 8140.000000, 8193.000000, 8178.000000
2842, 206858384.000000, 1271.250000, 8149.000000, 8195.000000, 8180.000000
2843, 206858544.000000, 1246.500000, 8176.000000, 8196.000000, 8193.000000
2844, 206858704.000000, 1221.000000, 8149.000000, 8208.000000, 8197.000000
2845, 206858864.000000, 1190.000000, 8189.000000, 8193.000000, 8198.000000
2846, 206859024.000000, 1180.750000, 8169.000000, 8194.000000, 8190.000000
2847, 206859184.000000, 1246.500000, 8168.000000, 8194.000000, 8187.000000
2848, 206859344.000000, 1441.000000, 8170.000000, 8193.000000, 8193.000000
2849, 206859504.000000, 1758.500000, 8175.000000, 8190.000000, 8188.000000
2850, 206859664.000000, 2138.250000, 8160.000000, 8194.000000, 8184.000000
2851, 206859824.000000, 2499.750000, 8157.000000, 8187.000000, 8179.000000
2852, 206859984.000000, 2786.750000, 8164.000000, 8189.000000, 8180.000000
2853, 206860144.000000, 2973.250000, 8186.000000, 8188.000000, 8185.000000
2854, 206860304.000000, 3069.250000, 8181.000000, 8186.000000, 8186.000000
2855, 206860464.000000, 3090.500000, 8175.000000, 8190.000000, 8184.000000
2856, 206860624.000000, 3070.250000, 8198.000000, 8179.000000, 8180.000000
2857, 206860784.000000, 3025.500000, 8178.000000, 8183.000000, 8181.000000
2858, 206860944.000000, 2957.250000, 8183.000000, 8186.000000, 8185.000000
2859, 206861104.000000, 2865.500000, 8183.000000, 8193.000000, 8188.000000
2860, 206861264.000000, 2750.000000, 8197.000000, 8181.000000, 8185.000000
2861, 206861424.000000, 2634.250000, 8196.000000, 8191.000000, 8197.000000
2862, 206861584.000000, 2529.750000, 8209.000000, 8205.000000, 8221.000000
2863, 206861744.000000, 2444.000000, 8190.000000, 8207.000000, 8209.000000
2864, 206861904.000000, 2371.250000, 8207.000000, 8187.000000, 8194.000000
2865, 206862064.000000, 2305.500000, 8163.000000, 8182.000000, 8166.000000
2866, 206862224.000000, 2239.000000, 8175.000000, 8175.000000, 8163.000000
2867, 206862384.000000, 2166.500000, 8183.000000, 8170.000000, 8165.000000
2868, 206862544.000000, 2089.500000, 8200.000000, 8215.000000, 8212.000000
2869, 206862704.000000, 2002.750000, 8352.000000, 7964.000000, 8042.000000
2870, 206862864.000000, 1909.250000, 8074.000000, 7978.000000, 7911.000000
2871, 206863024.000000, 1810.750000, 8162.000000, 8187.000000, 8162.000000
2872, 206863184.000000, 1714.250000, 8177.000000, 8221.000000, 8210.000000
2873, 206863344.000000, 1622.750000, 8187.000000, 8229.000000, 8223.000000
2874, 206863504.000000, 1537.750000, 8205.000000, 8229.000000, 8231.000000
2875, 206863664.000000, 1462.000000, 8188.000000, 8235.000000, 8235.000000
2876, 206863824.000000, 1393.500000, 8196.000000, 8235.000000, 8233.000000
2877, 206863984.000000, 1331.750000, 8219.000000, 8233.000000, 8242.000000
2878, 206864144.000000, 1273.750000, 8203.000000, 8244.000000, 8244.000000
2879, 206864304.000000, 1210.500000, 8227.000000, 8241.000000, 8241.000000
2880, 206864464.000000, 1147.000000, 8236.000000, 8242.000000, 8244.000000
2881, 206864624.000000, 1090.250000, 8258.000000, 8234.000000, 8249.000000
2882, 206864784.000000, 1048.250000, 8240.000000, 8236.000000, 8247.000000
2883, 206864944.000000, 1017.500000, 8249.000000, 8218.000000, 8233.000000
2884, 206865104.000000, 996.250000, 8217.000000, 8208.000000, 8214.000000
2885, 206865264.000000, 983.750000, 8172.000000, 8202.000000, 8192.000000
2886, 206865424.000000, 981.000000, 8152.000000, 8191.000000, 8170.000000
2887, 206865584.000000, 985.250000, 8175.000000, 8179.000000, 8167.000000
2888, 206865744.000000, 991.750000, 8156.000000, 8192.000000, 8175.000000
2889, 206865904.000000, 997.500000, 8155.000000, 8200.000000, 8183.000000
2890, 206866064.000000, 999.750000, 8161.000000, 8196.000000, 8183.000000
2891, 206866224.000000, 994.750000, 8170.000000, 8190.000000, 8181.000000
2892, 206866384.000000, 985.000000, 8180.000000, 8190.000000, 8185.000000
2893, 206866544.000000, 1011.500000, 8178.000000, 8194.000000, 8190.000000
2894, 206866704.000000, 1135.000000, 8169.000000, 8193.000000, 8185.000000
2895, 206866864.000000, 1406.250000, 8162.000000, 8187.000000, 8178.000000
2896, 206867024.000000, 1777.250000, 8156.000000, 8184.000000, 8173.000000
2897, 206867184.000000, 2174.250000, 8157.000000, 8183.000000, 8167.000000
2898, 206867344.000000, 2522.750000, 8174.000000, 8179.000000, 8176.000000
2899, 206867504.000000, 2790.500000, 8143.000000, 8190.000000, 8173.000000
2900, 206867664.000000, 2959.500000, 8181.000000, 8183.000000, 8179.000000
2901, 206867824.000000, 3042.500000, 8174.000000, 8178.000000, 8171.000000
2902, 206867984.000000, 3067.750000, 8176.000000, 8176.000000, 8173.000000
2903, 206868144.000000, 3055.250000, 8168.000000, 8184.000000, 8179.000000
2904, 206868304.000000, 3022.750000, 8185.000000, 8181.000000, 8183.000000
2905, 206868464.000000, 2973.750000, 8194.000000, 8179.000000, 8181.000000
2906, 206868624.000000, 2900.750000, 8181.000000, 8172.000000, 8172.000000
2907, 206868784.000000, 2812.250000, 8209.000000, 8176.000000, 8188.000000
2908, 206868944.000000, 2725.000000, 8178.000000, 8205.000000, 8217.000000
2909, 206869104.000000, 2651.000000, 8215.000000, 8202.000000, 8224.000000
2910, 206869264.000000, 2588.750000, 8218.000000, 8179.000000, 8191.000000
2911, 206869424.000000, 2541.500000, 8186.000000, 8167.000000, 8168.000000
2912, 206869584.000000, 2496.250000, 8205.000000, 8166.000000, 8170.000000
2913, 206869744.000000, 2443.750000, 8192.000000, 8173.000000, 8176.000000
2914, 206869904.000000, 2372.000000, 8211.000000, 8180.000000, 8188.000000
2915, 206870064.000000, 2282.750000, 8349.000000, 8086.000000, 8170.000000
2916, 206870224.000000, 2176.750000, 8163.000000, 7907.000000, 7885.000000
2917, 206870384.000000, 2062.750000, 8172.000000, 8139.000000, 8119.000000
2918, 206870544.000000, 1945.750000, 8215.000000, 8207.000000, 8221.000000
2919, 206870704.000000, 1834.000000, 8208.000000, 8226.000000, 8236.000000
2920, 206870864.000000, 1728.000000, 8218.000000, 8219.000000, 8237.000000
2921, 206871024.000000, 1633.750000, 8247.000000, 8216.000000, 8240.000000
2922, 206871184.000000, 1551.500000, 8235.000000, 8220.000000, 8244.000000
2923, 206871344.000000, 1479.000000, 8253.000000, 8227.000000, 8257.000000
2924, 206871504.000000, 1416.750000, 8260.000000, 8238.000000, 8270.000000
2925, 206871664.000000, 1371.000000, 8292.000000, 8233.000000, 8271.000000
2926, 206871824.000000, 1335.500000, 8288.000000, 8237.000000, 8282.000000
2927, 206871984.000000, 1300.750000, 8307.000000, 8233.000000, 8285.000000
2928, 206872144.000000, 1261.750000, 8324.000000, 8230.000000, 8289.000000
2929, 206872304.000000, 1222.750000, 8295.000000, 8219.000000, 8267.000000
2930, 206872464.000000, 1188.750000, 8259.000000, 8201.000000, 8241.000000
2931, 206872624.000000, 1162.250000, 8208.000000, 8194.000000, 8214.000000
2932, 206872784.000000, 1138.750000, 8191.000000, 8184.000000, 8200.000000
2933, 206872944.000000, 1114.500000, 8190.000000, 8187.000000, 8199.000000
2934, 206873104.000000, 1087.000000, 8174.000000, 8191.000000, 8198.000000
2935, 206873264.000000, 1057.000000, 8181.000000, 8188.000000, 8198.000000
2936, 206873424.000000, 1025.500000, 8183.000000, 8190.000000, 8199.000000
2937, 206873584.000000, 986.500000, 8190.000000, 8192.000000, 8202.000000
2938, 206873744.000000, 933.250000, 8187.000000, 8197.000000, 8207.000000
2939, 206873904.000000, 881.250000, 8186.000000, 8197.000000, 8204.000000
2940, 206874064.000000, 872.500000, 8175.000000, 8193.000000, 8199.000000
2941, 206874224.000000, 977.000000, 8172.000000, 8187.000000, 8189.000000
2942, 206874384.000000, 1207.750000, 8172.000000, 8183.000000, 8185.000000
2943, 206874544.000000, 1538.250000, 8183.000000, 8186.000000, 8191.000000
2944, 206874704.000000, 1877.750000, 8163.000000, 8190.000000, 8188.000000
2945, 206874864.000000, 2149.750000, 8173.000000, 8181.000000, 8185.000000
2946, 206875024.000000, 2314.750000, 8175.000000, 8182.000000, 8178.000000
2947, 206875184.000000, 2387.250000, 8157.000000, 8189.000000, 8181.000000
2948, 206875344.000000, 2396.750000, 8152.000000, 8191.000000, 8178.000000
2949, 206875504.000000, 2377.750000, 8131.000000, 8194.000000, 8169.000000
2950, 206875664.000000, 2350.500000, 8136.000000, 8182.000000, 8148.000000
2951, 206875824.000000, 2327.750000, 8189.000000, 8185.000000, 8182.000000
2952, 206875984.000000, 2363.750000, 8142.000000, 8209.000000, 8189.000000
2953, 206876144.000000, 2550.750000, 8154.000000, 8198.000000, 8174.000000
2954, 206876304.000000, 2849.500000, 8179.000000, 8176.000000, 8157.000000
2955, 206876464.000000, 2933.000000, 8129.000000, 8175.000000, 8136.000000
2956, 206876624.000000, 2525.500000, 8122.000000, 8177.000000, 8134.000000
2957, 206876784.000000, 1755.000000, 8151.000000, 8171.000000, 8139.000000
2958, 206876944.000000, 957.750000, 8217.000000, 8199.000000, 8205.000000
2959, 206877104.000000, 368.750000, 8291.000000, 7844.000000, 7871.000000
2960, 206877264.000000, 76.250000, 8104.000000, 8080.000000, 8003.000000
2961, 206877424.000000, 13.750000, 8170.000000, 8210.000000, 8191.000000
2962, 206877584.000000, 2.750000, 8168.000000, 8226.000000, 8209.000000
2963, 206877744.000000, 31.250000, 8189.000000, 8230.000000, 8221.000000
2964, 206877904.000000, 211.750000, 8158.000000, 8243.000000, 8228.000000
2965, 206878064.000000, 580.250000, 8205.000000, 8236.000000, 8236.000000
2966, 206878224.000000, 1048.250000, 8194.000000, 8243.000000, 8232.000000
2967, 206878384.000000, 1518.750000, 8194.000000, 8248.000000, 8248.000000
2968, 206878544.000000, 1892.500000, 8185.000000, 8264.000000, 8268.000000
2969, 206878704.000000, 2089.000000, 8216.000000, 8266.000000, 8271.000000
2970, 206878864.000000, 2098.250000, 8276.000000, 8247.000000, 8280.000000
2971, 206879024.000000, 2053.000000, 8250.000000, 8262.000000, 8264.000000
2972, 206879184.000000, 2070.500000, 8242.000000, 8241.000000, 8269.000000
2973, 206879344.000000, 2182.500000, 8221.000000, 8228.000000, 8250.000000
2974, 206879504.000000, 2348.500000, 8170.000000, 8222.000000, 8215.000000
2975, 206879664.000000, 2542.000000, 8164.000000, 8200.000000, 8189.000000
2976, 206879824.000000, 2752.250000, 8157.000000, 8189.000000, 8173.000000
2977, 206879984.000000, 2954.750000, 8135.000000, 8189.000000, 8168.000000
2978, 206880144.000000, 3119.000000, 8133.000000, 8200.000000, 8178.000000
2979, 206880304.000000, 3246.250000, 8157.000000, 8197.000000, 8187.000000
2980, 206880464.000000, 3380.250000, 8141.000000, 8200.000000, 8185.000000
2981, 206880624.000000, 3627.250000, 8156.000000, 8197.000000, 8186.000000
2982, 206880784.000000, 3944.750000, 8158.000000, 8201.000000, 8184.000000
2983, 206880944.000000, 4062.750000, 8161.000000, 8196.000000, 8183.000000
2984, 206881104.000000, 3976.250000, 8142.000000, 8199.000000, 8183.000000
2985, 206881264.000000, 3823.750000, 8158.000000, 8190.000000, 8181.000000
2986, 206881424.000000, 3819.250000, 8140.000000, 8187.000000, 8168.000000
2987, 206881584.000000, 3923.000000, 8149.000000, 8188.000000, 8173.000000
2988, 206881744.000000, 3991.500000, 8159.000000, 8194.000000, 8185.000000
2989, 206881904.000000, 3950.250000, 8177.000000, 8189.000000, 8184.000000
2990, 206882064.000000, 3839.500000, 8153.000000, 8196.000000, 8181.000000
2991, 206882224.000000, 3681.750000, 8155.000000, 8185.000000, 8174.000000
2992, 206882384.000000, 3359.500000, 8173.000000, 8186.000000, 8179.000000
2993, 206882544.000000, 2816.500000, 8162.000000, 8193.000000, 8184.000000
2994, 206882704.000000, 2265.250000, 8173.000000, 8190.000000, 8187.000000
2995, 206882864.000000, 1929.500000, 8186.000000, 8189.000000, 8188.000000
2996, 206883024.000000, 1755.250000, 8198.000000, 8214.000000, 8231.000000
2997, 206883184.000000, 1525.000000, 8203.000000, 8212.000000, 8232.000000
2998, 206883344.000000, 1200.250000, 8205.000000, 8200.000000, 8212.000000
2999, 206883504.000000, 885.000000, 8193.000000, 8187.000000, 8191.000000
3000, 206883664.000000, 651.750000, 8175.000000, 8181.000000, 8177.000000
3001, 206883824.000000, 469.250000, 8183.000000, 8176.000000, 8175.000000
3002, 206883984.000000, 324.250000, 8197.000000, 8177.000000, 8172.000000
3003, 206884144.000000, 258.500000, 8334.000000, 8133.000000, 8213.000000
3004, 206884304.000000, 275.000000, 8209.000000, 7895.000000, 7890.000000
3005, 206884464.000000, 313.500000, 8145.000000, 8149.000000, 8109.000000
3006, 206884624.000000, 343.000000, 8190.000000, 8214.000000, 8212.000000
3007, 206884784.000000, 376.250000, 8178.000000, 8231.000000, 8227.000000
3008, 206884944.000000, 421.000000, 8205.000000, 8228.000000, 8234.000000
3009, 206885104.000000, 474.500000, 8211.000000, 8226.000000, 8234.000000
3010, 206885264.000000, 525.250000, 8203.000000, 8234.000000, 8236.000000
3011, 206885424.000000, 558.500000, 8223.000000, 8233.000000, 8239.000000
3012, 206885584.000000, 566.500000, 8238.000000, 8232.000000, 8248.000000
3013, 206885744.000000, 535.500000, 8229.000000, 8248.000000, 8258.000000
3014, 206885904.000000, 472.750000, 8261.000000, 8244.000000, 8269.000000
3015, 206886064.000000, 403.500000, 8261.000000, 8244.000000, 8269.000000
3016, 206886224.000000, 361.750000, 8287.000000, 8230.000000, 8260.000000
3017, 206886384.000000, 348.500000, 8268.000000, 8218.000000, 8248.000000
3018, 206886544.000000, 345.500000, 8263.000000, 8200.000000, 8226.000000
3019, 206886704.000000, 338.750000, 8188.000000, 8198.000000, 8191.000000
3020, 206886864.000000, 335.750000, 8143.000000, 8184.000000, 8149.000000
3021, 206887024.000000, 350.750000, 8135.000000, 8174.000000, 8137.000000
3022, 206887184.000000, 386.500000, 8144.000000, 8178.000000, 8139.000000
3023, 206887344.000000, 437.250000, 8152.000000, 8183.000000, 8156.000000
3024, 206887504.000000, 504.500000, 8133.000000, 8195.000000, 8159.000000
3025, 206887664.000000, 581.250000, 8149.000000, 8187.000000, 8160.000000
3026, 206887824.000000, 659.500000, 8153.000000, 8188.000000, 8165.000000
3027, 206887984.000000, 738.500000, 8173.000000, 8180.000000, 8163.000000
3028, 206888144.000000, 843.500000, 8149.000000, 8192.000000, 8171.000000
3029, 206888304.000000, 1007.750000, 8151.000000, 8189.000000, 8169.000000
3030, 206888464.000000, 1232.250000, 8175.000000, 8176.000000, 8162.000000
3031, 206888624.000000, 1494.000000, 8174.000000, 8176.000000, 8161.000000
3032, 206888784.000000, 1771.250000, 8158.000000, 8184.000000, 8163.000000
3033, 206888944.000000, 2049.500000, 8153.000000, 8182.000000, 8165.000000
3034, 206889104.000000, 2309.000000, 8180.000000, 8177.000000, 8174.000000
3035, 206889264.000000, 2531.750000, 8176.000000, 8178.000000, 8169.000000
3036, 206889424.000000, 2706.500000, 8182.000000, 8171.000000, 8171.000000
3037, 206889584.000000, 2831.500000, 8180.000000, 8172.000000, 8167.000000
3038, 206889744.000000, 2915.750000, 8157.000000, 8186.000000, 8174.000000
3039, 206889904.000000, 2975.500000, 8178.000000, 8184.000000, 8182.000000
3040, 206890064.000000, 3021.750000, 8189.000000, 8205.000000, 8218.000000
3041, 206890224.000000, 3055.250000, 8186.000000, 8202.000000, 8211.000000
3042, 206890384.000000, 3069.250000, 8197.000000, 8183.000000, 8191.000000
3043, 206890544.000000, 3065.000000, 8175.000000, 8178.000000, 8170.000000
3044, 206890704.000000, 3047.500000, 8192.000000, 8169.000000, 8170.000000
3045, 206890864.000000, 3020.750000, 8185.000000, 8169.000000, 8166.000000
3046, 206891024.000000, 2979.500000, 8192.000000, 8184.000000, 8183.000000
3047, 206891184.000000, 2916.250000, 8358.000000, 8071.000000, 8159.000000
3048, 206891344.000000, 2832.500000, 8149.000000, 7928.000000, 7903.000000
3049, 206891504.000000, 2736.750000, 8170.000000, 8145.000000, 8126.000000
3050, 206891664.000000, 2635.750000, 8211.000000, 8200.000000, 8214.000000
3051, 206891824.000000, 2531.750000, 8224.000000, 8206.000000, 8222.000000
3052, 206891984.000000, 2430.000000, 8216.000000, 8209.000000, 8222.000000
3053, 206892144.000000, 2330.750000, 8218.000000, 8219.000000, 8235.000000
3054, 206892304.000000, 2242.500000, 8246.000000, 8220.000000, 8243.000000
3055, 206892464.000000, 2159.000000, 8252.000000, 8220.000000, 8243.000000
3056, 206892624.000000, 2081.750000, 8242.000000, 8227.000000, 8251.000000
3057, 206892784.000000, 2010.000000, 8269.000000, 8230.000000, 8264.000000
3058, 206892944.000000, 1941.500000, 8284.000000, 8238.000000, 8278.000000
3059, 206893104.000000, 1878.250000, 8327.000000, 8233.000000, 8288.000000
3060, 206893264.000000, 1818.250000, 8295.000000, 8229.000000, 8275.000000
3061, 206893424.000000, 1762.500000, 8313.000000, 8207.000000, 8257.000000
3062, 206893584.000000, 1707.750000, 8266.000000, 8195.000000, 8235.000000
3063, 206893744.000000, 1656.750000, 8221.000000, 8195.000000, 8213.000000
3064, 206893904.000000, 1616.000000, 8205.000000, 8182.000000, 8198.000000
3065, 206894064.000000, 1578.500000, 8201.000000, 8177.000000, 8186.000000
3066, 206894224.000000, 1545.000000, 8207.000000, 8174.000000, 8185.000000
3067, 206894384.000000, 1519.250000, 8189.000000, 8181.000000, 8184.000000
3068, 206894544.000000, 1502.750000, 8195.000000, 8187.000000, 8198.000000
3069, 206894704.000000, 1489.500000, 8191.000000, 8192.000000, 8204.000000
3070, 206894864.000000, 1476.000000, 8185.000000, 8189.000000, 8193.000000
3071, 206895024.000000, 1455.000000, 8200.000000, 8180.000000, 8192.000000
3072, 206895184.000000, 1445.000000, 8223.000000, 8172.000000, 8194.000000
3073, 206895344.000000, 1478.750000, 8195.000000, 8186.000000, 8193.000000
3074, 206895504.000000, 1593.500000, 8191.000000, 8183.000000, 8193.000000
3075, 206895664.000000, 1772.250000, 8185.000000, 8180.000000, 8186.000000
3076, 206895824.000000, 1973.250000, 8191.000000, 8175.000000, 8183.000000
3077, 206895984.000000, 2149.250000, 8180.000000, 8183.000000, 8188.000000
3078, 206896144.000000, 2278.000000, 8180.000000, 8185.000000, 8190.000000
3079, 206896304.000000, 2346.250000, 8185.000000, 8186.000000, 8190.000000
3080, 206896464.000000, 2363.000000, 8195.000000, 8197.000000, 8218.000000
3081, 206896624.000000, 2342.250000, 8203.000000, 8214.000000, 8240.000000
3082, 206896784.000000, 2294.250000, 8193.000000, 8203.000000, 8217.000000
3083, 206896944.000000, 2235.000000, 8177.000000, 8191.000000, 8194.000000
3084, 206897104.000000, 2173.500000, 8166.000000, 8177.000000, 8171.000000
3085, 206897264.000000, 2111.000000, 8161.000000, 8175.000000, 8166.000000
3086, 206897424.000000, 2052.750000, 8182.000000, 8166.000000, 8159.000000
3087, 206897584.000000, 2004.500000, 8220.000000, 8213.000000, 8229.000000
3088, 206897744.000000, 1970.250000, 8283.000000, 7863.000000, 7891.000000
3089, 206897904.000000, 1945.000000, 8065.000000, 8046.000000, 7961.000000
3090, 206898064.000000, 1931.000000, 8163.000000, 8192.000000, 8160.000000
3091, 206898224.000000, 1926.000000, 8159.000000, 8201.000000, 8172.000000
3092, 206898384.000000, 1929.500000, 8168.000000, 8210.000000, 8185.000000
3093, 206898544.000000, 1930.250000, 8166.000000, 8222.000000, 8196.000000
3094, 206898704.000000, 1922.500000, 8174.000000, 8225.000000, 8206.000000
3095, 206898864.000000, 1906.750000, 8190.000000, 8227.000000, 8213.000000
3096, 206899024.000000, 1882.250000, 8181.000000, 8237.000000, 8223.000000
3097, 206899184.000000, 1855.500000, 8215.000000, 8243.000000, 8240.000000
3098, 206899344.000000, 1827.250000, 8203.000000, 8259.000000, 8256.000000
3099, 206899504.000000, 1803.250000, 8231.000000, 8258.000000, 8267.000000
3100, 206899664.000000, 1784.500000, 8259.000000, 8247.000000, 8267.000000
3101, 206899824.000000, 1769.500000, 8250.000000, 8229.000000, 8247.000000
3102, 206899984.000000, 1758.000000, 8217.000000, 8210.000000, 8214.000000
3103, 206900144.000000, 1750.500000, 8174.000000, 8208.000000, 8197.000000
3104, 206900304.000000, 1750.500000, 8166.000000, 8195.000000, 8189.000000
3105, 206900464.000000, 1760.500000, 8135.000000, 8194.000000, 8179.000000
3106, 206900624.000000, 1781.500000, 8121.000000, 8197.000000, 8167.000000
3107, 206900784.000000, 1805.750000, 8140.000000, 8191.000000, 8172.000000
3108, 206900944.000000, 1820.500000, 8132.000000, 8202.000000, 8181.000000
3109, 206901104.000000, 1820.500000, 8138.000000, 8201.000000, 8184.000000
3110, 206901264.000000, 1809.750000, 8143.000000, 8194.000000, 8181.000000
3111, 206901424.000000, 1793.750000, 8168.000000, 8189.000000, 8180.000000
3112, 206901584.000000, 1781.750000, 8161.000000, 8190.000000, 8177.000000
3113, 206901744.000000, 1794.750000, 8171.000000, 8190.000000, 8183.000000
3114, 206901904.000000, 1868.250000, 8171.000000, 8185.000000, 8178.000000
3115, 206902064.000000, 2003.250000, 8144.000000, 8187.000000, 8174.000000
3116, 206902224.000000, 2180.500000, 8142.000000, 8189.000000, 8171.000000
3117, 206902384.000000, 2361.500000, 8128.000000, 8191.000000, 8170.000000
3118, 206902544.000000, 2516.250000, 8150.000000, 8191.000000, 8174.000000
3119, 206902704.000000, 2620.500000, 8152.000000, 8217.000000, 8217.000000
3120, 206902864.000000, 2674.250000, 8159.000000, 8222.000000, 8233.000000
3121, 206903024.000000, 2684.500000, 8210.000000, 8210.000000, 8225.000000
3122, 206903184.000000, 2661.750000, 8172.000000, 8195.000000, 8193.000000
3123, 206903344.000000, 2622.500000, 8148.000000, 8186.000000, 8166.000000
3124, 206903504.000000, 2574.500000, 8161.000000, 8182.000000, 8167.000000
3125, 206903664.000000, 2517.000000, 8160.000000, 8176.000000, 8158.000000
3126, 206903824.000000, 2455.000000, 8206.000000, 8224.000000, 8234.000000
3127, 206903984.000000, 2397.500000, 8308.000000, 7875.000000, 7939.000000
3128, 206904144.000000, 2347.750000, 8070.000000, 8022.000000, 7950.000000
3129, 206904304.000000, 2309.500000, 8174.000000, 8212.000000, 8205.000000
3130, 206904464.000000, 2284.000000, 8175.000000, 8224.000000, 8218.000000
3131, 206904624.000000, 2267.500000, 8173.000000, 8228.000000, 8225.000000
3132, 206904784.000000, 2251.250000, 8205.000000, 8226.000000, 8234.000000
3133, 206904944.000000, 2226.000000, 8185.000000, 8241.000000, 8243.000000
3134, 206905104.000000, 2186.750000, 8212.000000, 8240.000000, 8252.000000
3135, 206905264.000000, 2126.750000, 8213.000000, 8239.000000, 8250.000000
3136, 206905424.000000, 2051.250000, 8226.000000, 8247.000000, 8263.000000
3137, 206905584.000000, 1970.250000, 8226.000000, 8258.000000, 8278.000000
3138, 206905744.000000, 1885.750000, 8257.000000, 8264.000000, 8296.000000
3139, 206905904.000000, 1808.250000, 8266.000000, 8257.000000, 8293.000000
3140, 206906064.000000, 1742.250000, 8273.000000, 8244.000000, 8283.000000
3141, 206906224.000000, 1692.250000, 8269.000000, 8217.000000, 8255.000000
3142, 206906384.000000, 1653.750000, 8188.000000, 8222.000000, 8232.000000
3143, 206906544.000000, 1622.000000, 8171.000000, 8210.000000, 8209.000000
3144, 206906704.000000, 1593.250000, 8166.000000, 8202.000000, 8196.000000
3145, 206906864.000000, 1568.250000, 8160.000000, 8194.000000, 8188.000000
3146, 206907024.000000, 1543.500000, 8155.000000, 8197.000000, 8184.000000
3147, 206907184.000000, 1516.750000, 8162.000000, 8201.000000, 8194.000000
3148, 206907344.000000, 1485.750000, 8170.000000, 8202.000000, 8197.000000
3149, 206907504.000000, 1449.000000, 8164.000000, 8205.000000, 8198.000000
3150, 206907664.000000, 1405.750000, 8164.000000, 8196.000000, 8187.000000
3151, 206907824.000000, 1364.000000, 8169.000000, 8190.000000, 8184.000000
3152, 206907984.000000, 1356.000000, 8168.000000, 8187.000000, 8184.000000
3153, 206908144.000000, 1416.500000, 8152.000000, 8196.000000, 8185.000000
3154, 206908304.000000, 1559.000000, 8147.000000, 8183.000000, 8160.000000
3155, 206908464.000000, 1739.250000, 8146.000000, 8174.000000, 8145.000000
3156, 206908624.000000, 1920.000000, 8152.000000, 8171.000000, 8142.000000
3157, 206908784.000000, 2080.000000, 8137.000000, 8177.000000, 8146.000000
3158, 206908944.000000, 2214.750000, 8160.000000, 8206.000000, 8198.000000
3159, 206909104.000000, 2320.500000, 8171.000000, 8222.000000, 8227.000000
3160, 206909264.000000, 2408.500000, 8184.000000, 8194.000000, 8180.000000
3161, 206909424.000000, 2462.750000, 8169.000000, 8167.000000, 8143.000000
3162, 206909584.000000, 2484.250000, 8163.000000, 8163.000000, 8139.000000
3163, 206909744.000000, 2485.000000, 8148.000000, 8170.000000, 8140.000000
3164, 206909904.000000, 2464.750000, 8166.000000, 8171.000000, 8143.000000
3165, 206910064.000000, 2440.500000, 8265.000000, 8175.000000, 8211.000000
3166, 206910224.000000, 2419.000000, 8306.000000, 7837.000000, 7866.000000
3167, 206910384.000000, 2402.250000, 8109.000000, 8095.000000, 8031.000000
3168, 206910544.000000, 2397.500000, 8171.000000, 8213.000000, 8202.000000
3169, 206910704.000000, 2391.750000, 8193.000000, 8216.000000, 8212.000000
3170, 206910864.000000, 2377.250000, 8179.000000, 8220.000000, 8211.000000
3171, 206911024.000000, 2354.750000, 8193.000000, 8221.000000, 8217.000000
3172, 206911184.000000, 2323.750000, 8219.000000, 8225.000000, 8234.000000
3173, 206911344.000000, 2287.750000, 8214.000000, 8235.000000, 8245.000000
3174, 206911504.000000, 2244.500000, 8227.000000, 8239.000000, 8251.000000
3175, 206911664.000000, 2198.000000, 8234.000000, 8240.000000, 8259.000000
3176, 206911824.000000, 2149.000000, 8238.000000, 8248.000000, 8266.000000
3177, 206911984.000000, 2099.000000, 8260.000000, 8247.000000, 8283.000000
3178, 206912144.000000, 2052.500000, 8274.000000, 8248.000000, 8282.000000
3179, 206912304.000000, 2003.250000, 8291.000000, 8217.000000, 8260.000000
3180, 206912464.000000, 1957.500000, 8247.000000, 8202.000000, 8228.000000
3181, 206912624.000000, 1906.500000, 8222.000000, 8191.000000, 8208.000000
3182, 206912784.000000, 1863.750000, 8179.000000, 8190.000000, 8194.000000
3183, 206912944.000000, 1824.750000, 8185.000000, 8186.000000, 8186.000000
3184, 206913104.000000, 1793.500000, 8186.000000, 8179.000000, 8178.000000
3185, 206913264.000000, 1771.750000, 8175.000000, 8184.000000, 8186.000000
3186, 206913424.000000, 1753.750000, 8184.000000, 8176.000000, 8184.000000
3187, 206913584.000000, 1728.000000, 8198.000000, 8184.000000, 8191.000000
3188, 206913744.000000, 1692.500000, 8220.000000, 8187.000000, 8199.000000
3189, 206913904.000000, 1672.500000, 8197.000000, 8177.000000, 8191.000000
3190, 206914064.000000, 1712.250000, 8207.000000, 8172.000000, 8185.000000
3191, 206914224.000000, 1849.250000, 8207.000000, 8169.000000, 8178.000000
3192, 206914384.000000, 2056.000000, 8188.000000, 8173.000000, 8177.000000
3193, 206914544.000000, 2283.000000, 8203.000000, 8176.000000, 8184.000000
3194, 206914704.000000, 2475.250000, 8215.000000, 8175.000000, 8183.000000
3195, 206914864.000000, 2610.250000, 8199.000000, 8184.000000, 8200.000000
3196, 206915024.000000, 2684.000000, 8236.000000, 8194.000000, 8228.000000
3197, 206915184.000000, 2704.750000, 8233.000000, 8204.000000, 8234.000000
3198, 206915344.000000, 2689.750000, 8228.000000, 8174.000000, 8199.000000
3199, 206915504.000000, 2649.500000, 8228.000000, 8154.000000, 8167.000000
3200, 206915664.000000, 2592.500000, 8205.000000, 8156.000000, 8160.000000
3201, 206915824.000000, 2521.750000, 8215.000000, 8154.000000, 8160.000000
3202, 206915984.000000, 2437.500000, 8249.000000, 8188.000000, 8211.000000
3203, 206916144.000000, 2354.000000, 8354.000000, 8015.000000, 8102.000000
3204, 206916304.000000, 2285.000000, 8122.000000, 7943.000000, 7904.000000
3205, 206916464.000000, 2232.500000, 8215.000000, 8144.000000, 8146.000000
3206, 206916624.000000, 2197.000000, 8220.000000, 8192.000000, 8204.000000
3207, 206916784.000000, 2173.750000, 8244.000000, 8202.000000, 8224.000000
3208, 206916944.000000, 2157.250000, 8248.000000, 8206.000000, 8230.000000
3209, 206917104.000000, 2135.500000, 8254.000000, 8204.000000, 8234.000000
3210, 206917264.000000, 2102.750000, 8261.000000, 8212.000000, 8239.000000
3211, 206917424.000000, 2051.750000, 8245.000000, 8217.000000, 8241.000000
3212, 206917584.000000, 1986.000000, 8272.000000, 8227.000000, 8263.000000
3213, 206917744.000000, 1911.750000, 8274.000000, 8237.000000, 8271.000000
3214, 206917904.000000, 1835.250000, 8309.000000, 8236.000000, 8283.000000
3215, 206918064.000000, 1758.500000, 8298.000000, 8229.000000, 8275.000000
3216, 206918224.000000, 1683.500000, 8299.000000, 8222.000000, 8264.000000
3217, 206918384.000000, 1611.000000, 8286.000000, 8204.000000, 8244.000000
3218, 206918544.000000, 1547.250000, 8222.000000, 8195.000000, 8216.000000
3219, 206918704.000000, 1493.000000, 8193.000000, 8186.000000, 8194.000000
3220, 206918864.000000, 1446.750000, 8161.000000, 8172.000000, 8157.000000
3221, 206919024.000000, 1405.750000, 8151.000000, 8161.000000, 8135.000000
3222, 206919184.000000, 1371.750000, 8140.000000, 8172.000000, 8139.000000
3223, 206919344.000000, 1338.250000, 8145.000000, 8176.000000, 8148.000000
3224, 206919504.000000, 1309.500000, 8160.000000, 8172.000000, 8146.000000
3225, 206919664.000000, 1289.500000, 8156.000000, 8172.000000, 8141.000000
3226, 206919824.000000, 1287.000000, 8158.000000, 8172.000000, 8143.000000
3227, 206919984.000000, 1321.500000, 8147.000000, 8173.000000, 8142.000000
3228, 206920144.000000, 1437.250000, 8155.000000, 8175.000000, 8150.000000
3229, 206920304.000000, 1648.500000, 8164.000000, 8169.000000, 8148.000000
3230, 206920464.000000, 1914.500000, 8152.000000, 8166.000000, 8139.000000
3231, 206920624.000000, 2183.000000, 8163.000000, 8177.000000, 8161.000000
3232, 206920784.000000, 2412.750000, 8157.000000, 8200.000000, 8188.000000
3233, 206920944.000000, 2586.250000, 8174.000000, 8215.000000, 8220.000000
3234, 206921104.000000, 2695.500000, 8189.000000, 8185.000000, 8178.000000
3235, 206921264.000000, 2748.750000, 8152.000000, 8164.000000, 8139.000000
3236, 206921424.000000, 2762.750000, 8137.000000, 8163.000000, 8136.000000
3237, 206921584.000000, 2747.500000, 8160.000000, 8162.000000, 8140.000000
3238, 206921744.000000, 2713.250000, 8147.000000, 8194.000000, 8167.000000
3239, 206921904.000000, 2663.250000, 8287.000000, 8002.000000, 8058.000000
3240, 206922064.000000, 2606.250000, 8059.000000, 7895.000000, 7822.000000
3241, 206922224.000000, 2552.250000, 8119.000000, 8157.000000, 8114.000000
3242, 206922384.000000, 2506.000000, 8151.000000, 8215.000000, 8199.000000
3243, 206922544.000000, 2470.250000, 8151.000000, 8228.000000, 8212.000000
3244, 206922704.000000, 2443.500000, 8182.000000, 8226.000000, 8215.000000
3245, 206922864.000000, 2418.500000, 8158.000000, 8234.000000, 8217.000000
3246, 206923024.000000, 2389.250000, 8190.000000, 8234.000000, 8230.000000
3247, 206923184.000000, 2348.250000, 8196.000000, 8245.000000, 8245.000000
3248, 206923344.000000, 2294.750000, 8184.000000, 8263.000000, 8257.000000
3249, 206923504.000000, 2228.000000, 8236.000000, 8254.000000, 8272.000000
3250, 206923664.000000, 2154.500000, 8237.000000, 8255.000000, 8272.000000
3251, 206923824.000000, 2082.750000, 8250.000000, 8257.000000, 8279.000000
3252, 206923984.000000, 2016.750000, 8279.000000, 8242.000000, 8279.000000
3253, 206924144.000000, 1953.250000, 8236.000000, 8235.000000, 8259.000000
3254, 206924304.000000, 1893.250000, 8194.000000, 8212.000000, 8222.000000
3255, 206924464.000000, 1837.250000, 8164.000000, 8201.000000, 8196.000000
3256, 206924624.000000, 1789.000000, 8123.000000, 8199.000000, 8180.000000
3257, 206924784.000000, 1751.500000, 8130.000000, 8204.000000, 8186.000000
3258, 206924944.000000, 1721.500000, 8145.000000, 8202.000000, 8186.000000
3259, 206925104.000000, 1696.500000, 8157.000000, 8199.000000, 8189.000000
3260, 206925264.000000, 1673.250000, 8159.000000, 8194.000000, 8189.000000
3261, 206925424.000000, 1644.250000, 8165.000000, 8192.000000, 8191.000000
3262, 206925584.000000, 1614.500000, 8159.000000, 8197.000000, 8188.000000
3263, 206925744.000000, 1616.750000, 8183.000000, 8190.000000, 8191.000000
3264, 206925904.000000, 1703.250000, 8157.000000, 8191.000000, 8187.000000
3265, 206926064.000000, 1890.750000, 8161.000000, 8184.000000, 8177.000000
3266, 206926224.000000, 2148.250000, 8164.000000, 8185.000000, 8180.000000
3267, 206926384.000000, 2411.000000, 8158.000000, 8186.000000, 8181.000000
3268, 206926544.000000, 2633.750000, 8179.000000, 8205.000000, 8213.000000
3269, 206926704.000000, 2786.000000, 8169.000000, 8226.000000, 8238.000000
3270, 206926864.000000, 2870.000000, 8200.000000, 8222.000000, 8244.000000
3271, 206927024.000000, 2888.000000, 8194.000000, 8191.000000, 8199.000000
3272, 206927184.000000, 2866.000000, 8164.000000, 8179.000000, 8170.000000
3273, 206927344.000000, 2819.250000, 8153.000000, 8184.000000, 8173.000000
3274, 206927504.000000, 2754.750000, 8155.000000, 8182.000000, 8171.000000
3275, 206927664.000000, 2675.750000, 8182.000000, 8214.000000, 8211.000000
3276, 206927824.000000, 2586.250000, 8314.000000, 7946.000000, 8018.000000
3277, 206927984.000000, 2500.250000, 8057.000000, 7958.000000, 7891.000000
3278, 206928144.000000, 2423.250000, 8145.000000, 8201.000000, 8179.000000
3279, 206928304.000000, 2359.250000, 8167.000000, 8229.000000, 8226.000000
3280, 206928464.000000, 2307.250000, 8200.000000, 8227.000000, 8231.000000
3281, 206928624.000000, 2261.500000, 8190.000000, 8232.000000, 8238.000000
3282, 206928784.000000, 2211.750000, 8180.000000, 8243.000000, 8242.000000
3283, 206928944.000000, 2156.000000, 8189.000000, 8248.000000, 8255.000000
3284, 206929104.000000, 2090.000000, 8209.000000, 8248.000000, 8256.000000
3285, 206929264.000000, 2017.500000, 8212.000000, 8250.000000, 8256.000000
3286, 206929424.000000, 1940.250000, 8208.000000, 8247.000000, 8251.000000
3287, 206929584.000000, 1864.500000, 8227.000000, 8259.000000, 8265.000000
3288, 206929744.000000, 1795.500000, 8259.000000, 8246.000000, 8262.000000
3289, 206929904.000000, 1735.500000, 8246.000000, 8235.000000, 8252.000000
3290, 206930064.000000, 1689.750000, 8229.000000, 8215.000000, 8223.000000
3291, 206930224.000000, 1651.500000, 8194.000000, 8209.000000, 8198.000000
3292, 206930384.000000, 1623.750000, 8135.000000, 8204.000000, 8177.000000
3293, 206930544.000000, 1605.500000, 8135.000000, 8197.000000, 8168.000000
3294, 206930704.000000, 1595.250000, 8139.000000, 8192.000000, 8164.000000
3295, 206930864.000000, 1586.250000, 8165.000000, 8186.000000, 8169.000000
3296, 206931024.000000, 1570.000000, 8139.000000, 8197.000000, 8169.000000
3297, 206931184.000000, 1549.250000, 8151.000000, 8199.000000, 8181.000000
3298, 206931344.000000, 1525.500000, 8149.000000, 8203.000000, 8186.000000
3299, 206931504.000000, 1512.500000, 8144.000000, 8199.000000, 8176.000000
3300, 206931664.000000, 1552.250000, 8137.000000, 8191.000000, 8170.000000
3301, 206931824.000000, 1697.500000, 8150.000000, 8192.000000, 8173.000000
3302, 206931984.000000, 1943.750000, 8153.000000, 8187.000000, 8172.000000
3303, 206932144.000000, 2254.250000, 8141.000000, 8193.000000, 8172.000000
3304, 206932304.000000, 2553.000000, 8152.000000, 8189.000000, 8170.000000
3305, 206932464.000000, 2799.250000, 8145.000000, 8183.000000, 8165.000000
3306, 206932624.000000, 2966.750000, 8152.000000, 8202.000000, 8197.000000
3307, 206932784.000000, 3061.750000, 8162.000000, 8221.000000, 8226.000000
3308, 206932944.000000, 3091.000000, 8186.000000, 8224.000000, 8235.000000
3309, 206933104.000000, 3072.500000, 8178.000000, 8195.000000, 8191.000000
3310, 206933264.000000, 3019.250000, 8164.000000, 8173.000000, 8158.000000
3311, 206933424.000000, 2946.000000, 8147.000000, 8175.000000, 8154.000000
3312, 206933584.000000, 2855.000000, 8160.000000, 8178.000000, 8162.000000
3313, 206933744.000000, 2754.250000, 8175.000000, 8216.000000, 8208.000000
3314, 206933904.000000, 2656.000000, 8322.000000, 7946.000000, 8016.000000
3315, 206934064.000000, 2574.250000, 8086.000000, 7948.000000, 7885.000000
3316, 206934224.000000, 2517.500000, 8174.000000, 8177.000000, 8162.000000
3317, 206934384.000000, 2476.750000, 8177.000000, 8218.000000, 8217.000000
3318, 206934544.000000, 2441.250000, 8178.000000, 8230.000000, 8226.000000
3319, 206934704.000000, 2397.750000, 8200.000000, 8222.000000, 8224.000000
3320, 206934864.000000, 2343.750000, 8196.000000, 8226.000000, 8228.000000
3321, 206935024.000000, 2279.750000, 8189.000000, 8236.000000, 8239.000000
3322, 206935184.000000, 2207.250000, 8221.000000, 8240.000000, 8254.000000
3323, 206935344.000000, 2125.500000, 8217.000000, 8250.000000, 8266.000000
3324, 206935504.000000, 2040.500000, 8243.000000, 8251.000000, 8272.000000
3325, 206935664.000000, 1956.500000, 8267.000000, 8239.000000, 8274.000000
3326, 206935824.000000, 1876.250000, 8292.000000, 8237.000000, 8277.000000
3327, 206935984.000000, 1802.250000, 8283.000000, 8232.000000, 8272.000000
3328, 206936144.000000, 1740.250000, 8265.000000, 8221.000000, 8255.000000
3329, 206936304.000000, 1685.250000, 8215.000000, 8208.000000, 8230.000000
3330, 206936464.000000, 1637.750000, 8170.000000, 8202.000000, 8202.000000
3331, 206936624.000000, 1598.750000, 8175.000000, 8194.000000, 8192.000000
3332, 206936784.000000, 1563.250000, 8173.000000, 8196.000000, 8196.000000
3333, 206936944.000000, 1524.000000, 8164.000000, 8197.000000, 8197.000000
3334, 206937104.000000, 1487.500000, 8177.000000, 8198.000000, 8199.000000
3335, 206937264.000000, 1451.750000, 8181.000000, 8194.000000, 8198.000000
3336, 206937424.000000, 1410.500000, 8189.000000, 8192.000000, 8199.000000
3337, 206937584.000000, 1368.500000, 8188.000000, 8199.000000, 8209.000000
3338, 206937744.000000, 1375.000000, 8179.000000, 8197.000000, 8201.000000
3339, 206937904.000000, 1475.500000, 8171.000000, 8191.000000, 8190.000000
3340, 206938064.000000, 1684.500000, 8191.000000, 8186.000000, 8190.000000
3341, 206938224.000000, 1951.500000, 8184.000000, 8186.000000, 8188.000000
3342, 206938384.000000, 2208.750000, 8185.000000, 8185.000000, 8187.000000
3343, 206938544.000000, 2413.000000, 8189.000000, 8188.000000, 8193.000000
3344, 206938704.000000, 2546.750000, 8199.000000, 8180.000000, 8188.000000
3345, 206938864.000000, 2607.750000, 8184.000000, 8184.000000, 8188.000000
3346, 206939024.000000, 2608.750000, 8196.000000, 8207.000000, 8225.000000
3347, 206939184.000000, 2574.500000, 8209.000000, 8226.000000, 8258.000000
3348, 206939344.000000, 2519.500000, 8223.000000, 8190.000000, 8204.000000
3349, 206939504.000000, 2449.500000, 8168.000000, 8165.000000, 8146.000000
3350, 206939664.000000, 2365.000000, 8174.000000, 8155.000000, 8132.000000
3351, 206939824.000000, 2274.000000, 8158.000000, 8159.000000, 8130.000000
3352, 206939984.000000, 2194.500000, 8157.000000, 8165.000000, 8133.000000
3353, 206940144.000000, 2136.000000, 8293.000000, 8134.000000, 8182.000000
3354, 206940304.000000, 2100.500000, 8181.000000, 7878.000000, 7850.000000
3355, 206940464.000000, 2081.500000, 8142.000000, 8113.000000, 8059.000000
3356, 206940624.000000, 2070.000000, 8188.000000, 8193.000000, 8178.000000
3357, 206940784.000000, 2059.250000, 8188.000000, 8212.000000, 8197.000000
3358, 206940944.000000, 2041.750000, 8189.000000, 8210.000000, 8199.000000
3359, 206941104.000000, 2019.250000, 8190.000000, 8216.000000, 8202.000000
3360, 206941264.000000, 1989.000000, 8225.000000, 8209.000000, 8212.000000
3361, 206941424.000000, 1944.000000, 8221.000000, 8224.000000, 8226.000000
3362, 206941584.000000, 1889.250000, 8220.000000, 8233.000000, 8239.000000
3363, 206941744.000000, 1830.750000, 8235.000000, 8238.000000, 8252.000000
3364, 206941904.000000, 1781.000000, 8262.000000, 8240.000000, 8264.000000
3365, 206942064.000000, 1733.500000, 8257.000000, 8239.000000, 8259.000000
3366, 206942224.000000, 1689.750000, 8275.000000, 8229.000000, 8257.000000
3367, 206942384.000000, 1649.750000, 8262.000000, 8218.000000, 8244.000000
3368, 206942544.000000, 1614.500000, 8228.000000, 8210.000000, 8223.000000
3369, 206942704.000000, 1581.250000, 8208.000000, 8184.000000, 8194.000000
3370, 206942864.000000, 1548.000000, 8185.000000, 8179.000000, 8179.000000
3371, 206943024.000000, 1520.500000, 8179.000000, 8174.000000, 8169.000000
3372, 206943184.000000, 1494.250000, 8175.000000, 8183.000000, 8177.000000
3373, 206943344.000000, 1462.500000, 8181.000000, 8184.000000, 8182.000000
3374, 206943504.000000, 1420.250000, 8172.000000, 8186.000000, 8182.000000
3375, 206943664.000000, 1370.250000, 8187.000000, 8182.000000, 8182.000000
3376, 206943824.000000, 1312.500000, 8197.000000, 8178.000000, 8180.000000
3377, 206943984.000000, 1271.250000, 8194.000000, 8182.000000, 8186.000000
3378, 206944144.000000, 1306.500000, 8196.000000, 8179.000000, 8183.000000
3379, 206944304.000000, 1455.750000, 8202.000000, 8167.000000, 8173.000000
3380, 206944464.000000, 1703.750000, 8189.000000, 8169.000000, 8170.000000
3381, 206944624.000000, 1981.500000, 8200.000000, 8169.000000, 8171.000000
3382, 206944784.000000, 2228.250000, 8176.000000, 8177.000000, 8174.000000
3383, 206944944.000000, 2403.250000, 8208.000000, 8174.000000, 8180.000000
3384, 206945104.000000, 2500.500000, 8216.000000, 8194.000000, 8221.000000
3385, 206945264.000000, 2531.500000, 8213.000000, 8212.000000, 8243.000000
3386, 206945424.000000, 2511.250000, 8236.000000, 8186.000000, 8208.000000
3387, 206945584.000000, 2463.500000, 8203.000000, 8168.000000, 8176.000000
3388, 206945744.000000, 2404.250000, 8199.000000, 8163.000000, 8165.000000
3389, 206945904.000000, 2329.000000, 8207.000000, 8156.000000, 8161.000000
3390, 206946064.000000, 2244.250000, 8202.000000, 8156.000000, 8156.000000
3391, 206946224.000000, 2155.750000, 8301.000000, 8154.000000, 8218.000000
3392, 206946384.000000, 2074.500000, 8258.000000, 7851.000000, 7874.000000
3393, 206946544.000000, 2007.750000, 8149.000000, 8098.000000, 8065.000000
3394, 206946704.000000, 1962.750000, 8211.000000, 8194.000000, 8208.000000
3395, 206946864.000000, 1938.000000, 8202.000000, 8214.000000, 8220.000000
3396, 206947024.000000, 1921.250000, 8213.000000, 8214.000000, 8229.000000
3397, 206947184.000000, 1899.500000, 8202.000000, 8230.000000, 8238.000000
3398, 206947344.000000, 1862.250000, 8221.000000, 8228.000000, 8246.000000
3399, 206947504.000000, 1807.000000, 8236.000000, 8226.000000, 8252.000000
3400, 206947664.000000, 1739.750000, 8253.000000, 8232.000000, 8260.000000
3401, 206947824.000000, 1665.500000, 8239.000000, 8247.000000, 8271.000000
3402, 206947984.000000, 1590.250000, 8273.000000, 8250.000000, 8291.000000
3403, 206948144.000000, 1512.000000, 8283.000000, 8250.000000, 8290.000000
3404, 206948304.000000, 1433.750000, 8274.000000, 8247.000000, 8285.000000
3405, 206948464.000000, 1362.000000, 8280.000000, 8223.000000, 8261.000000
3406, 206948624.000000, 1293.500000, 8246.000000, 8211.000000, 8240.000000
3407, 206948784.000000, 1231.750000, 8178.000000, 8207.000000, 8213.000000
3408, 206948944.000000, 1178.250000, 8171.000000, 8200.000000, 8199.000000
3409, 206949104.000000, 1133.250000, 8149.000000, 8196.000000, 8187.000000
3410, 206949264.000000, 1093.250000, 8140.000000, 8192.000000, 8181.000000
3411, 206949424.000000, 1055.750000, 8149.000000, 8198.000000, 8181.000000
3412, 206949584.000000, 1019.250000, 8151.000000, 8199.000000, 8183.000000
3413, 206949744.000000, 982.500000, 8143.000000, 8199.000000, 8178.000000
3414, 206949904.000000, 946.000000, 8156.000000, 8188.000000, 8169.000000
3415, 206950064.000000, 925.000000, 8182.000000, 8179.000000, 8166.000000
3416, 206950224.000000, 961.250000, 8152.000000, 8185.000000, 8162.000000
3417, 206950384.000000, 1090.250000, 8157.000000, 8183.000000, 8159.000000
3418, 206950544.000000, 1308.000000, 8155.000000, 8185.000000, 8164.000000
3419, 206950704.000000, 1563.250000, 8155.000000, 8182.000000, 8157.000000
3420, 206950864.000000, 1810.250000, 8149.000000, 8173.000000, 8148.000000
3421, 206951024.000000, 2010.250000, 8150.000000, 8179.000000, 8152.000000
3422, 206951184.000000, 2149.750000, 8169.000000, 8188.000000, 8176.000000
3423, 206951344.000000, 2226.250000, 8170.000000, 8209.000000, 8213.000000
3424, 206951504.000000, 2258.500000, 8187.000000, 8224.000000, 8236.000000
3425, 206951664.000000, 2264.250000, 8197.000000, 8190.000000, 8187.000000
3426, 206951824.000000, 2249.500000, 8143.000000, 8183.000000, 8158.000000
3427, 206951984.000000, 2217.000000, 8137.000000, 8179.000000, 8152.000000
3428, 206952144.000000, 2165.250000, 8137.000000, 8178.000000, 8149.000000
3429, 206952304.000000, 2104.250000, 8156.000000, 8175.000000, 8148.000000
3430, 206952464.000000, 2045.000000, 8284.000000, 8060.000000, 8116.000000
3431, 206952624.000000, 2001.750000, 8151.000000, 7857.000000, 7821.000000
3432, 206952784.000000, 1978.000000, 8137.000000, 8151.000000, 8112.000000
3433, 206952944.000000, 1968.000000, 8158.000000, 8220.000000, 8209.000000
3434, 206953104.000000, 1956.000000, 8154.000000, 8232.000000, 8218.000000
3435, 206953264.000000, 1931.000000, 8178.000000, 8225.000000, 8219.000000
3436, 206953424.000000, 1893.250000, 8166.000000, 8238.000000, 8230.000000
3437, 206953584.000000, 1839.000000, 8214.000000, 8237.000000, 8243.000000
3438, 206953744.000000, 1775.500000, 8181.000000, 8248.000000, 8248.000000
3439, 206953904.000000, 1711.250000, 8204.000000, 8252.000000, 8261.000000
3440, 206954064.000000, 1651.250000, 8221.000000, 8254.000000, 8268.000000
3441, 206954224.000000, 1594.500000, 8234.000000, 8256.000000, 8277.000000
3442, 206954384.000000, 1543.250000, 8238.000000, 8263.000000, 8289.000000
3443, 206954544.000000, 1495.000000, 8239.000000, 8258.000000, 8280.000000
3444, 206954704.000000, 1448.000000, 8256.000000, 8224.000000, 8256.000000
3445, 206954864.000000, 1397.000000, 8224.000000, 8211.000000, 8231.000000
3446, 206955024.000000, 1349.250000, 8169.000000, 8211.000000, 8211.000000
3447, 206955184.000000, 1306.000000, 8151.000000, 8207.000000, 8199.000000
3448, 206955344.000000, 1273.250000, 8147.000000, 8200.000000, 8191.000000
3449, 206955504.000000, 1248.250000, 8154.000000, 8199.000000, 8191.000000
3450, 206955664.000000, 1230.500000, 8168.000000, 8198.000000, 8193.000000
3451, 206955824.000000, 1216.250000, 8161.000000, 8205.000000, 8202.000000
3452, 206955984.000000, 1202.250000, 8174.000000, 8209.000000, 8208.000000
3453, 206956144.000000, 1183.000000, 8185.000000, 8195.000000, 8197.000000
3454, 206956304.000000, 1173.000000, 8179.000000, 8194.000000, 8196.000000
3455, 206956464.000000, 1219.500000, 8193.000000, 8185.000000, 8189.000000
3456, 206956624.000000, 1357.500000, 8172.000000, 8194.000000, 8192.000000
3457, 206956784.000000, 1578.500000, 8190.000000, 8191.000000, 8193.000000
3458, 206956944.000000, 1829.750000, 8164.000000, 8196.000000, 8189.000000
3459, 206957104.000000, 2061.500000, 8176.000000, 8186.000000, 8188.000000
3460, 206957264.000000, 2243.000000, 8188.000000, 8185.000000, 8187.000000
3461, 206957424.000000, 2351.250000, 8178.000000, 8191.000000, 8187.000000
3462, 206957584.000000, 2393.500000, 8181.000000, 8190.000000, 8188.000000
3463, 206957744.000000, 2380.750000, 8182.000000, 8193.000000, 8193.000000
3464, 206957904.000000, 2339.250000, 8178.000000, 8190.000000, 8188.000000
3465, 206958064.000000, 2288.500000, 8175.000000, 8188.000000, 8182.000000
3466, 206958224.000000, 2226.250000, 8185.000000, 8217.000000, 8237.000000
3467, 206958384.000000, 2153.750000, 8208.000000, 8238.000000, 8272.000000
3468, 206958544.000000, 2073.000000, 8191.000000, 8210.000000, 8218.000000
3469, 206958704.000000, 1993.750000, 8165.000000, 8188.000000, 8181.000000
3470, 206958864.000000, 1920.000000, 8177.000000, 8177.000000, 8172.000000
3471, 206959024.000000, 1855.000000, 8166.000000, 8182.000000, 8174.000000
3472, 206959184.000000, 1799.000000, 8180.000000, 8189.000000, 8176.000000
3473, 206959344.000000, 1750.750000, 8346.000000, 8085.000000, 8169.000000
3474, 206959504.000000, 1701.000000, 8155.000000, 7901.000000, 7868.000000
3475, 206959664.000000, 1648.500000, 8149.000000, 8159.000000, 8124.000000
3476, 206959824.000000, 1593.250000, 8164.000000, 8212.000000, 8199.000000
3477, 206959984.000000, 1533.000000, 8170.000000, 8219.000000, 8194.000000
3478, 206960144.000000, 1474.250000, 8178.000000, 8220.000000, 8206.000000
3479, 206960304.000000, 1424.250000, 8193.000000, 8209.000000, 8193.000000
3480, 206960464.000000, 1387.250000, 8184.000000, 8221.000000, 8203.000000
3481, 206960624.000000, 1364.000000, 8190.000000, 8229.000000, 8213.000000
3482, 206960784.000000, 1350.250000, 8196.000000, 8239.000000, 8225.000000
3483, 206960944.000000, 1343.500000, 8209.000000, 8240.000000, 8235.000000
3484, 206961104.000000, 1339.500000, 8232.000000, 8237.000000, 8239.000000
3485, 206961264.000000, 1334.500000, 8267.000000, 8230.000000, 8245.000000
3486, 206961424.000000, 1333.000000, 8249.000000, 8235.000000, 8248.000000
3487, 206961584.000000, 1330.500000, 8266.000000, 8219.000000, 8237.000000
3488, 206961744.000000, 1320.500000, 8229.000000, 8201.000000, 8207.000000
3489, 206961904.000000, 1307.250000, 8180.000000, 8191.000000, 8184.000000
3490, 206962064.000000, 1291.500000, 8166.000000, 8185.000000, 8169.000000
3491, 206962224.000000, 1274.750000, 8158.000000, 8187.000000, 8168.000000
3492, 206962384.000000, 1260.750000, 8157.000000, 8192.000000, 8176.000000
3493, 206962544.000000, 1251.750000, 8148.000000, 8195.000000, 8177.000000
3494, 206962704.000000, 1251.750000, 8159.000000, 8191.000000, 8178.000000
3495, 206962864.000000, 1248.500000, 8164.000000, 8190.000000, 8175.000000
3496, 206963024.000000, 1236.750000, 8157.000000, 8194.000000, 8182.000000
3497, 206963184.000000, 1233.250000, 8164.000000, 8194.000000, 8183.000000
3498, 206963344.000000, 1291.250000, 8185.000000, 8181.000000, 8176.000000
3499, 206963504.000000, 1452.250000, 8158.000000, 8184.000000, 8169.000000
3500, 206963664.000000, 1704.000000, 8170.000000, 8179.000000, 8168.000000
3501, 206963824.000000, 1977.500000, 8183.000000, 8177.000000, 8172.000000
3502, 206963984.000000, 2211.000000, 8184.000000, 8202.000000, 8208.000000
3503, 206964144.000000, 2374.250000, 8203.000000, 8212.000000, 8230.000000
3504, 206964304.000000, 2465.000000, 8217.000000, 8196.000000, 8208.000000
3505, 206964464.000000, 2492.500000, 8166.000000, 8182.000000, 8172.000000
3506, 206964624.000000, 2470.750000, 8189.000000, 8167.000000, 8158.000000
3507, 206964784.000000, 2419.750000, 8180.000000, 8165.000000, 8156.000000
3508, 206964944.000000, 2354.250000, 8175.000000, 8166.000000, 8154.000000
3509, 206965104.000000, 2282.500000, 8227.000000, 8233.000000, 8255.000000
3510, 206965264.000000, 2201.500000, 8334.000000, 7910.000000, 7972.000000
3511, 206965424.000000, 2119.750000, 8100.000000, 8032.000000, 7980.000000
3512, 206965584.000000, 2048.000000, 8187.000000, 8191.000000, 8181.000000
3513, 206965744.000000, 1996.250000, 8191.000000, 8209.000000, 8204.000000
3514, 206965904.000000, 1964.750000, 8182.000000, 8214.000000, 8207.000000
3515, 206966064.000000, 1944.750000, 8226.000000, 8204.000000, 8212.000000
3516, 206966224.000000, 1925.750000, 8206.000000, 8222.000000, 8226.000000
3517, 206966384.000000, 1898.250000, 8226.000000, 8222.000000, 8238.000000
3518, 206966544.000000, 1861.500000, 8241.000000, 8224.000000, 8246.000000
3519, 206966704.000000, 1814.000000, 8239.000000, 8233.000000, 8251.000000
3520, 206966864.000000, 1757.000000, 8260.000000, 8235.000000, 8261.000000
3521, 206967024.000000, 1698.000000, 8297.000000, 8233.000000, 8272.000000
3522, 206967184.000000, 1635.500000, 8259.000000, 8238.000000, 8268.000000
3523, 206967344.000000, 1569.500000, 8275.000000, 8217.000000, 8251.000000
3524, 206967504.000000, 1505.750000, 8247.000000, 8199.000000, 8225.000000
3525, 206967664.000000, 1449.250000, 8183.000000, 8199.000000, 8206.000000
3526, 206967824.000000, 1398.250000, 8147.000000, 8202.000000, 8193.000000
3527, 206967984.000000, 1351.500000, 8160.000000, 8193.000000, 8185.000000
3528, 206968144.000000, 1312.250000, 8134.000000, 8199.000000, 8184.000000
3529, 206968304.000000, 1278.250000, 8148.000000, 8193.000000, 8179.000000
3530, 206968464.000000, 1249.250000, 8170.000000, 8195.000000, 8190.000000
3531, 206968624.000000, 1221.000000, 8158.000000, 8208.000000, 8203.000000
3532, 206968784.000000, 1189.500000, 8159.000000, 8202.000000, 8195.000000
3533, 206968944.000000, 1152.750000, 8152.000000, 8199.000000, 8192.000000
3534, 206969104.000000, 1122.250000, 8139.000000, 8196.000000, 8182.000000
3535, 206969264.000000, 1136.250000, 8154.000000, 8192.000000, 8180.000000
3536, 206969424.000000, 1228.000000, 8148.000000, 8194.000000, 8182.000000
3537, 206969584.000000, 1389.750000, 8144.000000, 8195.000000, 8184.000000
3538, 206969744.000000, 1575.750000, 8150.000000, 8193.000000, 8182.000000
3539, 206969904.000000, 1735.250000, 8162.000000, 8211.000000, 8216.000000
3540, 206970064.000000, 1841.250000, 8186.000000, 8231.000000, 8254.000000
3541, 206970224.000000, 1891.250000, 8160.000000, 8213.000000, 8205.000000
3542, 206970384.000000, 1895.500000, 8141.000000, 8183.000000, 8156.000000
3543, 206970544.000000, 1869.500000, 8126.000000, 8172.000000, 8135.000000
3544, 206970704.000000, 1832.000000, 8131.000000, 8167.000000, 8126.000000
3545, 206970864.000000, 1791.250000, 8133.000000, 8161.000000, 8123.000000
3546, 206971024.000000, 1749.000000, 8219.000000, 8164.000000, 8173.000000
3547, 206971184.000000, 1709.000000, 8220.000000, 7828.000000, 7816.000000
3548, 206971344.000000, 1670.750000, 8087.000000, 8101.000000, 8022.000000
3549, 206971504.000000, 1646.750000, 8146.000000, 8209.000000, 8180.000000
3550, 206971664.000000, 1637.000000, 8147.000000, 8227.000000, 8198.000000
3551, 206971824.000000, 1642.000000, 8154.000000, 8228.000000, 8204.000000
3552, 206971984.000000, 1652.250000, 8172.000000, 8237.000000, 8217.000000
3553, 206972144.000000, 1660.750000, 8174.000000, 8237.000000, 8224.000000
3554, 206972304.000000, 1659.000000, 8193.000000, 8233.000000, 8227.000000
3555, 206972464.000000, 1642.250000, 8189.000000, 8248.000000, 8241.000000
3556, 206972624.000000, 1617.250000, 8229.000000, 8251.000000, 8263.000000
3557, 206972784.000000, 1588.000000, 8229.000000, 8261.000000, 8271.000000
3558, 206972944.000000, 1559.000000, 8222.000000, 8266.000000, 8279.000000
3559, 206973104.000000, 1529.000000, 8246.000000, 8242.000000, 8263.000000
3560, 206973264.000000, 1502.500000, 8228.000000, 8236.000000, 8253.000000
3561, 206973424.000000, 1476.750000, 8215.000000, 8219.000000, 8231.000000
3562, 206973584.000000, 1448.500000, 8164.000000, 8209.000000, 8204.000000
3563, 206973744.000000, 1421.000000, 8157.000000, 8199.000000, 8187.000000
3564, 206973904.000000, 1394.250000, 8139.000000, 8193.000000, 8175.000000
