1330, 210366648.000000, 2701.625000, 8176.500000, 8179.500000, 8167.500000
1331, 210366808.000000, 3003.125000, 8183.000000, 8193.000000, 8203.000000
1332, 210366968.000000, 3175.750000, 8202.500000, 8204.000000, 8222.000000
1333, 210367128.000000, 3221.625000, 8208.500000, 8213.000000, 8229.000000
1334, 210367288.000000, 3181.500000, 8201.500000, 8180.000000, 8185.000000
1335, 210367448.000000, 3082.375000, 8174.500000, 8167.500000, 8157.000000
1336, 210367608.000000, 2953.000000, 8180.500000, 8162.000000, 8150.500000
1337, 210367768.000000, 2805.125000, 8192.500000, 8161.000000, 8153.000000
1338, 210367928.000000, 2655.375000, 8226.000000, 8225.500000, 8246.000000
1339, 210368088.000000, 2524.125000, 8321.500000, 7875.500000, 7934.000000
1340, 210368248.000000, 2425.375000, 8108.500000, 7996.500000, 7939.000000
1341, 210368408.000000, 2359.500000, 8187.500000, 8192.000000, 8187.500000
1342, 210368568.000000, 2318.750000, 8213.000000, 8209.500000, 8215.500000
1343, 210368728.000000, 2291.250000, 8191.500000, 8221.500000, 8218.500000
1344, 210368888.000000, 2263.500000, 8225.000000, 8219.500000, 8225.500000
1345, 210369048.000000, 2226.500000, 8210.000000, 8228.000000, 8232.000000
1346, 210369208.000000, 2165.500000, 8210.000000, 8240.500000, 8244.500000
1347, 210369368.000000, 2081.500000, 8247.500000, 8246.000000, 8271.000000
1348, 210369528.000000, 1987.875000, 8254.000000, 8253.000000, 8278.500000
1349, 210369688.000000, 1888.625000, 8265.500000, 8260.500000, 8289.500000
1350, 210369848.000000, 1785.250000, 8287.000000, 8249.500000, 8289.500000
1351, 210370008.000000, 1680.625000, 8253.000000, 8256.000000, 8282.500000
1352, 210370168.000000, 1584.500000, 8241.500000, 8223.500000, 8240.500000
1353, 210370328.000000, 1505.250000, 8209.500000, 8197.500000, 8216.000000
1354, 210370488.000000, 1444.875000, 8195.500000, 8181.500000, 8183.000000
1355, 210370648.000000, 1392.875000, 8200.500000, 8168.500000, 8159.500000
1356, 210370808.000000, 1348.125000, 8165.000000, 8182.500000, 8170.000000
1357, 210370968.000000, 1308.375000, 8188.500000, 8174.500000, 8184.000000
1358, 210371128.000000, 1266.625000, 8169.000000, 8185.000000, 8187.000000
1359, 210371288.000000, 1231.875000, 8191.000000, 8185.000000, 8182.500000
1360, 210371448.000000, 1203.500000, 8192.500000, 8184.500000, 8188.000000
1361, 210371608.000000, 1164.625000, 8180.500000, 8185.000000, 8192.000000
1362, 210371768.000000, 1116.625000, 8186.500000, 8183.000000, 8186.500000
1363, 210371928.000000, 1074.625000, 8179.000000, 8179.500000, 8173.000000
1364, 210372088.000000, 1129.500000, 8195.000000, 8167.500000, 8170.500000
1365, 210372248.000000, 1410.500000, 8176.500000, 8173.500000, 8177.000000
1366, 210372408.000000, 1807.625000, 8178.000000, 8173.500000, 8167.500000
1367, 210372568.000000, 2239.875000, 8189.000000, 8169.500000, 8158.000000
1368, 210372728.000000, 2670.250000, 8199.500000, 8167.000000, 8178.000000
1369, 210372888.000000, 2936.375000, 8213.000000, 8193.000000, 8216.000000
1370, 210373048.000000, 3065.750000, 8177.000000, 8182.500000, 8169.000000
1371, 210373208.000000, 3074.375000, 8143.500000, 8161.000000, 8089.000000
1372, 210373368.000000, 3014.750000, 8127.500000, 8114.000000, 7997.500000
1373, 210373528.000000, 2889.625000, 8082.500000, 8090.500000, 7949.000000
1374, 210373688.000000, 2727.375000, 8061.000000, 8085.500000, 7933.500000
1375, 210373848.000000, 2577.250000, 8084.000000, 8088.000000, 7950.500000
1376, 210374008.000000, 2444.125000, 8122.000000, 8128.000000, 8011.500000
1377, 210374168.000000, 2342.000000, 8242.500000, 7901.000000, 7843.000000
1378, 210374328.000000, 2281.250000, 7987.500000, 7875.500000, 7698.500000
1379, 210374488.000000, 2260.625000, 8112.500000, 8106.500000, 7992.000000
1380, 210374648.000000, 2267.250000, 8127.500000, 8149.500000, 8051.500000
1381, 210374808.000000, 2284.250000, 8137.000000, 8161.500000, 8076.500000
1382, 210374968.000000, 2291.125000, 8144.000000, 8165.500000, 8070.500000
1383, 210375128.000000, 2274.375000, 8156.500000, 8166.500000, 8090.500000
1384, 210375288.000000, 2221.250000, 8187.000000, 8178.000000, 8122.000000
1385, 210375448.000000, 2137.375000, 8172.500000, 8198.500000, 8136.000000
1386, 210375608.000000, 2037.125000, 8208.500000, 8198.500000, 8152.000000
1387, 210375768.000000, 1931.625000, 8219.000000, 8214.000000, 8179.500000
1388, 210375928.000000, 1830.875000, 8259.500000, 8202.000000, 8182.500000
1389, 210376088.000000, 1734.750000, 8223.500000, 8210.500000, 8182.500000
1390, 210376248.000000, 1640.625000, 8237.000000, 8186.500000, 8168.000000
1391, 210376408.000000, 1554.000000, 8175.000000, 8175.500000, 8137.500000
1392, 210376568.000000, 1477.625000, 8174.000000, 8162.000000, 8131.000000
1393, 210376728.000000, 1407.500000, 8149.500000, 8164.000000, 8123.000000
1394, 210376888.000000, 1338.375000, 8133.500000, 8154.500000, 8102.500000
1395, 210377048.000000, 1274.625000, 8153.500000, 8165.000000, 8133.500000
1396, 210377208.000000, 1219.500000, 8151.500000, 8168.500000, 8139.500000
1397, 210377368.000000, 1174.375000, 8159.000000, 8171.000000, 8144.000000
1398, 210377528.000000, 1137.000000, 8145.000000, 8168.500000, 8138.500000
1399, 210377688.000000, 1093.250000, 8170.500000, 8163.000000, 8135.000000
1400, 210377848.000000, 1057.375000, 8170.500000, 8164.500000, 8142.500000
1401, 210378008.000000, 1083.375000, 8166.500000, 8164.500000, 8148.500000
1402, 210378168.000000, 1253.875000, 8166.500000, 8163.500000, 8138.500000
1403, 210378328.000000, 1591.875000, 8174.500000, 8153.000000, 8138.500000
1404, 210378488.000000, 2029.375000, 8154.000000, 8154.500000, 8128.500000
1405, 210378648.000000, 2461.375000, 8198.000000, 8164.000000, 8173.000000
1406, 210378808.000000, 2815.500000, 8226.000000, 8182.000000, 8232.500000
1407, 210378968.000000, 3047.375000, 8215.500000, 8191.000000, 8247.000000
1408, 210379128.000000, 3155.500000, 8225.000000, 8192.500000, 8250.500000
1409, 210379288.000000, 3172.000000, 8245.000000, 8193.500000, 8271.500000
1410, 210379448.000000, 3133.625000, 8233.500000, 8220.500000, 8299.000000
1411, 210379608.000000, 3065.750000, 8248.500000, 8244.500000, 8333.000000
1412, 210379768.000000, 2985.250000, 8279.000000, 8213.000000, 8303.000000
1413, 210379928.000000, 2897.625000, 8237.500000, 8212.000000, 8273.000000
1414, 210380088.000000, 2829.875000, 8204.500000, 8208.500000, 8256.500000
1415, 210380248.000000, 2797.875000, 8226.000000, 8216.500000, 8272.000000
1416, 210380408.000000, 2811.500000, 8215.000000, 8201.500000, 8247.500000
1417, 210380568.000000, 2859.000000, 8324.500000, 8233.000000, 8337.500000
1418, 210380728.000000, 2922.750000, 8324.500000, 7918.500000, 8009.000000
1419, 210380888.000000, 2971.875000, 8168.500000, 8110.500000, 8116.000000
1420, 210381048.000000, 2981.500000, 8209.500000, 8221.000000, 8272.000000
1421, 210381208.000000, 2938.625000, 8216.000000, 8229.500000, 8280.500000
1422, 210381368.000000, 2863.250000, 8229.500000, 8232.500000, 8280.500000
1423, 210381528.000000, 2775.875000, 8247.000000, 8227.000000, 8284.000000
1424, 210381688.000000, 2683.750000, 8253.000000, 8231.500000, 8292.000000
1425, 210381848.000000, 2563.625000, 8264.500000, 8238.500000, 8302.500000
1426, 210382008.000000, 2404.500000, 8285.000000, 8244.500000, 8308.500000
1427, 210382168.000000, 2226.000000, 8282.000000, 8245.500000, 8312.500000
1428, 210382328.000000, 2052.375000, 8309.000000, 8247.000000, 8319.000000
1429, 210382488.000000, 1896.250000, 8321.000000, 8246.500000, 8325.500000
1430, 210382648.000000, 1762.250000, 8311.500000, 8233.500000, 8312.000000
1431, 210382808.000000, 1651.375000, 8303.500000, 8216.500000, 8291.000000
1432, 210382968.000000, 1568.625000, 8234.500000, 8202.500000, 8249.500000
1433, 210383128.000000, 1505.125000, 8201.000000, 8207.500000, 8233.500000
1434, 210383288.000000, 1457.125000, 8161.000000, 8208.500000, 8224.500000
1435, 210383448.000000, 1429.750000, 8168.000000, 8208.500000, 8220.500000
1436, 210383608.000000, 1423.000000, 8153.000000, 8215.000000, 8214.000000
1437, 210383768.000000, 1429.125000, 8118.000000, 8220.000000, 8210.000000
1438, 210383928.000000, 1437.625000, 8117.500000, 8223.000000, 8209.000000
1439, 210384088.000000, 1442.375000, 8115.500000, 8225.500000, 8209.000000
1440, 210384248.000000, 1444.875000, 8106.000000, 8229.500000, 8208.500000
1441, 210384408.000000, 1470.500000, 8129.000000, 8222.500000, 8204.500000
1442, 210384568.000000, 1591.750000, 8136.500000, 8219.500000, 8203.000000
1443, 210384728.000000, 1882.750000, 8136.000000, 8216.000000, 8194.000000
1444, 210384888.000000, 2307.375000, 8126.000000, 8214.000000, 8189.500000
1445, 210385048.000000, 2735.750000, 8139.500000, 8208.000000, 8188.000000
1446, 210385208.000000, 3046.625000, 8143.500000, 8204.500000, 8186.500000
1447, 210385368.000000, 3196.875000, 8156.000000, 8200.500000, 8184.000000
1448, 210385528.000000, 3223.375000, 8172.000000, 8202.500000, 8193.500000
1449, 210385688.000000, 3179.125000, 8166.500000, 8222.000000, 8217.500000
1450, 210385848.000000, 3096.500000, 8185.500000, 8235.000000, 8247.500000
1451, 210386008.000000, 2999.375000, 8216.000000, 8229.000000, 8243.000000
1452, 210386168.000000, 2899.250000, 8199.500000, 8203.000000, 8207.000000
1453, 210386328.000000, 2780.250000, 8187.000000, 8183.000000, 8174.000000
1454, 210386488.000000, 2651.500000, 8179.500000, 8183.000000, 8171.000000
1455, 210386648.000000, 2535.000000, 8187.500000, 8187.500000, 8178.500000
1456, 210386808.000000, 2454.250000, 8219.000000, 8236.000000, 8255.000000
1457, 210386968.000000, 2415.750000, 8388.500000, 7903.500000, 7988.500000
1458, 210387128.000000, 2414.500000, 8108.500000, 8032.500000, 7975.000000
1459, 210387288.000000, 2436.000000, 8183.500000, 8211.500000, 8208.000000
1460, 210387448.000000, 2451.500000, 8207.500000, 8231.000000, 8234.500000
1461, 210387608.000000, 2446.750000, 8195.000000, 8237.500000, 8239.500000
1462, 210387768.000000, 2418.875000, 8217.500000, 8236.000000, 8243.000000
1463, 210387928.000000, 2365.875000, 8235.000000, 8230.500000, 8249.000000
1464, 210388088.000000, 2289.250000, 8233.500000, 8237.500000, 8256.000000
1465, 210388248.000000, 2190.500000, 8241.500000, 8252.000000, 8278.000000
1466, 210388408.000000, 2071.250000, 8260.000000, 8254.500000, 8285.000000
1467, 210388568.000000, 1938.375000, 8294.000000, 8250.000000, 8296.000000
1468, 210388728.000000, 1803.500000, 8292.500000, 8256.000000, 8298.000000
1469, 210388888.000000, 1685.250000, 8279.000000, 8247.500000, 8291.500000
1470, 210389048.000000, 1595.000000, 8268.500000, 8234.000000, 8273.000000
1471, 210389208.000000, 1528.750000, 8227.000000, 8211.500000, 8236.000000
1472, 210389368.000000, 1473.750000, 8180.500000, 8197.500000, 8199.000000
1473, 210389528.000000, 1418.750000, 8166.500000, 8195.000000, 8190.000000
1474, 210389688.000000, 1363.750000, 8175.500000, 8192.000000, 8190.000000
1475, 210389848.000000, 1312.875000, 8185.000000, 8188.500000, 8192.500000
1476, 210390008.000000, 1268.125000, 8173.500000, 8191.500000, 8188.500000
1477, 210390168.000000, 1230.750000, 8169.500000, 8194.500000, 8192.500000
1478, 210390328.000000, 1194.875000, 8183.000000, 8191.000000, 8192.000000
1479, 210390488.000000, 1151.500000, 8164.000000, 8196.500000, 8197.000000
1480, 210390648.000000, 1108.750000, 8170.000000, 8191.000000, 8192.000000
1481, 210390808.000000, 1131.125000, 8188.000000, 8182.500000, 8190.000000
1482, 210390968.000000, 1308.250000, 8176.000000, 8183.000000, 8184.500000
1483, 210391128.000000, 1665.250000, 8182.500000, 8181.000000, 8177.000000
1484, 210391288.000000, 2126.125000, 8193.000000, 8176.000000, 8184.000000
1485, 210391448.000000, 2581.750000, 8193.500000, 8173.500000, 8179.500000
1486, 210391608.000000, 2956.500000, 8179.000000, 8185.000000, 8192.000000
1487, 210391768.000000, 3206.625000, 8178.500000, 8191.000000, 8203.000000
1488, 210391928.000000, 3322.500000, 8197.000000, 8200.500000, 8220.000000
1489, 210392088.000000, 3327.875000, 8200.500000, 8170.500000, 8188.000000
1490, 210392248.000000, 3253.625000, 8150.500000, 8156.500000, 8150.500000
1491, 210392408.000000, 3129.500000, 8152.500000, 8150.500000, 8143.500000
1492, 210392568.000000, 2967.625000, 8167.000000, 8145.500000, 8140.500000
1493, 210392728.000000, 2778.750000, 8190.000000, 8155.500000, 8155.000000
1494, 210392888.000000, 2583.625000, 8338.500000, 8035.000000, 8115.000000
1495, 210393048.000000, 2404.625000, 8080.500000, 7911.000000, 7865.000000
1496, 210393208.000000, 2257.625000, 8174.000000, 8121.000000, 8100.500000
1497, 210393368.000000, 2146.750000, 8170.500000, 8177.000000, 8168.000000
1498, 210393528.000000, 2058.250000, 8182.500000, 8184.500000, 8180.500000
1499, 210393688.000000, 1979.750000, 8197.000000, 8188.500000, 8192.000000
1500, 210393848.000000, 1904.750000, 8203.000000, 8199.500000, 8204.500000
1501, 210394008.000000, 1827.625000, 8208.000000, 8203.000000, 8214.000000
1502, 210394168.000000, 1742.375000, 8232.500000, 8213.500000, 8231.500000
1503, 210394328.000000, 1655.875000, 8243.000000, 8227.500000, 8244.500000
1504, 210394488.000000, 1569.250000, 8257.500000, 8234.500000, 8266.000000
1505, 210394648.000000, 1485.625000, 8273.000000, 8236.000000, 8273.000000
1506, 210394808.000000, 1405.000000, 8274.000000, 8234.000000, 8267.500000
1507, 210394968.000000, 1327.750000, 8287.500000, 8215.000000, 8257.500000
1508, 210395128.000000, 1252.750000, 8207.000000, 8210.500000, 8222.500000
1509, 210395288.000000, 1176.375000, 8184.000000, 8196.500000, 8199.000000
1510, 210395448.000000, 1098.000000, 8134.500000, 8195.500000, 8178.500000
1511, 210395608.000000, 1023.875000, 8144.500000, 8188.500000, 8165.500000
1512, 210395768.000000, 969.250000, 8123.500000, 8184.500000, 8148.500000
1513, 210395928.000000, 933.875000, 8119.500000, 8190.500000, 8162.500000
1514, 210396088.000000, 911.000000, 8130.000000, 8199.500000, 8170.500000
1515, 210396248.000000, 902.625000, 8141.000000, 8202.500000, 8180.000000
1516, 210396408.000000, 896.500000, 8143.500000, 8198.500000, 8177.500000
1517, 210396568.000000, 878.000000, 8149.500000, 8200.500000, 8178.500000
1518, 210396728.000000, 883.125000, 8156.000000, 8195.500000, 8178.000000
1519, 210396888.000000, 1011.500000, 8134.000000, 8197.500000, 8177.000000
1520, 210397048.000000, 1331.750000, 8153.500000, 8200.000000, 8177.500000
1521, 210397208.000000, 1780.375000, 8158.000000, 8189.000000, 8173.500000
1522, 210397368.000000, 2257.625000, 8139.000000, 8189.500000, 8168.500000
1523, 210397528.000000, 2665.750000, 8158.000000, 8193.000000, 8168.500000
1524, 210397688.000000, 2956.875000, 8168.500000, 8195.500000, 8182.000000
1525, 210397848.000000, 3106.125000, 8152.000000, 8196.000000, 8176.000000
1526, 210398008.000000, 3144.000000, 8163.000000, 8192.500000, 8177.500000
1527, 210398168.000000, 3103.500000, 8165.500000, 8191.000000, 8182.500000
1528, 210398328.000000, 3017.875000, 8180.500000, 8209.500000, 8220.500000
1529, 210398488.000000, 2909.000000, 8193.000000, 8237.500000, 8253.000000
1530, 210398648.000000, 2783.500000, 8197.500000, 8207.000000, 8212.500000
1531, 210398808.000000, 2641.875000, 8165.500000, 8183.000000, 8175.000000
1532, 210398968.000000, 2498.000000, 8182.500000, 8177.000000, 8164.000000
1533, 210399128.000000, 2374.875000, 8154.500000, 8181.500000, 8163.000000
1534, 210399288.000000, 2282.875000, 8166.500000, 8186.500000, 8166.500000
1535, 210399448.000000, 2229.375000, 8307.500000, 8086.000000, 8149.000000
1536, 210399608.000000, 2205.625000, 8139.500000, 7891.000000, 7858.500000
1537, 210399768.000000, 2206.750000, 8139.500000, 8142.500000, 8106.000000
1538, 210399928.000000, 2205.375000, 8188.000000, 8219.500000, 8220.500000
1539, 210400088.000000, 2168.625000, 8187.000000, 8231.500000, 8233.000000
1540, 210400248.000000, 2084.250000, 8211.000000, 8233.500000, 8237.500000
1541, 210400408.000000, 1950.875000, 8190.500000, 8242.000000, 8245.000000
1542, 210400568.000000, 1801.500000, 8216.500000, 8238.500000, 8254.500000
1543, 210400728.000000, 1659.125000, 8216.500000, 8252.000000, 8267.500000
1544, 210400888.000000, 1534.875000, 8237.500000, 8261.500000, 8281.500000
1545, 210401048.000000, 1429.375000, 8243.500000, 8270.000000, 8299.500000
1546, 210401208.000000, 1336.500000, 8250.000000, 8272.500000, 8308.000000
1547, 210401368.000000, 1251.000000, 8283.000000, 8269.000000, 8313.500000
1548, 210401528.000000, 1172.875000, 8259.500000, 8261.000000, 8300.000000
1549, 210401688.000000, 1103.500000, 8257.500000, 8235.000000, 8273.500000
1550, 210401848.000000, 1037.125000, 8200.500000, 8212.500000, 8229.000000
1551, 210402008.000000, 977.375000, 8166.000000, 8197.500000, 8196.500000
1552, 210402168.000000, 925.375000, 8174.500000, 8183.000000, 8180.000000
1553, 210402328.000000, 883.375000, 8171.000000, 8183.500000, 8181.500000
1554, 210402488.000000, 846.750000, 8155.000000, 8187.500000, 8182.000000
1555, 210402648.000000, 813.125000, 8164.500000, 8182.000000, 8185.500000
1556, 210402808.000000, 782.625000, 8176.500000, 8183.000000, 8181.500000
1557, 210402968.000000, 745.625000, 8163.500000, 8179.500000, 8179.500000
1558, 210403128.000000, 704.750000, 8171.500000, 8177.000000, 8178.000000
1559, 210403288.000000, 705.625000, 8162.000000, 8182.000000, 8174.500000
1560, 210403448.000000, 851.250000, 8178.500000, 8166.500000, 8167.500000
1561, 210403608.000000, 1204.250000, 8158.500000, 8163.000000, 8150.000000
1562, 210403768.000000, 1732.875000, 8148.500000, 8166.500000, 8144.000000
1563, 210403928.000000, 2304.125000, 8189.000000, 8167.000000, 8160.000000
1564, 210404088.000000, 2808.875000, 8173.500000, 8200.000000, 8204.500000
1565, 210404248.000000, 3169.375000, 8194.500000, 8201.500000, 8216.500000
1566, 210404408.000000, 3377.625000, 8173.500000, 8205.500000, 8217.500000
1567, 210404568.000000, 3444.375000, 8196.000000, 8216.500000, 8243.000000
1568, 210404728.000000, 3408.125000, 8206.000000, 8242.000000, 8282.000000
1569, 210404888.000000, 3322.000000, 8218.000000, 8258.000000, 8304.000000
1570, 210405048.000000, 3218.250000, 8221.000000, 8222.000000, 8258.000000
1571, 210405208.000000, 3105.625000, 8216.000000, 8198.500000, 8218.500000
1572, 210405368.000000, 2976.750000, 8185.500000, 8197.000000, 8209.500000
1573, 210405528.000000, 2836.375000, 8192.500000, 8200.000000, 8211.500000
1574, 210405688.000000, 2701.500000, 8199.500000, 8230.000000, 8242.000000
1575, 210405848.000000, 2590.125000, 8367.000000, 7994.000000, 8093.000000
1576, 210406008.000000, 2520.625000, 8069.000000, 7970.500000, 7920.000000
1577, 210406168.000000, 2492.250000, 8182.500000, 8203.500000, 8204.500000
1578, 210406328.000000, 2497.500000, 8171.500000, 8257.500000, 8263.000000
1579, 210406488.000000, 2507.000000, 8187.000000, 8260.000000, 8273.500000
1580, 210406648.000000, 2495.125000, 8180.500000, 8266.000000, 8274.500000
1581, 210406808.000000, 2448.000000, 8181.000000, 8268.000000, 8278.500000
1582, 210406968.000000, 2375.125000, 8207.500000, 8258.000000, 8259.500000
1583, 210407128.000000, 2290.250000, 8167.500000, 8265.000000, 8237.000000
1584, 210407288.000000, 2202.500000, 8215.000000, 8264.500000, 8254.500000
1585, 210407448.000000, 2114.250000, 8206.500000, 8277.000000, 8267.000000
1586, 210407608.000000, 2026.500000, 8234.500000, 8282.500000, 8281.000000
1587, 210407768.000000, 1940.250000, 8235.500000, 8279.000000, 8283.000000
1588, 210407928.000000, 1854.375000, 8229.500000, 8265.000000, 8272.000000
1589, 210408088.000000, 1761.750000, 8222.000000, 8242.000000, 8242.000000
1590, 210408248.000000, 1664.875000, 8145.000000, 8229.500000, 8202.500000
1591, 210408408.000000, 1564.000000, 8163.000000, 8206.500000, 8181.500000
1592, 210408568.000000, 1465.875000, 8137.500000, 8205.000000, 8168.000000
1593, 210408728.000000, 1375.250000, 8141.000000, 8207.500000, 8179.500000
1594, 210408888.000000, 1293.875000, 8142.000000, 8214.500000, 8180.500000
1595, 210409048.000000, 1220.875000, 8154.000000, 8208.500000, 8182.500000
1596, 210409208.000000, 1154.250000, 8137.500000, 8207.000000, 8182.000000
1597, 210409368.000000, 1087.500000, 8155.500000, 8209.000000, 8180.000000
1598, 210409528.000000, 1021.000000, 8167.000000, 8202.000000, 8180.500000
1599, 210409688.000000, 993.750000, 8167.000000, 8202.000000, 8188.500000
1600, 210409848.000000, 1102.250000, 8152.000000, 8202.500000, 8181.500000
1601, 210410008.000000, 1400.500000, 8167.500000, 8196.000000, 8177.000000
1602, 210410168.000000, 1862.250000, 8183.000000, 8192.500000, 8179.000000
1603, 210410328.000000, 2370.875000, 8171.000000, 8204.500000, 8189.000000
1604, 210410488.000000, 2827.875000, 8173.000000, 8214.000000, 8200.500000
1605, 210410648.000000, 3159.000000, 8164.000000, 8211.500000, 8200.000000
1606, 210410808.000000, 3351.125000, 8176.500000, 8209.000000, 8200.000000
1607, 210410968.000000, 3410.750000, 8205.000000, 8233.000000, 8250.500000
1608, 210411128.000000, 3381.625000, 8222.500000, 8250.500000, 8283.000000
1609, 210411288.000000, 3301.625000, 8209.000000, 8226.500000, 8235.000000
1610, 210411448.000000, 3186.250000, 8180.500000, 8200.500000, 8195.500000
1611, 210411608.000000, 3046.500000, 8185.000000, 8192.500000, 8186.500000
1612, 210411768.000000, 2891.000000, 8187.500000, 8189.000000, 8181.500000
1613, 210411928.000000, 2730.375000, 8187.000000, 8194.000000, 8185.000000
1614, 210412088.000000, 2578.375000, 8336.000000, 8103.000000, 8184.000000
1615, 210412248.000000, 2442.875000, 8159.500000, 7907.500000, 7884.000000
1616, 210412408.000000, 2322.750000, 8153.000000, 8159.000000, 8134.000000
1617, 210412568.000000, 2215.250000, 8194.500000, 8224.500000, 8230.500000
1618, 210412728.000000, 2112.125000, 8212.500000, 8233.000000, 8241.500000
1619, 210412888.000000, 1998.625000, 8197.000000, 8239.500000, 8250.000000
1620, 210413048.000000, 1868.750000, 8213.000000, 8233.000000, 8244.000000
1621, 210413208.000000, 1725.625000, 8216.500000, 8237.500000, 8252.000000
1622, 210413368.000000, 1580.375000, 8247.000000, 8243.000000, 8267.000000
1623, 210413528.000000, 1436.625000, 8246.000000, 8249.000000, 8275.000000
1624, 210413688.000000, 1296.875000, 8271.000000, 8255.500000, 8289.000000
1625, 210413848.000000, 1165.625000, 8294.500000, 8246.500000, 8290.000000
1626, 210414008.000000, 1051.375000, 8284.000000, 8245.500000, 8285.000000
1627, 210414168.000000, 954.500000, 8285.000000, 8232.500000, 8273.500000
1628, 210414328.000000, 872.750000, 8240.000000, 8212.500000, 8236.500000
1629, 210414488.000000, 798.125000, 8210.000000, 8186.500000, 8192.500000
1630, 210414648.000000, 728.375000, 8185.000000, 8179.500000, 8182.000000
1631, 210414808.000000, 666.375000, 8196.500000, 8181.000000, 8191.000000
1632, 210414968.000000, 610.625000, 8218.500000, 8182.000000, 8200.000000
1633, 210415128.000000, 561.875000, 8201.000000, 8190.000000, 8209.000000
1634, 210415288.000000, 515.250000, 8189.500000, 8197.500000, 8207.500000
1635, 210415448.000000, 470.250000, 8195.000000, 8193.500000, 8203.500000
1636, 210415608.000000, 429.000000, 8216.000000, 8183.500000, 8202.500000
1637, 210415768.000000, 382.500000, 8204.500000, 8188.500000, 8201.000000
1638, 210415928.000000, 345.000000, 8223.000000, 8182.000000, 8200.000000
1639, 210416088.000000, 385.375000, 8185.500000, 8186.000000, 8195.500000
1640, 210416248.000000, 611.625000, 8187.000000, 8186.000000, 8186.000000
1641, 210416408.000000, 1044.125000, 8201.500000, 8178.000000, 8182.500000
1642, 210416568.000000, 1607.750000, 8174.000000, 8188.000000, 8185.500000
1643, 210416728.000000, 2163.875000, 8201.500000, 8207.500000, 8227.000000
1644, 210416888.000000, 2617.000000, 8252.000000, 8221.000000, 8265.000000
1645, 210417048.000000, 2902.750000, 8199.500000, 8201.500000, 8214.500000
1646, 210417208.000000, 3037.125000, 8165.000000, 8179.500000, 8168.500000
1647, 210417368.000000, 3045.250000, 8180.500000, 8167.500000, 8157.000000
1648, 210417528.000000, 2968.875000, 8178.500000, 8168.500000, 8163.000000
1649, 210417688.000000, 2849.375000, 8161.500000, 8180.500000, 8163.500000
1650, 210417848.000000, 2705.500000, 8281.500000, 8148.500000, 8198.000000
1651, 210418008.000000, 2540.125000, 8189.000000, 7849.500000, 7818.000000
1652, 210418168.000000, 2367.625000, 8107.000000, 8102.500000, 8024.000000
1653, 210418328.000000, 2212.750000, 8159.000000, 8191.000000, 8146.000000
1654, 210418488.000000, 2101.625000, 8164.000000, 8198.000000, 8159.000000
1655, 210418648.000000, 2039.000000, 8158.500000, 8204.500000, 8164.500000
1656, 210418808.000000, 2009.125000, 8164.000000, 8206.500000, 8169.000000
1657, 210418968.000000, 1993.750000, 8192.000000, 8206.500000, 8180.000000
1658, 210419128.000000, 1975.125000, 8192.500000, 8218.000000, 8195.000000
1659, 210419288.000000, 1932.750000, 8219.500000, 8220.500000, 8209.500000
1660, 210419448.000000, 1871.375000, 8245.000000, 8219.000000, 8220.000000
1661, 210419608.000000, 1795.375000, 8226.500000, 8232.500000, 8228.000000
1662, 210419768.000000, 1715.125000, 8276.500000, 8221.000000, 8234.500000
1663, 210419928.000000, 1628.875000, 8268.500000, 8214.000000, 8226.000000
1664, 210420088.000000, 1542.375000, 8234.500000, 8187.000000, 8188.000000
1665, 210420248.000000, 1457.625000, 8179.000000, 8169.000000, 8149.500000
1666, 210420408.000000, 1377.875000, 8156.500000, 8161.500000, 8132.500000
1667, 210420568.000000, 1309.750000, 8151.500000, 8152.000000, 8121.000000
1668, 210420728.000000, 1265.625000, 8148.000000, 8148.500000, 8120.500000
1669, 210420888.000000, 1248.875000, 8134.000000, 8157.500000, 8125.500000
1670, 210421048.000000, 1242.375000, 8157.500000, 8160.500000, 8133.000000
1671, 210421208.000000, 1230.750000, 8162.500000, 8158.500000, 8135.000000
1672, 210421368.000000, 1212.125000, 8155.000000, 8156.500000, 8137.000000
1673, 210421528.000000, 1178.250000, 8168.000000, 8167.000000, 8148.000000
1674, 210421688.000000, 1126.750000, 8207.500000, 8147.500000, 8144.000000
1675, 210421848.000000, 1103.000000, 8175.000000, 8153.500000, 8140.500000
1676, 210422008.000000, 1184.000000, 8171.000000, 8161.500000, 8144.000000
1677, 210422168.000000, 1450.750000, 8167.000000, 8160.000000, 8145.500000
1678, 210422328.000000, 1844.625000, 8170.000000, 8165.000000, 8162.500000
1679, 210422488.000000, 2275.500000, 8195.000000, 8179.500000, 8192.500000
1680, 210422648.000000, 2641.500000, 8192.000000, 8202.000000, 8222.000000
1681, 210422808.000000, 2895.250000, 8202.500000, 8172.500000, 8179.500000
1682, 210422968.000000, 3015.000000, 8192.500000, 8153.500000, 8149.000000
1683, 210423128.000000, 3020.625000, 8170.500000, 8158.500000, 8145.500000
1684, 210423288.000000, 2953.250000, 8187.500000, 8150.000000, 8149.000000
1685, 210423448.000000, 2842.250000, 8183.500000, 8164.000000, 8155.000000
1686, 210423608.000000, 2705.375000, 8331.500000, 8042.500000, 8114.500000
1687, 210423768.000000, 2542.375000, 8125.500000, 7881.500000, 7841.500000
1688, 210423928.000000, 2357.375000, 8168.500000, 8137.500000, 8111.000000
1689, 210424088.000000, 2176.500000, 8175.500000, 8202.500000, 8201.500000
1690, 210424248.000000, 2021.125000, 8196.000000, 8200.000000, 8199.500000
1691, 210424408.000000, 1902.750000, 8210.000000, 8198.500000, 8203.500000
1692, 210424568.000000, 1820.500000, 8180.500000, 8216.000000, 8216.500000
1693, 210424728.000000, 1767.625000, 8211.500000, 8224.500000, 8230.500000
1694, 210424888.000000, 1728.875000, 8223.500000, 8223.500000, 8236.500000
1695, 210425048.000000, 1688.250000, 8236.000000, 8229.000000, 8247.500000
1696, 210425208.000000, 1633.125000, 8254.500000, 8235.500000, 8262.000000
1697, 210425368.000000, 1562.000000, 8257.500000, 8247.000000, 8273.500000
1698, 210425528.000000, 1481.000000, 8269.000000, 8240.000000, 8276.500000
1699, 210425688.000000, 1400.625000, 8269.000000, 8223.000000, 8256.500000
1700, 210425848.000000, 1315.250000, 8231.500000, 8194.000000, 8210.500000
1701, 210426008.000000, 1227.250000, 8184.500000, 8175.500000, 8173.500000
1702, 210426168.000000, 1146.750000, 8158.500000, 8167.500000, 8154.500000
1703, 210426328.000000, 1078.250000, 8172.000000, 8171.000000, 8171.000000
1704, 210426488.000000, 1018.750000, 8190.500000, 8187.000000, 8198.000000
1705, 210426648.000000, 973.375000, 8192.000000, 8178.500000, 8204.500000
1706, 210426808.000000, 939.500000, 8202.500000, 8187.000000, 8214.000000
1707, 210426968.000000, 908.125000, 8207.500000, 8187.000000, 8221.000000
1708, 210427128.000000, 872.000000, 8200.000000, 8189.500000, 8220.000000
1709, 210427288.000000, 823.500000, 8204.500000, 8187.000000, 8214.500000
1710, 210427448.000000, 780.625000, 8198.000000, 8182.500000, 8212.500000
1711, 210427608.000000, 799.125000, 8191.500000, 8184.000000, 8203.000000
1712, 210427768.000000, 979.500000, 8192.500000, 8185.000000, 8210.000000
1713, 210427928.000000, 1346.250000, 8186.500000, 8208.000000, 8241.500000
1714, 210428088.000000, 1831.875000, 8204.000000, 8221.000000, 8264.000000
1715, 210428248.000000, 2304.750000, 8215.000000, 8220.500000, 8260.000000
1716, 210428408.000000, 2677.750000, 8188.500000, 8193.500000, 8213.000000
1717, 210428568.000000, 2904.000000, 8172.500000, 8173.000000, 8174.000000
1718, 210428728.000000, 3008.875000, 8154.500000, 8174.500000, 8153.000000
1719, 210428888.000000, 3020.250000, 8144.000000, 8166.500000, 8146.500000
1720, 210429048.000000, 2975.000000, 8203.000000, 8212.500000, 8217.000000
1721, 210429208.000000, 2894.375000, 8293.000000, 7834.000000, 7873.500000
1722, 210429368.000000, 2787.625000, 8061.500000, 7985.500000, 7895.000000
1723, 210429528.000000, 2663.500000, 8155.000000, 8191.500000, 8163.000000
1724, 210429688.000000, 2534.375000, 8175.500000, 8200.500000, 8182.000000
1725, 210429848.000000, 2417.625000, 8177.500000, 8213.500000, 8188.500000
1726, 210430008.000000, 2331.625000, 8192.000000, 8217.000000, 8199.000000
1727, 210430168.000000, 2277.375000, 8192.000000, 8223.500000, 8209.000000
1728, 210430328.000000, 2250.875000, 8197.000000, 8233.000000, 8224.000000
1729, 210430488.000000, 2243.625000, 8201.000000, 8245.000000, 8239.500000
1730, 210430648.000000, 2243.000000, 8231.500000, 8248.500000, 8249.000000
1731, 210430808.000000, 2234.375000, 8258.500000, 8245.000000, 8262.500000
1732, 210430968.000000, 2209.500000, 8272.000000, 8252.000000, 8278.000000
1733, 210431128.000000, 2165.875000, 8261.500000, 8249.500000, 8270.500000
1734, 210431288.000000, 2112.875000, 8248.000000, 8225.000000, 8243.000000
1735, 210431448.000000, 2052.625000, 8228.000000, 8194.500000, 8207.500000
1736, 210431608.000000, 1992.000000, 8180.000000, 8193.000000, 8178.500000
1737, 210431768.000000, 1932.375000, 8159.000000, 8190.000000, 8167.500000
1738, 210431928.000000, 1876.750000, 8155.500000, 8192.000000, 8166.000000
1739, 210432088.000000, 1822.125000, 8163.500000, 8186.000000, 8171.500000
1740, 210432248.000000, 1772.500000, 8167.000000, 8193.500000, 8175.000000
1741, 210432408.000000, 1724.625000, 8183.000000, 8188.500000, 8177.500000
1742, 210432568.000000, 1683.000000, 8191.000000, 8189.000000, 8183.500000
1743, 210432728.000000, 1640.875000, 8182.500000, 8192.000000, 8186.000000
1744, 210432888.000000, 1590.625000, 8186.500000, 8187.500000, 8177.500000
1745, 210433048.000000, 1552.625000, 8176.000000, 8189.000000, 8177.500000
1746, 210433208.000000, 1589.375000, 8182.500000, 8185.000000, 8178.000000
1747, 210433368.000000, 1781.750000, 8197.500000, 8195.500000, 8197.500000
1748, 210433528.000000, 2119.875000, 8195.000000, 8220.000000, 8234.000000
1749, 210433688.000000, 2537.000000, 8201.000000, 8249.500000, 8267.500000
1750, 210433848.000000, 2927.875000, 8207.000000, 8208.000000, 8215.000000
1751, 210434008.000000, 3224.250000, 8167.000000, 8186.000000, 8174.500000
1752, 210434168.000000, 3398.625000, 8172.000000, 8184.500000, 8166.500000
1753, 210434328.000000, 3459.000000, 8173.500000, 8185.000000, 8166.000000
1754, 210434488.000000, 3424.000000, 8196.500000, 8181.000000, 8170.000000
1755, 210434648.000000, 3326.250000, 8321.500000, 8013.000000, 8075.000000
1756, 210434808.000000, 3189.375000, 8102.000000, 7887.500000, 7823.500000
1757, 210434968.000000, 3022.375000, 8164.000000, 8165.000000, 8136.000000
1758, 210435128.000000, 2842.000000, 8179.500000, 8217.000000, 8206.000000
1759, 210435288.000000, 2666.250000, 8183.000000, 8214.500000, 8203.500000
1760, 210435448.000000, 2517.750000, 8194.000000, 8212.500000, 8200.000000
1761, 210435608.000000, 2401.375000, 8178.500000, 8222.500000, 8206.500000
1762, 210435768.000000, 2317.750000, 8209.000000, 8228.500000, 8238.000000
1763, 210435928.000000, 2258.875000, 8239.000000, 8249.500000, 8276.000000
1764, 210436088.000000, 2214.250000, 8231.000000, 8249.500000, 8284.500000
1765, 210436248.000000, 2168.875000, 8274.500000, 8257.000000, 8303.000000
1766, 210436408.000000, 2116.000000, 8280.500000, 8262.000000, 8311.000000
1767, 210436568.000000, 2043.250000, 8280.500000, 8257.500000, 8313.500000
1768, 210436728.000000, 1949.000000, 8279.500000, 8244.500000, 8295.000000
1769, 210436888.000000, 1841.500000, 8252.500000, 8211.000000, 8259.000000
1770, 210437048.000000, 1732.375000, 8196.500000, 8205.000000, 8220.000000
1771, 210437208.000000, 1628.000000, 8162.000000, 8197.500000, 8202.500000
1772, 210437368.000000, 1532.625000, 8168.500000, 8196.000000, 8203.000000
1773, 210437528.000000, 1442.875000, 8178.500000, 8197.000000, 8202.000000
1774, 210437688.000000, 1358.125000, 8161.000000, 8194.000000, 8198.500000
1775, 210437848.000000, 1277.375000, 8181.500000, 8194.500000, 8201.500000
1776, 210438008.000000, 1205.375000, 8181.500000, 8196.000000, 8205.000000
1777, 210438168.000000, 1139.250000, 8163.500000, 8203.000000, 8205.000000
1778, 210438328.000000, 1076.125000, 8164.500000, 8202.500000, 8204.000000
1779, 210438488.000000, 1025.500000, 8176.500000, 8196.500000, 8196.500000
1780, 210438648.000000, 1034.500000, 8193.500000, 8185.500000, 8193.500000
1781, 210438808.000000, 1192.250000, 8168.000000, 8193.000000, 8196.000000
1782, 210438968.000000, 1498.000000, 8176.500000, 8220.500000, 8228.000000
1783, 210439128.000000, 1905.375000, 8182.500000, 8233.500000, 8249.000000
1784, 210439288.000000, 2313.375000, 8197.500000, 8205.500000, 8209.000000
1785, 210439448.000000, 2652.750000, 8167.000000, 8174.000000, 8156.500000
1786, 210439608.000000, 2899.125000, 8153.000000, 8170.000000, 8136.500000
1787, 210439768.000000, 3048.000000, 8152.000000, 8169.500000, 8137.500000
1788, 210439928.000000, 3115.000000, 8165.000000, 8164.000000, 8128.500000
1789, 210440088.000000, 3114.250000, 8236.500000, 8169.000000, 8186.000000
1790, 210440248.000000, 3070.000000, 8265.000000, 7820.000000, 7821.000000
1791, 210440408.000000, 2991.500000, 8115.000000, 8094.500000, 8021.500000
1792, 210440568.000000, 2891.375000, 8173.500000, 8205.000000, 8181.000000
1793, 210440728.000000, 2777.750000, 8175.500000, 8218.500000, 8195.000000
1794, 210440888.000000, 2663.750000, 8168.000000, 8222.000000, 8196.500000
1795, 210441048.000000, 2563.625000, 8184.500000, 8218.000000, 8202.500000
1796, 210441208.000000, 2495.750000, 8189.000000, 8227.500000, 8216.000000
1797, 210441368.000000, 2464.375000, 8221.500000, 8231.500000, 8234.000000
1798, 210441528.000000, 2457.000000, 8205.500000, 8241.500000, 8242.500000
1799, 210441688.000000, 2454.875000, 8253.000000, 8241.000000, 8258.500000
1800, 210441848.000000, 2444.625000, 8255.000000, 8251.000000, 8269.000000
1801, 210442008.000000, 2425.875000, 8270.000000, 8244.000000, 8273.000000
1802, 210442168.000000, 2392.875000, 8276.000000, 8231.500000, 8264.500000
1803, 210442328.000000, 2344.375000, 8224.500000, 8222.000000, 8233.500000
1804, 210442488.000000, 2280.375000, 8201.500000, 8194.500000, 8200.000000
1805, 210442648.000000, 2207.375000, 8152.500000, 8195.000000, 8180.000000
1806, 210442808.000000, 2126.125000, 8179.000000, 8180.500000, 8175.500000
1807, 210442968.000000, 2041.250000, 8166.500000, 8184.000000, 8174.500000
1808, 210443128.000000, 1955.250000, 8172.500000, 8183.500000, 8176.500000
1809, 210443288.000000, 1870.625000, 8174.500000, 8183.500000, 8182.000000
1810, 210443448.000000, 1789.875000, 8183.000000, 8177.500000, 8177.500000
1811, 210443608.000000, 1718.500000, 8178.500000, 8186.500000, 8178.500000
1812, 210443768.000000, 1648.625000, 8173.000000, 8190.000000, 8184.500000
1813, 210443928.000000, 1576.875000, 8178.000000, 8180.500000, 8175.500000
1814, 210444088.000000, 1529.125000, 8170.500000, 8173.500000, 8166.500000
1815, 210444248.000000, 1566.500000, 8160.000000, 8173.000000, 8161.000000
1816, 210444408.000000, 1751.000000, 8190.500000, 8175.000000, 8177.000000
1817, 210444568.000000, 2056.125000, 8206.500000, 8195.500000, 8215.000000
1818, 210444728.000000, 2406.625000, 8208.500000, 8214.000000, 8242.000000
1819, 210444888.000000, 2714.125000, 8203.000000, 8178.500000, 8183.000000
1820, 210445048.000000, 2943.375000, 8175.000000, 8153.000000, 8140.000000
1821, 210445208.000000, 3064.250000, 8163.000000, 8145.500000, 8126.500000
1822, 210445368.000000, 3097.000000, 8190.500000, 8139.500000, 8135.000000
1823, 210445528.000000, 3062.375000, 8171.500000, 8154.500000, 8137.000000
1824, 210445688.000000, 2988.250000, 8304.000000, 8000.500000, 8068.000000
1825, 210445848.000000, 2891.125000, 8080.500000, 7850.500000, 7788.500000
1826, 210446008.000000, 2770.375000, 8160.000000, 8124.500000, 8094.500000
1827, 210446168.000000, 2632.000000, 8165.500000, 8180.500000, 8172.500000
1828, 210446328.000000, 2496.500000, 8175.500000, 8187.500000, 8178.000000
1829, 210446488.000000, 2383.375000, 8190.000000, 8188.500000, 8187.000000
1830, 210446648.000000, 2299.625000, 8185.000000, 8196.500000, 8191.500000
1831, 210446808.000000, 2239.875000, 8217.000000, 8218.500000, 8237.500000
1832, 210446968.000000, 2196.000000, 8234.500000, 8229.000000, 8275.500000
1833, 210447128.000000, 2155.875000, 8252.500000, 8238.500000, 8297.000000
1834, 210447288.000000, 2103.750000, 8267.500000, 8242.500000, 8304.000000
1835, 210447448.000000, 2035.000000, 8289.000000, 8245.500000, 8315.000000
1836, 210447608.000000, 1948.625000, 8279.500000, 8246.500000, 8320.500000
1837, 210447768.000000, 1849.000000, 8300.000000, 8231.000000, 8312.000000
1838, 210447928.000000, 1755.375000, 8264.000000, 8213.000000, 8277.000000
1839, 210448088.000000, 1681.625000, 8188.500000, 8207.500000, 8250.000000
1840, 210448248.000000, 1622.750000, 8181.500000, 8199.000000, 8234.000000
1841, 210448408.000000, 1569.375000, 8180.500000, 8200.000000, 8230.500000
1842, 210448568.000000, 1511.000000, 8177.500000, 8200.000000, 8232.500000
1843, 210448728.000000, 1451.000000, 8168.500000, 8206.000000, 8224.500000
1844, 210448888.000000, 1391.000000, 8157.000000, 8202.000000, 8213.000000
1845, 210449048.000000, 1331.000000, 8162.500000, 8195.000000, 8201.000000
1846, 210449208.000000, 1271.875000, 8148.500000, 8192.500000, 8187.000000
1847, 210449368.000000, 1219.500000, 8165.500000, 8184.000000, 8178.500000
1848, 210449528.000000, 1176.750000, 8134.000000, 8174.000000, 8137.500000
1849, 210449688.000000, 1183.125000, 8132.000000, 8145.500000, 8082.500000
1850, 210449848.000000, 1306.500000, 8104.500000, 8154.500000, 8080.500000
1851, 210450008.000000, 1579.000000, 8127.000000, 8167.000000, 8107.000000
1852, 210450168.000000, 1945.750000, 8137.500000, 8182.000000, 8128.000000
1853, 210450328.000000, 2315.750000, 8139.000000, 8154.500000, 8082.500000
1854, 210450488.000000, 2622.375000, 8095.000000, 8136.500000, 8042.000000
1855, 210450648.000000, 2833.625000, 8102.500000, 8121.000000, 8027.500000
1856, 210450808.000000, 2946.125000, 8129.500000, 8124.000000, 8038.500000
1857, 210450968.000000, 2976.250000, 8109.000000, 8128.500000, 8033.500000
1858, 210451128.000000, 2951.875000, 8201.000000, 8162.500000, 8130.500000
1859, 210451288.000000, 2894.500000, 8228.500000, 7821.000000, 7783.500000
1860, 210451448.000000, 2813.500000, 8077.500000, 8046.000000, 7930.000000
1861, 210451608.000000, 2709.875000, 8125.000000, 8169.500000, 8099.000000
1862, 210451768.000000, 2607.875000, 8121.000000, 8195.000000, 8125.000000
1863, 210451928.000000, 2525.500000, 8150.000000, 8188.500000, 8132.500000
1864, 210452088.000000, 2467.375000, 8171.000000, 8189.500000, 8140.000000
1865, 210452248.000000, 2438.750000, 8158.500000, 8205.500000, 8157.500000
1866, 210452408.000000, 2430.250000, 8182.500000, 8211.500000, 8179.500000
1867, 210452568.000000, 2426.875000, 8174.000000, 8231.500000, 8197.000000
1868, 210452728.000000, 2415.750000, 8220.000000, 8226.000000, 8211.000000
1869, 210452888.000000, 2384.625000, 8225.000000, 8237.500000, 8226.000000
1870, 210453048.000000, 2332.000000, 8231.500000, 8241.500000, 8237.000000
1871, 210453208.000000, 2254.625000, 8230.500000, 8225.500000, 8225.000000
1872, 210453368.000000, 2156.625000, 8196.000000, 8210.500000, 8198.500000
1873, 210453528.000000, 2036.250000, 8130.000000, 8205.000000, 8175.000000
1874, 210453688.000000, 1934.000000, 8117.000000, 8191.500000, 8153.000000
1875, 210453848.000000, 1835.375000, 8081.000000, 8195.500000, 8147.000000
1876, 210454008.000000, 1724.500000, 8104.000000, 8191.000000, 8150.500000
1877, 210454168.000000, 1629.750000, 8115.500000, 8194.000000, 8159.000000
1878, 210454328.000000, 1554.750000, 8124.500000, 8199.000000, 8174.500000
1879, 210454488.000000, 1480.750000, 8142.500000, 8204.500000, 8197.000000
1880, 210454648.000000, 1411.125000, 8151.500000, 8209.000000, 8210.000000
1881, 210454808.000000, 1356.875000, 8189.000000, 8208.000000, 8234.000000
1882, 210454968.000000, 1318.875000, 8167.500000, 8211.500000, 8232.000000
1883, 210455128.000000, 1361.750000, 8190.500000, 8198.000000, 8226.000000
1884, 210455288.000000, 1513.500000, 8171.500000, 8199.000000, 8218.500000
1885, 210455448.000000, 1774.750000, 8180.500000, 8213.500000, 8249.500000
1886, 210455608.000000, 2144.250000, 8218.000000, 8221.000000, 8276.500000
1887, 210455768.000000, 2463.500000, 8197.500000, 8225.000000, 8271.500000
1888, 210455928.000000, 2706.250000, 8193.000000, 8187.500000, 8218.500000
1889, 210456088.000000, 2826.125000, 8182.000000, 8159.500000, 8177.000000
1890, 210456248.000000, 2864.250000, 8156.500000, 8170.000000, 8176.500000
1891, 210456408.000000, 2835.375000, 8179.000000, 8165.000000, 8177.500000
1892, 210456568.000000, 2762.375000, 8195.000000, 8214.000000, 8244.000000
1893, 210456728.000000, 2652.000000, 8303.500000, 7867.500000, 7946.500000
1894, 210456888.000000, 2524.625000, 8075.500000, 7985.500000, 7936.500000
1895, 210457048.000000, 2391.875000, 8180.500000, 8192.000000, 8206.000000
1896, 210457208.000000, 2272.625000, 8202.000000, 8215.000000, 8238.500000
1897, 210457368.000000, 2175.625000, 8186.000000, 8221.000000, 8241.000000
1898, 210457528.000000, 2106.000000, 8203.500000, 8221.000000, 8246.000000
1899, 210457688.000000, 2058.375000, 8210.000000, 8228.000000, 8252.000000
1900, 210457848.000000, 2021.875000, 8226.500000, 8236.000000, 8264.000000
1901, 210458008.000000, 1975.500000, 8228.500000, 8249.500000, 8282.000000
1902, 210458168.000000, 1911.750000, 8240.000000, 8261.000000, 8299.000000
1903, 210458328.000000, 1830.250000, 8257.000000, 8263.500000, 8308.000000
1904, 210458488.000000, 1742.500000, 8288.500000, 8257.000000, 8313.500000
1905, 210458648.000000, 1654.625000, 8271.500000, 8261.000000, 8311.000000
1906, 210458808.000000, 1575.750000, 8257.500000, 8245.000000, 8294.500000
1907, 210458968.000000, 1509.000000, 8225.500000, 8221.500000, 8258.500000
1908, 210459128.000000, 1456.375000, 8190.000000, 8211.000000, 8231.500000
1909, 210459288.000000, 1416.500000, 8154.500000, 8205.500000, 8209.500000
1910, 210459448.000000, 1392.000000, 8165.000000, 8198.500000, 8199.500000
1911, 210459608.000000, 1375.125000, 8152.000000, 8202.500000, 8194.000000
1912, 210459768.000000, 1364.375000, 8151.500000, 8209.500000, 8199.000000
1913, 210459928.000000, 1356.125000, 8161.000000, 8201.500000, 8194.000000
1914, 210460088.000000, 1343.625000, 8151.500000, 8207.500000, 8189.000000
1915, 210460248.000000, 1330.500000, 8171.500000, 8199.500000, 8190.000000
1916, 210460408.000000, 1339.500000, 8172.500000, 8196.500000, 8184.500000
1917, 210460568.000000, 1440.625000, 8146.000000, 8198.000000, 8178.500000
1918, 210460728.000000, 1662.250000, 8158.500000, 8188.500000, 8168.500000
1919, 210460888.000000, 1998.500000, 8132.000000, 8191.000000, 8163.500000
1920, 210461048.000000, 2372.375000, 8145.000000, 8191.500000, 8164.500000
1921, 210461208.000000, 2710.250000, 8155.500000, 8189.500000, 8169.500000
1922, 210461368.000000, 2967.625000, 8140.500000, 8192.000000, 8165.000000
1923, 210461528.000000, 3130.875000, 8162.500000, 8209.000000, 8206.000000
1924, 210461688.000000, 3210.500000, 8211.500000, 8218.000000, 8236.000000
1925, 210461848.000000, 3219.125000, 8200.500000, 8204.000000, 8207.000000
1926, 210462008.000000, 3191.000000, 8171.000000, 8180.500000, 8172.500000
1927, 210462168.000000, 3136.875000, 8175.000000, 8169.000000, 8158.000000
1928, 210462328.000000, 3054.625000, 8200.500000, 8160.000000, 8156.000000
1929, 210462488.000000, 2949.500000, 8174.500000, 8167.000000, 8150.000000
1930, 210462648.000000, 2840.375000, 8278.500000, 8171.500000, 8218.000000
1931, 210462808.000000, 2743.125000, 8311.000000, 7830.500000, 7872.500000
1932, 210462968.000000, 2659.750000, 8147.000000, 8094.000000, 8046.500000
1933, 210463128.000000, 2590.625000, 8217.500000, 8211.000000, 8223.000000
1934, 210463288.000000, 2529.125000, 8222.500000, 8222.000000, 8239.000000
1935, 210463448.000000, 2465.500000, 8218.500000, 8233.000000, 8245.000000
1936, 210463608.000000, 2391.750000, 8232.000000, 8237.000000, 8256.500000
1937, 210463768.000000, 2307.500000, 8224.500000, 8244.000000, 8261.500000
1938, 210463928.000000, 2212.875000, 8269.000000, 8236.500000, 8279.000000
1939, 210464088.000000, 2110.625000, 8246.500000, 8254.000000, 8282.500000
1940, 210464248.000000, 2012.750000, 8276.500000, 8259.500000, 8303.000000
1941, 210464408.000000, 1919.875000, 8286.000000, 8265.000000, 8316.000000
1942, 210464568.000000, 1831.375000, 8302.500000, 8257.000000, 8312.500000
1943, 210464728.000000, 1749.375000, 8308.000000, 8242.000000, 8299.000000
1944, 210464888.000000, 1678.250000, 8300.500000, 8217.500000, 8271.000000
1945, 210465048.000000, 1614.000000, 8233.000000, 8211.000000, 8239.500000
1946, 210465208.000000, 1555.875000, 8214.000000, 8195.500000, 8216.500000
1947, 210465368.000000, 1506.875000, 8179.000000, 8189.000000, 8192.500000
1948, 210465528.000000, 1464.000000, 8199.500000, 8180.000000, 8191.000000
1949, 210465688.000000, 1423.000000, 8199.000000, 8179.500000, 8194.000000
1950, 210465848.000000, 1383.000000, 8173.000000, 8187.000000, 8192.500000
1951, 210466008.000000, 1343.000000, 8184.500000, 8186.000000, 8195.000000
1952, 210466168.000000, 1302.125000, 8183.500000, 8174.000000, 8184.500000
1953, 210466328.000000, 1265.625000, 8166.000000, 8176.500000, 8168.500000
1954, 210466488.000000, 1265.875000, 8178.500000, 8163.000000, 8165.000000
1955, 210466648.000000, 1377.500000, 8194.000000, 8174.000000, 8198.500000
1956, 210466808.000000, 1620.625000, 8193.500000, 8179.500000, 8205.500000
1957, 210466968.000000, 1963.375000, 8215.000000, 8174.000000, 8206.500000
1958, 210467128.000000, 2317.875000, 8197.500000, 8178.500000, 8208.000000
1959, 210467288.000000, 2620.625000, 8191.000000, 8178.500000, 8211.000000
1960, 210467448.000000, 2833.125000, 8213.500000, 8180.000000, 8217.500000
1961, 210467608.000000, 2951.125000, 8209.000000, 8183.500000, 8220.000000
1962, 210467768.000000, 2985.500000, 8220.500000, 8184.500000, 8220.500000
1963, 210467928.000000, 2956.625000, 8217.000000, 8183.000000, 8220.500000
1964, 210468088.000000, 2881.375000, 8215.500000, 8185.500000, 8223.000000
1965, 210468248.000000, 2775.375000, 8215.000000, 8196.000000, 8238.500000
1966, 210468408.000000, 2653.250000, 8216.500000, 8222.000000, 8272.500000
1967, 210468568.000000, 2519.375000, 8251.500000, 8234.500000, 8298.500000
1968, 210468728.000000, 2383.625000, 8215.000000, 8210.000000, 8246.500000
1969, 210468888.000000, 2264.250000, 8197.500000, 8188.000000, 8211.500000
1970, 210469048.000000, 2175.750000, 8193.500000, 8194.500000, 8209.500000
1971, 210469208.000000, 2118.875000, 8184.000000, 8198.500000, 8210.500000
1972, 210469368.000000, 2074.250000, 8187.000000, 8206.000000, 8213.500000
1973, 210469528.000000, 2028.250000, 8350.500000, 8026.500000, 8107.000000
1974, 210469688.000000, 1977.750000, 8089.500000, 7914.000000, 7839.000000
1975, 210469848.000000, 1918.625000, 8132.000000, 8166.000000, 8110.500000
1976, 210470008.000000, 1852.500000, 8165.000000, 8221.500000, 8189.500000
1977, 210470168.000000, 1780.500000, 8154.500000, 8232.500000, 8194.000000
1978, 210470328.000000, 1712.375000, 8163.500000, 8225.000000, 8190.500000
1979, 210470488.000000, 1650.750000, 8182.000000, 8232.000000, 8203.000000
1980, 210470648.000000, 1597.625000, 8185.000000, 8238.500000, 8217.000000
1981, 210470808.000000, 1551.625000, 8201.000000, 8243.000000, 8225.000000
1982, 210470968.000000, 1516.500000, 8212.000000, 8248.500000, 8236.000000
1983, 210471128.000000, 1492.375000, 8211.500000, 8253.000000, 8241.000000
1984, 210471288.000000, 1473.875000, 8253.000000, 8256.500000, 8261.000000
1985, 210471448.000000, 1461.875000, 8250.000000, 8256.500000, 8267.000000
1986, 210471608.000000, 1456.250000, 8247.000000, 8243.000000, 8250.000000
1987, 210471768.000000, 1450.875000, 8236.000000, 8211.000000, 8215.500000
1988, 210471928.000000, 1441.625000, 8175.500000, 8197.500000, 8180.000000
1989, 210472088.000000, 1428.500000, 8142.500000, 8191.500000, 8165.000000
1990, 210472248.000000, 1423.000000, 8151.500000, 8182.000000, 8154.500000
1991, 210472408.000000, 1425.750000, 8133.500000, 8183.500000, 8151.500000
1992, 210472568.000000, 1428.875000, 8149.000000, 8182.500000, 8153.000000
1993, 210472728.000000, 1430.250000, 8162.000000, 8176.500000, 8155.000000
1994, 210472888.000000, 1419.750000, 8154.000000, 8184.500000, 8164.500000
1995, 210473048.000000, 1389.625000, 8161.500000, 8187.500000, 8168.500000
1996, 210473208.000000, 1348.000000, 8185.500000, 8176.500000, 8166.500000
1997, 210473368.000000, 1350.750000, 8178.500000, 8178.000000, 8159.500000
1998, 210473528.000000, 1457.875000, 8174.000000, 8175.500000, 8162.000000
1999, 210473688.000000, 1700.375000, 8185.500000, 8170.500000, 8163.500000
2000, 210473848.000000, 2031.500000, 8159.000000, 8180.000000, 8165.000000
2001, 210474008.000000, 2372.625000, 8177.500000, 8177.000000, 8170.500000
2002, 210474168.000000, 2659.875000, 8169.000000, 8172.000000, 8164.000000
2003, 210474328.000000, 2857.375000, 8144.000000, 8184.000000, 8165.000000
2004, 210474488.000000, 2963.375000, 8198.000000, 8168.000000, 8169.000000
2005, 210474648.000000, 2987.875000, 8187.000000, 8174.500000, 8176.000000
2006, 210474808.000000, 2957.250000, 8169.000000, 8183.000000, 8174.000000
2007, 210474968.000000, 2895.750000, 8184.000000, 8170.500000, 8172.000000
2008, 210475128.000000, 2807.875000, 8172.500000, 8176.000000, 8169.000000
2009, 210475288.000000, 2702.375000, 8179.500000, 8174.500000, 8175.000000
2010, 210475448.000000, 2582.125000, 8186.500000, 8193.000000, 8202.500000
2011, 210475608.000000, 2460.750000, 8204.000000, 8203.500000, 8226.500000
2012, 210475768.000000, 2354.875000, 8210.500000, 8200.500000, 8220.000000
2013, 210475928.000000, 2269.375000, 8184.000000, 8177.000000, 8182.000000
2014, 210476088.000000, 2197.375000, 8171.000000, 8167.000000, 8157.500000
2015, 210476248.000000, 2132.625000, 8167.000000, 8158.500000, 8157.000000
2016, 210476408.000000, 2069.250000, 8182.500000, 8156.000000, 8149.000000
2017, 210476568.000000, 2000.125000, 8212.000000, 8208.500000, 8221.000000
2018, 210476728.000000, 1923.000000, 8352.500000, 7895.000000, 7978.000000
2019, 210476888.000000, 1835.125000, 8107.000000, 7989.500000, 7958.000000
2020, 210477048.000000, 1740.750000, 8203.000000, 8189.500000, 8220.000000
2021, 210477208.000000, 1651.625000, 8231.000000, 8216.000000, 8265.000000
2022, 210477368.000000, 1579.250000, 8224.500000, 8231.500000, 8278.500000
2023, 210477528.000000, 1528.375000, 8236.500000, 8233.500000, 8286.500000
2024, 210477688.000000, 1508.375000, 8241.500000, 8242.000000, 8300.000000
2025, 210477848.000000, 1526.000000, 8264.000000, 8247.000000, 8312.000000
2026, 210478008.000000, 1575.250000, 8255.500000, 8256.000000, 8322.000000
2027, 210478168.000000, 1634.000000, 8281.500000, 8254.500000, 8330.000000
2028, 210478328.000000, 1694.000000, 8297.500000, 8268.500000, 8345.000000
2029, 210478488.000000, 1746.000000, 8314.000000, 8273.000000, 8355.500000
2030, 210478648.000000, 1769.500000, 8313.000000, 8271.500000, 8354.500000
2031, 210478808.000000, 1764.125000, 8312.500000, 8254.000000, 8334.000000
2032, 210478968.000000, 1748.000000, 8254.000000, 8229.500000, 8287.500000
2033, 210479128.000000, 1716.875000, 8236.500000, 8208.500000, 8256.000000
2034, 210479288.000000, 1660.250000, 8198.500000, 8203.500000, 8233.000000
2035, 210479448.000000, 1577.125000, 8156.000000, 8212.000000, 8224.000000
2036, 210479608.000000, 1478.125000, 8163.500000, 8201.000000, 8211.000000
2037, 210479768.000000, 1379.375000, 8145.500000, 8193.000000, 8172.500000
2038, 210479928.000000, 1287.375000, 8128.500000, 8174.000000, 8139.000000
2039, 210480088.000000, 1210.500000, 8148.500000, 8177.000000, 8129.000000
2040, 210480248.000000, 1152.375000, 8115.500000, 8186.500000, 8129.000000
2041, 210480408.000000, 1144.375000, 8133.500000, 8181.000000, 8126.500000
2042, 210480568.000000, 1234.500000, 8125.000000, 8166.500000, 8104.000000
2043, 210480728.000000, 1481.375000, 8180.500000, 8144.500000, 8114.000000
2044, 210480888.000000, 1887.000000, 8134.500000, 8169.000000, 8114.000000
2045, 210481048.000000, 2410.375000, 8125.000000, 8172.500000, 8118.000000
2046, 210481208.000000, 2924.875000, 8138.500000, 8161.500000, 8115.500000
2047, 210481368.000000, 3325.000000, 8154.500000, 8161.000000, 8117.500000
2048, 210481528.000000, 3568.750000, 8150.500000, 8167.000000, 8122.500000
2049, 210481688.000000, 3662.750000, 8150.000000, 8159.500000, 8123.500000
2050, 210481848.000000, 3609.875000, 8188.000000, 8153.500000, 8131.500000
2051, 210482008.000000, 3414.000000, 8159.000000, 8168.500000, 8130.000000
2052, 210482168.000000, 3130.000000, 8168.000000, 8161.000000, 8129.500000
2053, 210482328.000000, 2808.500000, 8157.000000, 8186.500000, 8161.500000
2054, 210482488.000000, 2346.875000, 8176.000000, 8202.000000, 8197.500000
2055, 210482648.000000, 1543.000000, 8205.500000, 8185.500000, 8179.000000
2056, 210482808.000000, 517.875000, 8178.000000, 8173.000000, 8151.000000
2057, 210482968.000000, 95.875000, 8180.500000, 8152.500000, 8126.500000
2058, 210483128.000000, 16.875000, 8162.500000, 8161.500000, 8130.000000
2059, 210483288.000000, 71.625000, 8178.500000, 8161.000000, 8136.500000
2060, 210483448.000000, 291.625000, 8221.500000, 8202.500000, 8223.000000
2061, 210483608.000000, 566.625000, 8339.000000, 7822.500000, 7870.500000
2062, 210483768.000000, 795.625000, 8103.000000, 8043.000000, 7970.000000
2063, 210483928.000000, 982.375000, 8192.000000, 8202.500000, 8196.000000
2064, 210484088.000000, 1153.875000, 8190.500000, 8226.000000, 8219.000000
2065, 210484248.000000, 1277.000000, 8201.500000, 8238.500000, 8234.000000
2066, 210484408.000000, 1324.750000, 8236.000000, 8224.500000, 8237.000000
2067, 210484568.000000, 1323.000000, 8199.500000, 8241.000000, 8243.000000
2068, 210484728.000000, 1290.250000, 8245.000000, 8242.500000, 8261.500000
2069, 210484888.000000, 1224.000000, 8226.000000, 8257.500000, 8275.500000
2070, 210485048.000000, 1142.875000, 8259.500000, 8272.000000, 8295.000000
2071, 210485208.000000, 1084.750000, 8288.000000, 8267.000000, 8310.000000
2072, 210485368.000000, 1069.000000, 8273.500000, 8271.500000, 8311.000000
2073, 210485528.000000, 1085.500000, 8317.500000, 8257.000000, 8310.500000
2074, 210485688.000000, 1121.000000, 8270.500000, 8245.000000, 8284.500000
2075, 210485848.000000, 1170.250000, 8230.000000, 8217.500000, 8240.500000
2076, 210486008.000000, 1229.750000, 8217.500000, 8188.000000, 8207.000000
2077, 210486168.000000, 1294.375000, 8176.000000, 8185.000000, 8178.000000
2078, 210486328.000000, 1353.125000, 8168.000000, 8174.500000, 8166.000000
2079, 210486488.000000, 1404.125000, 8175.000000, 8169.500000, 8160.500000
2080, 210486648.000000, 1447.000000, 8175.000000, 8190.000000, 8204.500000
2081, 210486808.000000, 1479.750000, 8207.000000, 8191.500000, 8230.500000
2082, 210486968.000000, 1503.875000, 8213.000000, 8196.000000, 8241.000000
2083, 210487128.000000, 1517.125000, 8204.000000, 8200.500000, 8248.500000
2084, 210487288.000000, 1522.875000, 8223.500000, 8195.000000, 8250.000000
2085, 210487448.000000, 1536.500000, 8220.500000, 8194.500000, 8243.500000
2086, 210487608.000000, 1597.500000, 8209.000000, 8190.000000, 8233.500000
2087, 210487768.000000, 1732.125000, 8221.000000, 8183.500000, 8228.000000
2088, 210487928.000000, 1912.625000, 8200.500000, 8191.000000, 8227.000000
2089, 210488088.000000, 2077.875000, 8210.500000, 8188.000000, 8225.500000
2090, 210488248.000000, 2181.000000, 8225.500000, 8185.000000, 8225.500000
2091, 210488408.000000, 2213.000000, 8186.500000, 8190.000000, 8220.000000
2092, 210488568.000000, 2193.750000, 8214.500000, 8181.500000, 8216.500000
2093, 210488728.000000, 2144.375000, 8205.500000, 8189.000000, 8219.000000
2094, 210488888.000000, 2083.125000, 8197.500000, 8196.000000, 8225.000000
2095, 210489048.000000, 2017.250000, 8185.500000, 8199.500000, 8225.000000
2096, 210489208.000000, 1953.125000, 8204.000000, 8198.000000, 8225.000000
2097, 210489368.000000, 1894.750000, 8222.500000, 8224.000000, 8270.000000
2098, 210489528.000000, 1844.375000, 8201.000000, 8244.500000, 8284.500000
2099, 210489688.000000, 1801.750000, 8208.500000, 8219.500000, 8246.500000
2100, 210489848.000000, 1769.500000, 8205.000000, 8200.000000, 8218.500000
2101, 210490008.000000, 1751.125000, 8178.500000, 8194.000000, 8193.000000
2102, 210490168.000000, 1740.375000, 8152.000000, 8185.500000, 8164.500000
2103, 210490328.000000, 1742.125000, 8159.000000, 8181.500000, 8137.500000
2104, 210490488.000000, 1750.500000, 8299.000000, 8067.000000, 8100.500000
2105, 210490648.000000, 1760.125000, 8127.500000, 7890.000000, 7818.000000
2106, 210490808.000000, 1763.875000, 8126.000000, 8152.000000, 8079.500000
2107, 210490968.000000, 1762.625000, 8167.000000, 8206.000000, 8167.500000
2108, 210491128.000000, 1757.375000, 8153.000000, 8227.500000, 8180.000000
2109, 210491288.000000, 1748.125000, 8163.000000, 8226.500000, 8183.500000
2110, 210491448.000000, 1732.875000, 8175.000000, 8227.000000, 8190.000000
2111, 210491608.000000, 1713.375000, 8190.000000, 8227.500000, 8194.500000
2112, 210491768.000000, 1697.750000, 8177.500000, 8233.500000, 8199.500000
2113, 210491928.000000, 1685.500000, 8209.500000, 8239.500000, 8215.500000
2114, 210492088.000000, 1674.625000, 8201.000000, 8260.500000, 8232.000000
2115, 210492248.000000, 1658.000000, 8238.500000, 8254.500000, 8250.000000
2116, 210492408.000000, 1636.125000, 8246.500000, 8250.000000, 8244.500000
2117, 210492568.000000, 1624.250000, 8250.000000, 8236.500000, 8238.000000
2118, 210492728.000000, 1628.375000, 8241.500000, 8219.000000, 8220.000000
2119, 210492888.000000, 1657.625000, 8187.500000, 8212.000000, 8195.000000
2120, 210493048.000000, 1698.000000, 8154.000000, 8208.500000, 8173.500000
2121, 210493208.000000, 1731.375000, 8150.500000, 8201.000000, 8164.500000
2122, 210493368.000000, 1747.500000, 8125.000000, 8207.500000, 8164.000000
2123, 210493528.000000, 1749.250000, 8151.500000, 8204.000000, 8175.000000
2124, 210493688.000000, 1739.625000, 8134.500000, 8221.000000, 8182.000000
2125, 210493848.000000, 1724.375000, 8170.500000, 8216.000000, 8190.000000
2126, 210494008.000000, 1703.125000, 8177.500000, 8205.000000, 8184.500000
2127, 210494168.000000, 1676.875000, 8144.000000, 8209.000000, 8184.000000
2128, 210494328.000000, 1654.750000, 8174.500000, 8211.500000, 8192.000000
2129, 210494488.000000, 1671.250000, 8171.500000, 8205.500000, 8188.000000
2130, 210494648.000000, 1752.875000, 8173.500000, 8200.500000, 8184.500000
2131, 210494808.000000, 1893.625000, 8190.500000, 8191.500000, 8181.000000
2132, 210494968.000000, 2052.125000, 8166.500000, 8193.500000, 8178.000000
2133, 210495128.000000, 2190.750000, 8178.000000, 8197.000000, 8182.000000
2134, 210495288.000000, 2302.875000, 8196.500000, 8194.000000, 8186.500000
2135, 210495448.000000, 2385.500000, 8170.500000, 8194.000000, 8181.000000
2136, 210495608.000000, 2441.750000, 8181.500000, 8190.000000, 8178.000000
2137, 210495768.000000, 2467.500000, 8181.500000, 8187.500000, 8173.000000
2138, 210495928.000000, 2465.500000, 8184.500000, 8192.000000, 8182.000000
2139, 210496088.000000, 2445.500000, 8187.000000, 8203.000000, 8206.500000
2140, 210496248.000000, 2411.875000, 8207.000000, 8214.000000, 8228.000000
2141, 210496408.000000, 2363.500000, 8201.000000, 8200.000000, 8202.000000
2142, 210496568.000000, 2309.000000, 8203.500000, 8173.500000, 8169.500000
2143, 210496728.000000, 2250.750000, 8188.500000, 8155.500000, 8146.500000
2144, 210496888.000000, 2198.500000, 8188.500000, 8168.000000, 8174.500000
2145, 210497048.000000, 2155.375000, 8200.500000, 8180.500000, 8202.000000
2146, 210497208.000000, 2121.500000, 8271.500000, 8222.500000, 8285.500000
2147, 210497368.000000, 2095.625000, 8418.000000, 7877.000000, 7998.000000
2148, 210497528.000000, 2071.250000, 8138.000000, 8054.500000, 8032.000000
2149, 210497688.000000, 2044.500000, 8199.500000, 8220.000000, 8253.000000
2150, 210497848.000000, 2009.875000, 8215.500000, 8228.000000, 8268.000000
2151, 210498008.000000, 1970.000000, 8223.500000, 8220.500000, 8266.500000
2152, 210498168.000000, 1928.125000, 8235.500000, 8226.000000, 8266.000000
2153, 210498328.000000, 1882.250000, 8243.500000, 8233.000000, 8276.500000
2154, 210498488.000000, 1837.250000, 8233.000000, 8235.500000, 8284.000000
2155, 210498648.000000, 1795.375000, 8274.000000, 8236.500000, 8291.000000
2156, 210498808.000000, 1758.750000, 8244.000000, 8249.000000, 8298.500000
2157, 210498968.000000, 1726.500000, 8280.500000, 8254.500000, 8315.500000
2158, 210499128.000000, 1693.750000, 8290.500000, 8259.000000, 8323.500000
2159, 210499288.000000, 1662.125000, 8297.000000, 8254.500000, 8321.500000
2160, 210499448.000000, 1627.750000, 8287.500000, 8238.000000, 8298.500000
2161, 210499608.000000, 1594.500000, 8243.000000, 8216.000000, 8263.000000
2162, 210499768.000000, 1564.500000, 8216.000000, 8197.000000, 8226.000000
2163, 210499928.000000, 1534.875000, 8167.500000, 8198.000000, 8207.500000
2164, 210500088.000000, 1507.375000, 8206.500000, 8182.000000, 8202.500000
2165, 210500248.000000, 1482.250000, 8144.500000, 8194.500000, 8185.000000
2166, 210500408.000000, 1460.875000, 8157.500000, 8172.000000, 8145.500000
2167, 210500568.000000, 1444.750000, 8131.500000, 8170.500000, 8117.500000
2168, 210500728.000000, 1432.500000, 8124.000000, 8176.000000, 8120.000000
2169, 210500888.000000, 1424.875000, 8129.500000, 8179.500000, 8125.000000
2170, 210501048.000000, 1419.250000, 8145.500000, 8180.500000, 8130.000000
2171, 210501208.000000, 1430.500000, 8142.500000, 8177.000000, 8130.000000
2172, 210501368.000000, 1483.250000, 8138.500000, 8173.000000, 8128.500000
2173, 210501528.000000, 1606.625000, 8136.000000, 8178.000000, 8129.000000
2174, 210501688.000000, 1789.875000, 8159.000000, 8172.500000, 8133.000000
2175, 210501848.000000, 2001.875000, 8134.000000, 8178.000000, 8128.000000
2176, 210502008.000000, 2205.250000, 8150.500000, 8171.000000, 8127.500000
2177, 210502168.000000, 2369.875000, 8161.000000, 8171.500000, 8130.000000
2178, 210502328.000000, 2482.250000, 8144.000000, 8177.000000, 8132.500000
2179, 210502488.000000, 2545.000000, 8163.000000, 8176.500000, 8138.500000
2180, 210502648.000000, 2573.125000, 8155.000000, 8189.500000, 8158.500000
2181, 210502808.000000, 2577.625000, 8185.000000, 8197.500000, 8186.000000
2182, 210502968.000000, 2572.500000, 8193.500000, 8204.000000, 8188.500000
2183, 210503128.000000, 2561.125000, 8166.000000, 8186.500000, 8159.500000
2184, 210503288.000000, 2544.000000, 8182.500000, 8164.000000, 8136.000000
2185, 210503448.000000, 2518.125000, 8172.000000, 8166.500000, 8138.500000
2186, 210503608.000000, 2481.875000, 8173.500000, 8165.500000, 8137.500000
2187, 210503768.000000, 2439.250000, 8209.000000, 8222.000000, 8218.500000
2188, 210503928.000000, 2393.250000, 8349.500000, 7902.500000, 7964.500000
2189, 210504088.000000, 2348.625000, 8097.500000, 8012.000000, 7938.500000
2190, 210504248.000000, 2306.125000, 8179.000000, 8194.500000, 8180.000000
2191, 210504408.000000, 2265.625000, 8184.500000, 8215.500000, 8207.500000
2192, 210504568.000000, 2222.250000, 8200.500000, 8222.000000, 8217.000000
2193, 210504728.000000, 2174.125000, 8202.500000, 8227.000000, 8229.000000
2194, 210504888.000000, 2118.000000, 8196.500000, 8239.500000, 8238.000000
2195, 210505048.000000, 2053.250000, 8201.000000, 8245.500000, 8247.500000
2196, 210505208.000000, 1985.500000, 8243.000000, 8239.500000, 8253.500000
2197, 210505368.000000, 1917.250000, 8236.000000, 8253.000000, 8271.000000
2198, 210505528.000000, 1853.125000, 8255.500000, 8258.000000, 8287.500000
2199, 210505688.000000, 1790.375000, 8274.500000, 8258.500000, 8293.500000
2200, 210505848.000000, 1736.500000, 8287.000000, 8250.500000, 8289.000000
2201, 210506008.000000, 1692.000000, 8296.500000, 8227.500000, 8269.000000
2202, 210506168.000000, 1655.750000, 8225.500000, 8214.000000, 8234.000000
2203, 210506328.000000, 1622.500000, 8196.000000, 8200.500000, 8203.000000
2204, 210506488.000000, 1593.375000, 8165.500000, 8188.000000, 8177.500000
2205, 210506648.000000, 1571.375000, 8166.000000, 8178.000000, 8166.000000
2206, 210506808.000000, 1553.000000, 8155.500000, 8172.500000, 8156.500000
2207, 210506968.000000, 1536.750000, 8154.000000, 8178.500000, 8163.500000
2208, 210507128.000000, 1520.875000, 8173.500000, 8187.500000, 8201.000000
2209, 210507288.000000, 1500.625000, 8201.500000, 8193.000000, 8226.500000
2210, 210507448.000000, 1477.250000, 8207.500000, 8189.500000, 8232.500000
2211, 210507608.000000, 1449.500000, 8187.500000, 8192.000000, 8228.000000
2212, 210507768.000000, 1424.000000, 8199.500000, 8184.500000, 8222.500000
2213, 210507928.000000, 1430.500000, 8188.500000, 8182.000000, 8217.500000
2214, 210508088.000000, 1495.250000, 8199.500000, 8179.000000, 8207.000000
2215, 210508248.000000, 1626.625000, 8188.500000, 8169.000000, 8199.500000
2216, 210508408.000000, 1793.375000, 8190.000000, 8165.500000, 8190.000000
2217, 210508568.000000, 1958.625000, 8178.000000, 8173.500000, 8190.500000
2218, 210508728.000000, 2106.000000, 8200.000000, 8188.500000, 8229.500000
2219, 210508888.000000, 2219.500000, 8201.500000, 8216.500000, 8261.500000
2220, 210509048.000000, 2290.250000, 8207.500000, 8182.500000, 8209.000000
2221, 210509208.000000, 2316.500000, 8180.000000, 8155.500000, 8167.500000
2222, 210509368.000000, 2312.750000, 8176.000000, 8153.500000, 8160.000000
2223, 210509528.000000, 2267.250000, 8154.000000, 8166.500000, 8163.500000
2224, 210509688.000000, 2098.500000, 8169.000000, 8161.500000, 8159.500000
2225, 210509848.000000, 2057.750000, 8292.500000, 8162.500000, 8233.500000
2226, 210510008.000000, 2050.125000, 8223.000000, 7883.500000, 7894.500000
2227, 210510168.000000, 2049.000000, 8131.500000, 8114.500000, 8083.500000
2228, 210510328.000000, 2049.000000, 8172.000000, 8209.000000, 8214.000000
2229, 210510488.000000, 2049.000000, 8201.500000, 8214.500000, 8228.000000
2230, 210510648.000000, 2049.000000, 8211.500000, 8208.500000, 8227.500000
2231, 210510808.000000, 2049.000000, 8184.500000, 8201.000000, 8184.500000
2232, 210510968.000000, 2049.000000, 8187.500000, 8206.500000, 8181.000000
2233, 210511128.000000, 2049.000000, 8173.500000, 8216.500000, 8186.500000
2234, 210511288.000000, 2049.000000, 8219.000000, 8215.000000, 8199.500000
2235, 210511448.000000, 2049.000000, 8226.500000, 8221.500000, 8207.500000
2236, 210511608.000000, 2049.000000, 8224.000000, 8232.000000, 8216.500000
2237, 210511768.000000, 2049.000000, 8242.500000, 8228.500000, 8221.500000
2238, 210511928.000000, 2049.000000, 8250.000000, 8213.500000, 8214.500000
2239, 210512088.000000, 2049.000000, 8228.000000, 8194.500000, 8187.000000
2240, 210512248.000000, 2049.000000, 8188.000000, 8177.000000, 8151.000000
2241, 210512408.000000, 2049.000000, 8147.500000, 8165.000000, 8125.500000
2242, 210512568.000000, 2049.000000, 8133.500000, 8162.000000, 8120.000000
2243, 210512728.000000, 2049.000000, 8129.500000, 8162.500000, 8114.500000
2244, 210512888.000000, 2049.000000, 8136.500000, 8160.500000, 8116.000000
2245, 210513048.000000, 2049.000000, 8142.000000, 8160.000000, 8117.000000
2246, 210513208.000000, 2049.000000, 8166.500000, 8156.500000, 8120.000000
2247, 210513368.000000, 2049.000000, 8157.500000, 8159.500000, 8128.500000
2248, 210513528.000000, 2049.000000, 8153.500000, 8166.500000, 8127.500000
2249, 210513688.000000, 2049.000000, 8141.000000, 8165.000000, 8123.000000
2250, 210513848.000000, 2049.000000, 8153.000000, 8158.000000, 8123.000000
2251, 210514008.000000, 2049.000000, 8150.500000, 8163.000000, 8126.500000
2252, 210514168.000000, 2049.000000, 8163.500000, 8158.000000, 8128.500000
2253, 210514328.000000, 2049.000000, 8151.500000, 8167.500000, 8138.000000
2254, 210514488.000000, 2049.000000, 8170.500000, 8163.000000, 8139.000000
2255, 210514648.000000, 2049.000000, 8172.000000, 8189.500000, 8184.500000
2256, 210514808.000000, 2117.750000, 8197.000000, 8207.000000, 8215.500000
2257, 210514968.000000, 2226.750000, 8209.000000, 8193.000000, 8194.500000
2258, 210515128.000000, 2293.375000, 8174.500000, 8174.500000, 8154.500000
2259, 210515288.000000, 2320.875000, 8162.000000, 8160.000000, 8135.000000
2260, 210515448.000000, 2319.625000, 8171.500000, 8153.500000, 8136.000000
2261, 210515608.000000, 2294.375000, 8153.000000, 8159.500000, 8132.000000
2262, 210515768.000000, 2248.625000, 8258.500000, 8173.500000, 8204.000000
2263, 210515928.000000, 2184.125000, 8291.500000, 7819.500000, 7843.500000
2264, 210516088.000000, 2107.875000, 8113.500000, 8077.000000, 8010.000000
2265, 210516248.000000, 2030.500000, 8177.500000, 8198.500000, 8183.500000
2266, 210516408.000000, 1966.000000, 8184.000000, 8211.500000, 8197.500000
2267, 210516568.000000, 1918.375000, 8176.500000, 8224.500000, 8205.500000
2268, 210516728.000000, 1888.250000, 8199.500000, 8219.000000, 8216.500000
2269, 210516888.000000, 1871.125000, 8197.000000, 8222.000000, 8219.000000
2270, 210517048.000000, 1858.625000, 8222.500000, 8221.000000, 8218.500000
2271, 210517208.000000, 1845.500000, 8223.000000, 8222.500000, 8229.500000
2272, 210517368.000000, 1831.875000, 8233.500000, 8233.500000, 8241.000000
2273, 210517528.000000, 1812.625000, 8240.000000, 8243.500000, 8252.500000
2274, 210517688.000000, 1787.375000, 8283.500000, 8242.000000, 8273.000000
2275, 210517848.000000, 1757.500000, 8298.000000, 8240.000000, 8295.500000
2276, 210518008.000000, 1724.750000, 8279.500000, 8218.500000, 8284.500000
2277, 210518168.000000, 1682.250000, 8237.500000, 8214.500000, 8261.000000
2278, 210518328.000000, 1636.375000, 8217.500000, 8195.000000, 8234.000000
2279, 210518488.000000, 1588.625000, 8191.000000, 8185.000000, 8209.500000
2280, 210518648.000000, 1547.000000, 8171.500000, 8184.000000, 8197.000000
2281, 210518808.000000, 1506.625000, 8176.500000, 8182.000000, 8194.000000
2282, 210518968.000000, 1465.875000, 8163.000000, 8193.000000, 8197.500000
2283, 210519128.000000, 1433.625000, 8177.500000, 8186.500000, 8194.000000
2284, 210519288.000000, 1417.500000, 8173.500000, 8184.500000, 8192.000000
2285, 210519448.000000, 1413.250000, 8177.000000, 8186.000000, 8191.000000
2286, 210519608.000000, 1407.250000, 8182.000000, 8196.000000, 8201.500000
2287, 210519768.000000, 1407.500000, 8173.500000, 8197.500000, 8202.000000
2288, 210519928.000000, 1439.500000, 8196.500000, 8193.500000, 8202.500000
2289, 210520088.000000, 1530.250000, 8168.000000, 8201.500000, 8195.000000
2290, 210520248.000000, 1688.250000, 8181.500000, 8200.500000, 8202.500000
2291, 210520408.000000, 1884.750000, 8164.500000, 8207.500000, 8204.500000
2292, 210520568.000000, 2086.250000, 8175.000000, 8240.500000, 8261.000000
2293, 210520728.000000, 2255.500000, 8203.000000, 8255.500000, 8289.000000
2294, 210520888.000000, 2381.750000, 8196.000000, 8225.000000, 8240.500000
2295, 210521048.000000, 2458.250000, 8176.500000, 8201.000000, 8199.000000
2296, 210521208.000000, 2497.625000, 8157.000000, 8203.000000, 8196.000000
2297, 210521368.000000, 2512.375000, 8168.000000, 8209.000000, 8202.000000
2298, 210521528.000000, 2508.500000, 8185.000000, 8204.500000, 8198.000000
2299, 210521688.000000, 2486.125000, 8288.000000, 8129.500000, 8182.500000
2300, 210521848.000000, 2449.000000, 8133.500000, 7894.000000, 7838.000000
2301, 210522008.000000, 2410.750000, 8137.500000, 8177.000000, 8127.000000
2302, 210522168.000000, 2384.875000, 8152.000000, 8255.000000, 8231.500000
2303, 210522328.000000, 2375.250000, 8178.500000, 8261.500000, 8251.000000
2304, 210522488.000000, 2375.750000, 8197.000000, 8267.000000, 8255.000000
2305, 210522648.000000, 2384.875000, 8199.000000, 8269.500000, 8264.500000
2306, 210522808.000000, 2398.250000, 8205.500000, 8272.000000, 8272.000000
2307, 210522968.000000, 2411.500000, 8206.500000, 8285.000000, 8279.000000
2308, 210523128.000000, 2415.125000, 8211.500000, 8299.500000, 8296.000000
2309, 210523288.000000, 2400.250000, 8253.500000, 8290.000000, 8311.000000
2310, 210523448.000000, 2367.875000, 8246.500000, 8301.000000, 8314.000000
2311, 210523608.000000, 2326.625000, 8260.500000, 8295.500000, 8319.000000
2312, 210523768.000000, 2285.875000, 8275.000000, 8281.500000, 8309.500000
2313, 210523928.000000, 2247.750000, 8230.500000, 8262.000000, 8273.000000
2314, 210524088.000000, 2212.750000, 8173.500000, 8251.000000, 8239.000000
2315, 210524248.000000, 2174.375000, 8177.500000, 8226.500000, 8214.000000
2316, 210524408.000000, 2135.125000, 8139.000000, 8229.500000, 8199.500000
2317, 210524568.000000, 2087.125000, 8149.500000, 8230.500000, 8206.500000
2318, 210524728.000000, 2030.875000, 8156.000000, 8236.500000, 8217.000000
2319, 210524888.000000, 1976.125000, 8150.000000, 8231.500000, 8211.000000
2320, 210525048.000000, 1928.250000, 8153.000000, 8235.000000, 8214.500000
2321, 210525208.000000, 1887.000000, 8152.500000, 8237.500000, 8220.500000
2322, 210525368.000000, 1847.875000, 8170.500000, 8238.000000, 8224.000000
2323, 210525528.000000, 1812.125000, 8158.500000, 8241.000000, 8223.000000
2324, 210525688.000000, 1791.375000, 8169.000000, 8231.000000, 8218.000000
2325, 210525848.000000, 1821.000000, 8166.500000, 8232.000000, 8218.000000
2326, 210526008.000000, 1913.000000, 8154.500000, 8237.000000, 8218.500000
2327, 210526168.000000, 2063.500000, 8186.000000, 8229.000000, 8225.000000
2328, 210526328.000000, 2240.000000, 8173.000000, 8262.500000, 8264.000000
2329, 210526488.000000, 2415.375000, 8191.500000, 8274.500000, 8295.500000
2330, 210526648.000000, 2565.000000, 8197.500000, 8243.000000, 8242.500000
2331, 210526808.000000, 2669.625000, 8162.000000, 8225.500000, 8211.000000
2332, 210526968.000000, 2729.875000, 8171.000000, 8216.000000, 8200.500000
2333, 210527128.000000, 2742.625000, 8147.500000, 8216.000000, 8195.500000
2334, 210527288.000000, 2727.250000, 8173.000000, 8212.500000, 8190.000000
2335, 210527448.000000, 2690.875000, 8274.500000, 8198.000000, 8246.000000
2336, 210527608.000000, 2637.000000, 8210.500000, 7886.500000, 7888.000000
2337, 210527768.000000, 2572.500000, 8134.500000, 8141.000000, 8097.000000
2338, 210527928.000000, 2503.375000, 8170.500000, 8241.500000, 8227.500000
2339, 210528088.000000, 2438.000000, 8179.000000, 8240.000000, 8230.500000
2340, 210528248.000000, 2384.375000, 8201.000000, 8230.500000, 8233.500000
2341, 210528408.000000, 2346.875000, 8189.000000, 8239.000000, 8227.500000
2342, 210528568.000000, 2322.125000, 8204.500000, 8241.000000, 8238.000000
2343, 210528728.000000, 2298.250000, 8234.000000, 8251.500000, 8277.500000
2344, 210528888.000000, 2271.375000, 8227.000000, 8273.500000, 8314.000000
2345, 210529048.000000, 2237.000000, 8271.000000, 8284.500000, 8342.000000
2346, 210529208.000000, 2192.375000, 8298.500000, 8287.000000, 8358.000000
2347, 210529368.000000, 2141.125000, 8297.000000, 8293.500000, 8364.500000
2348, 210529528.000000, 2085.000000, 8290.500000, 8286.000000, 8365.500000
2349, 210529688.000000, 2023.625000, 8279.000000, 8258.000000, 8325.000000
2350, 210529848.000000, 1960.125000, 8224.000000, 8242.500000, 8290.500000
2351, 210530008.000000, 1900.375000, 8192.000000, 8229.500000, 8265.500000
2352, 210530168.000000, 1845.625000, 8185.500000, 8225.500000, 8253.500000
2353, 210530328.000000, 1799.625000, 8180.500000, 8220.000000, 8248.500000
2354, 210530488.000000, 1759.875000, 8199.500000, 8217.500000, 8249.500000
2355, 210530648.000000, 1726.500000, 8183.000000, 8223.500000, 8250.500000
2356, 210530808.000000, 1694.625000, 8188.000000, 8227.000000, 8259.500000
2357, 210530968.000000, 1662.750000, 8194.000000, 8230.500000, 8258.500000
2358, 210531128.000000, 1625.875000, 8193.500000, 8227.500000, 8257.500000
2359, 210531288.000000, 1584.625000, 8186.000000, 8221.500000, 8248.500000
2360, 210531448.000000, 1549.375000, 8184.500000, 8223.000000, 8246.000000
2361, 210531608.000000, 1556.250000, 8191.500000, 8223.000000, 8247.000000
2362, 210531768.000000, 1649.750000, 8185.500000, 8221.000000, 8234.000000
2363, 210531928.000000, 1845.375000, 8175.500000, 8227.500000, 8232.500000
2364, 210532088.000000, 2105.375000, 8163.500000, 8232.000000, 8229.000000
2365, 210532248.000000, 2372.250000, 8175.500000, 8234.000000, 8228.500000
2366, 210532408.000000, 2607.125000, 8174.000000, 8199.000000, 8169.500000
2367, 210532568.000000, 2790.875000, 8120.500000, 8187.500000, 8134.500000
2368, 210532728.000000, 2917.750000, 8138.500000, 8175.000000, 8125.000000
2369, 210532888.000000, 2987.625000, 8128.500000, 8172.500000, 8118.500000
2370, 210533048.000000, 3007.625000, 8145.000000, 8187.500000, 8134.500000
2371, 210533208.000000, 2995.250000, 8272.500000, 7991.000000, 8015.500000
2372, 210533368.000000, 2959.250000, 8074.000000, 7882.000000, 7787.500000
2373, 210533528.000000, 2903.000000, 8139.000000, 8159.500000, 8099.500000
2374, 210533688.000000, 2841.125000, 8165.500000, 8214.000000, 8182.500000
2375, 210533848.000000, 2778.625000, 8168.000000, 8221.500000, 8189.000000
2376, 210534008.000000, 2722.625000, 8172.000000, 8227.000000, 8195.000000
2377, 210534168.000000, 2677.750000, 8179.000000, 8230.500000, 8205.500000
2378, 210534328.000000, 2646.375000, 8192.000000, 8236.000000, 8212.000000
2379, 210534488.000000, 2626.000000, 8193.500000, 8239.000000, 8221.500000
2380, 210534648.000000, 2605.125000, 8200.000000, 8248.000000, 8230.500000
2381, 210534808.000000, 2579.250000, 8234.500000, 8252.000000, 8251.500000
2382, 210534968.000000, 2551.500000, 8234.500000, 8260.500000, 8264.000000
2383, 210535128.000000, 2522.750000, 8255.000000, 8251.500000, 8262.500000
2384, 210535288.000000, 2482.250000, 8267.000000, 8226.000000, 8241.000000
2385, 210535448.000000, 2433.125000, 8216.500000, 8206.000000, 8204.500000
2386, 210535608.000000, 2381.500000, 8174.500000, 8191.500000, 8174.000000
2387, 210535768.000000, 2339.375000, 8151.500000, 8182.000000, 8155.500000
2388, 210535928.000000, 2295.750000, 8152.000000, 8171.500000, 8144.500000
2389, 210536088.000000, 2249.125000, 8149.500000, 8163.000000, 8138.000000
2390, 210536248.000000, 2181.500000, 8153.000000, 8170.500000, 8145.500000
2391, 210536408.000000, 2106.000000, 8161.000000, 8176.500000, 8156.500000
2392, 210536568.000000, 2031.500000, 8165.000000, 8178.000000, 8160.500000
2393, 210536728.000000, 1968.375000, 8160.500000, 8172.000000, 8158.000000
2394, 210536888.000000, 1912.750000, 8169.500000, 8176.000000, 8158.500000
2395, 210537048.000000, 1860.250000, 8169.500000, 8169.500000, 8153.000000
2396, 210537208.000000, 1831.625000, 8174.500000, 8171.000000, 8154.500000
2397, 210537368.000000, 1864.875000, 8163.500000, 8166.000000, 8152.500000
2398, 210537528.000000, 1990.750000, 8183.500000, 8161.500000, 8154.000000
2399, 210537688.000000, 2217.625000, 8177.500000, 8166.000000, 8138.500000
2400, 210537848.000000, 2436.125000, 8175.500000, 8160.000000, 8146.500000
2401, 210538008.000000, 2631.875000, 8184.500000, 8160.000000, 8146.500000
2402, 210538168.000000, 2779.750000, 8183.000000, 8171.000000, 8162.500000
2403, 210538328.000000, 2867.500000, 8197.000000, 8186.000000, 8196.500000
2404, 210538488.000000, 2895.625000, 8223.500000, 8192.000000, 8213.000000
2405, 210538648.000000, 2877.625000, 8197.000000, 8172.500000, 8168.000000
2406, 210538808.000000, 2840.000000, 8187.000000, 8147.500000, 8131.500000
2407, 210538968.000000, 2791.375000, 8175.500000, 8141.000000, 8126.000000
2408, 210539128.000000, 2729.250000, 8181.500000, 8131.000000, 8119.500000
2409, 210539288.000000, 2672.500000, 8185.500000, 8168.000000, 8151.000000
2410, 210539448.000000, 2628.000000, 8342.500000, 7879.500000, 7945.000000
2411, 210539608.000000, 2594.875000, 8062.500000, 7902.500000, 7815.500000
2412, 210539768.000000, 2567.375000, 8157.500000, 8149.500000, 8124.000000
2413, 210539928.000000, 2537.125000, 8204.000000, 8193.000000, 8194.000000
2414, 210540088.000000, 2501.875000, 8186.500000, 8208.500000, 8224.500000
2415, 210540248.000000, 2460.250000, 8219.000000, 8210.500000, 8245.500000
2416, 210540408.000000, 2409.750000, 8229.500000, 8225.500000, 8262.500000
2417, 210540568.000000, 2349.250000, 8237.000000, 8231.500000, 8276.500000
2418, 210540728.000000, 2281.500000, 8243.500000, 8235.000000, 8278.500000
2419, 210540888.000000, 2210.125000, 8271.000000, 8233.000000, 8295.000000
2420, 210541048.000000, 2140.375000, 8298.500000, 8245.000000, 8315.000000
2421, 210541208.000000, 2076.625000, 8311.000000, 8255.000000, 8325.500000
2422, 210541368.000000, 2016.875000, 8302.500000, 8247.500000, 8319.000000
2423, 210541528.000000, 1961.125000, 8320.000000, 8225.000000, 8303.000000
2424, 210541688.000000, 1910.375000, 8258.000000, 8213.000000, 8265.000000
2425, 210541848.000000, 1865.625000, 8191.000000, 8204.500000, 8240.000000
2426, 210542008.000000, 1828.750000, 8185.000000, 8198.500000, 8216.000000
2427, 210542168.000000, 1800.000000, 8166.000000, 8187.000000, 8201.000000
2428, 210542328.000000, 1784.625000, 8182.000000, 8183.500000, 8198.500000
2429, 210542488.000000, 1777.625000, 8175.000000, 8185.500000, 8199.500000
2430, 210542648.000000, 1777.000000, 8174.500000, 8198.000000, 8209.000000
2431, 210542808.000000, 1774.875000, 8178.000000, 8195.500000, 8215.000000
2432, 210542968.000000, 1766.500000, 8186.000000, 8199.500000, 8218.500000
2433, 210543128.000000, 1765.375000, 8183.000000, 8197.500000, 8214.500000
2434, 210543288.000000, 1817.125000, 8182.500000, 8184.000000, 8187.500000
2435, 210543448.000000, 1968.875000, 8180.500000, 8173.500000, 8167.000000
2436, 210543608.000000, 2216.125000, 8158.000000, 8178.000000, 8155.500000
2437, 210543768.000000, 2520.125000, 8157.500000, 8170.500000, 8147.000000
2438, 210543928.000000, 2815.875000, 8163.000000, 8167.500000, 8143.500000
2439, 210544088.000000, 3058.750000, 8135.000000, 8170.500000, 8134.500000
2440, 210544248.000000, 3234.250000, 8150.000000, 8172.500000, 8139.000000
2441, 210544408.000000, 3353.125000, 8158.000000, 8169.000000, 8138.000000
2442, 210544568.000000, 3423.125000, 8162.000000, 8170.000000, 8142.500000
2443, 210544728.000000, 3453.250000, 8159.500000, 8174.000000, 8145.000000
2444, 210544888.000000, 3458.125000, 8158.000000, 8196.500000, 8174.500000
2445, 210545048.000000, 3437.375000, 8180.500000, 8213.000000, 8210.500000
2446, 210545208.000000, 3385.125000, 8220.000000, 8196.000000, 8195.500000
2447, 210545368.000000, 3312.000000, 8159.000000, 8185.500000, 8161.500000
2448, 210545528.000000, 3232.875000, 8150.500000, 8168.000000, 8132.500000
2449, 210545688.000000, 3162.250000, 8178.500000, 8159.000000, 8136.000000
2450, 210545848.000000, 3100.875000, 8170.000000, 8163.500000, 8136.500000
2451, 210546008.000000, 3049.625000, 8235.000000, 8204.000000, 8217.500000
2452, 210546168.000000, 3015.500000, 8351.500000, 7846.000000, 7897.000000
2453, 210546328.000000, 2984.125000, 8099.500000, 8057.000000, 7980.500000
2454, 210546488.000000, 2945.250000, 8175.500000, 8202.000000, 8182.500000
2455, 210546648.000000, 2886.500000, 8182.500000, 8216.500000, 8200.500000
2456, 210546808.000000, 2805.500000, 8197.000000, 8225.000000, 8221.500000
2457, 210546968.000000, 2703.875000, 8181.500000, 8231.500000, 8220.000000
2458, 210547128.000000, 2598.250000, 8216.000000, 8227.000000, 8227.000000
2459, 210547288.000000, 2493.250000, 8212.000000, 8232.500000, 8236.000000
2460, 210547448.000000, 2391.000000, 8218.000000, 8246.500000, 8252.500000
2461, 210547608.000000, 2303.375000, 8242.000000, 8250.500000, 8267.500000
2462, 210547768.000000, 2235.000000, 8261.000000, 8251.500000, 8277.500000
2463, 210547928.000000, 2183.875000, 8280.000000, 8250.500000, 8282.000000
2464, 210548088.000000, 2139.125000, 8289.000000, 8236.000000, 8275.500000
2465, 210548248.000000, 2099.375000, 8271.000000, 8232.000000, 8258.000000
2466, 210548408.000000, 2063.750000, 8223.500000, 8212.000000, 8225.000000
2467, 210548568.000000, 2030.500000, 8180.500000, 8197.000000, 8195.500000
2468, 210548728.000000, 1999.625000, 8155.000000, 8186.000000, 8171.500000
2469, 210548888.000000, 1963.375000, 8153.000000, 8183.500000, 8160.500000
2470, 210549048.000000, 1921.250000, 8140.000000, 8188.500000, 8165.000000
2471, 210549208.000000, 1868.375000, 8142.000000, 8184.000000, 8164.000000
2472, 210549368.000000, 1809.000000, 8156.000000, 8191.500000, 8174.500000
2473, 210549528.000000, 1751.000000, 8145.500000, 8189.000000, 8172.500000
2474, 210549688.000000, 1691.875000, 8175.000000, 8181.000000, 8172.000000
2475, 210549848.000000, 1652.750000, 8170.500000, 8180.000000, 8169.000000
2476, 210550008.000000, 1669.625000, 8170.000000, 8173.000000, 8157.000000
2477, 210550168.000000, 1794.625000, 8151.500000, 8169.000000, 8151.500000
2478, 210550328.000000, 2020.875000, 8154.500000, 8155.000000, 8137.500000
2479, 210550488.000000, 2309.625000, 8158.500000, 8155.500000, 8130.500000
2480, 210550648.000000, 2592.500000, 8148.500000, 8152.500000, 8132.000000
2481, 210550808.000000, 2823.500000, 8161.500000, 8168.500000, 8164.500000
2482, 210550968.000000, 2979.500000, 8173.000000, 8168.500000, 8178.000000
2483, 210551128.000000, 3066.625000, 8172.000000, 8173.500000, 8185.000000
2484, 210551288.000000, 3104.000000, 8169.500000, 8167.000000, 8180.000000
2485, 210551448.000000, 3102.750000, 8166.000000, 8165.500000, 8181.000000
2486, 210551608.000000, 3072.125000, 8182.000000, 8172.500000, 8187.000000
2487, 210551768.000000, 3010.750000, 8186.000000, 8164.500000, 8180.500000
2488, 210551928.000000, 2925.625000, 8175.500000, 8168.500000, 8177.500000
2489, 210552088.000000, 2826.000000, 8174.500000, 8167.000000, 8178.500000
2490, 210552248.000000, 2728.750000, 8180.500000, 8190.500000, 8209.500000
2491, 210552408.000000, 2644.125000, 8194.500000, 8205.500000, 8233.500000
2492, 210552568.000000, 2578.000000, 8196.000000, 8183.500000, 8196.000000
2493, 210552728.000000, 2523.750000, 8171.500000, 8172.500000, 8171.000000
2494, 210552888.000000, 2466.000000, 8172.000000, 8157.500000, 8159.000000
2495, 210553048.000000, 2399.125000, 8162.500000, 8171.000000, 8162.500000
2496, 210553208.000000, 2324.750000, 8172.000000, 8176.000000, 8167.000000
2497, 210553368.000000, 2249.750000, 8266.000000, 8184.000000, 8237.000000
2498, 210553528.000000, 2172.000000, 8244.000000, 7872.500000, 7890.000000
2499, 210553688.000000, 2092.375000, 8113.500000, 8107.000000, 8060.000000
2500, 210553848.000000, 2022.250000, 8177.000000, 8212.000000, 8215.000000
2501, 210554008.000000, 1967.875000, 8182.000000, 8223.500000, 8227.000000
2502, 210554168.000000, 1923.125000, 8162.000000, 8228.000000, 8213.500000
2503, 210554328.000000, 1884.375000, 8178.500000, 8226.000000, 8207.000000
2504, 210554488.000000, 1852.375000, 8179.500000, 8228.000000, 8215.000000
2505, 210554648.000000, 1835.125000, 8203.500000, 8233.000000, 8231.500000
2506, 210554808.000000, 1826.250000, 8201.000000, 8244.000000, 8239.500000
2507, 210554968.000000, 1819.875000, 8219.000000, 8246.000000, 8252.000000
2508, 210555128.000000, 1810.500000, 8246.000000, 8250.000000, 8259.000000
2509, 210555288.000000, 1798.125000, 8258.000000, 8251.000000, 8262.000000
2510, 210555448.000000, 1787.500000, 8264.500000, 8242.500000, 8260.000000
2511, 210555608.000000, 1775.750000, 8252.000000, 8222.500000, 8237.500000
2512, 210555768.000000, 1763.500000, 8194.000000, 8215.500000, 8208.000000
2513, 210555928.000000, 1749.750000, 8171.500000, 8188.500000, 8172.000000
2514, 210556088.000000, 1732.875000, 8144.000000, 8177.500000, 8144.000000
2515, 210556248.000000, 1708.875000, 8157.500000, 8170.000000, 8140.500000
2516, 210556408.000000, 1679.500000, 8129.000000, 8175.500000, 8140.500000
2517, 210556568.000000, 1646.375000, 8128.500000, 8173.500000, 8134.500000
2518, 210556728.000000, 1606.125000, 8147.000000, 8176.000000, 8143.000000
2519, 210556888.000000, 1561.250000, 8151.000000, 8178.000000, 8149.000000
2520, 210557048.000000, 1519.000000, 8152.000000, 8179.000000, 8152.000000
2521, 210557208.000000, 1492.625000, 8170.000000, 8170.000000, 8153.000000
2522, 210557368.000000, 1520.250000, 8160.000000, 8171.000000, 8145.000000
2523, 210557528.000000, 1661.250000, 8179.000000, 8158.500000, 8143.000000
2524, 210557688.000000, 1918.375000, 8171.000000, 8158.500000, 8138.500000
2525, 210557848.000000, 2250.375000, 8166.000000, 8158.000000, 8142.000000
2526, 210558008.000000, 2577.500000, 8183.500000, 8157.500000, 8142.000000
2527, 210558168.000000, 2839.625000, 8160.500000, 8163.000000, 8138.500000
2528, 210558328.000000, 3010.250000, 8166.500000, 8161.500000, 8141.000000
2529, 210558488.000000, 3095.375000, 8171.000000, 8161.500000, 8143.000000
2530, 210558648.000000, 3113.875000, 8166.500000, 8165.000000, 8148.000000
2531, 210558808.000000, 3089.000000, 8175.500000, 8164.000000, 8150.000000
2532, 210558968.000000, 3037.125000, 8189.500000, 8160.000000, 8150.500000
2533, 210559128.000000, 2956.125000, 8171.000000, 8165.500000, 8151.000000
2534, 210559288.000000, 2856.375000, 8190.500000, 8184.500000, 8192.500000
2535, 210559448.000000, 2741.375000, 8196.000000, 8198.000000, 8210.000000
2536, 210559608.000000, 2622.875000, 8203.000000, 8178.000000, 8182.500000
2537, 210559768.000000, 2514.750000, 8179.500000, 8167.000000, 8159.000000
2538, 210559928.000000, 2428.875000, 8186.000000, 8156.500000, 8151.500000
2539, 210560088.000000, 2370.875000, 8182.500000, 8163.500000, 8155.500000
2540, 210560248.000000, 2328.000000, 8188.000000, 8166.500000, 8156.000000
2541, 210560408.000000, 2289.625000, 8273.500000, 8154.500000, 8201.000000
2542, 210560568.000000, 2243.500000, 8257.500000, 7833.500000, 7849.000000
2543, 210560728.000000, 2184.875000, 8139.500000, 8087.000000, 8040.500000
2544, 210560888.000000, 2110.000000, 8188.000000, 8200.000000, 8196.500000
2545, 210561048.000000, 2021.750000, 8180.500000, 8212.000000, 8211.500000
2546, 210561208.000000, 1926.750000, 8194.000000, 8218.500000, 8213.500000
2547, 210561368.000000, 1833.500000, 8207.000000, 8215.000000, 8217.000000
2548, 210561528.000000, 1747.125000, 8229.500000, 8212.000000, 8217.000000
2549, 210561688.000000, 1673.500000, 8201.000000, 8224.000000, 8229.000000
2550, 210561848.000000, 1608.125000, 8229.500000, 8229.500000, 8237.500000
2551, 210562008.000000, 1552.125000, 8244.000000, 8233.500000, 8250.500000
2552, 210562168.000000, 1504.250000, 8246.500000, 8241.000000, 8257.500000
2553, 210562328.000000, 1463.375000, 8268.500000, 8235.000000, 8265.000000
2554, 210562488.000000, 1426.750000, 8292.500000, 8225.000000, 8256.000000
2555, 210562648.000000, 1391.750000, 8244.500000, 8211.000000, 8223.000000
2556, 210562808.000000, 1357.625000, 8212.000000, 8180.000000, 8179.500000
2557, 210562968.000000, 1326.500000, 8210.000000, 8154.500000, 8156.500000
2558, 210563128.000000, 1298.375000, 8185.500000, 8158.000000, 8157.500000
2559, 210563288.000000, 1269.500000, 8153.000000, 8161.500000, 8154.000000
2560, 210563448.000000, 1239.500000, 8169.000000, 8168.000000, 8169.500000
2561, 210563608.000000, 1206.750000, 8180.000000, 8169.000000, 8181.000000
2562, 210563768.000000, 1170.875000, 8203.000000, 8171.500000, 8185.000000
2563, 210563928.000000, 1133.375000, 8180.500000, 8181.000000, 8192.000000
2564, 210564088.000000, 1094.000000, 8184.000000, 8183.000000, 8197.000000
2565, 210564248.000000, 1064.750000, 8196.000000, 8178.000000, 8196.500000
2566, 210564408.000000, 1080.625000, 8182.000000, 8186.000000, 8196.500000
2567, 210564568.000000, 1202.625000, 8181.000000, 8177.000000, 8189.500000
2568, 210564728.000000, 1463.625000, 8178.500000, 8178.000000, 8190.000000
2569, 210564888.000000, 1818.625000, 8175.000000, 8181.000000, 8187.000000
2570, 210565048.000000, 2194.500000, 8181.500000, 8180.500000, 8191.500000
2571, 210565208.000000, 2517.625000, 8165.500000, 8187.500000, 8192.500000
2572, 210565368.000000, 2760.500000, 8176.500000, 8183.000000, 8187.000000
2573, 210565528.000000, 2907.125000, 8172.500000, 8182.000000, 8187.000000
2574, 210565688.000000, 2983.375000, 8163.000000, 8190.000000, 8190.500000
2575, 210565848.000000, 3005.375000, 8180.000000, 8185.000000, 8193.000000
2576, 210566008.000000, 2990.250000, 8162.000000, 8186.000000, 8178.500000
2577, 210566168.000000, 2951.125000, 8152.000000, 8189.500000, 8175.500000
2578, 210566328.000000, 2886.625000, 8182.000000, 8210.500000, 8220.500000
2579, 210566488.000000, 2798.750000, 8184.000000, 8219.500000, 8233.500000
2580, 210566648.000000, 2699.125000, 8191.000000, 8194.500000, 8205.000000
2581, 210566808.000000, 2606.250000, 8188.500000, 8178.500000, 8179.000000
2582, 210566968.000000, 2528.625000, 8186.000000, 8172.000000, 8168.000000
2583, 210567128.000000, 2467.125000, 8182.500000, 8170.500000, 8164.500000
2584, 210567288.000000, 2417.375000, 8193.500000, 8180.000000, 8173.000000
2585, 210567448.000000, 2379.750000, 8314.000000, 8037.000000, 8104.500000
2586, 210567608.000000, 2342.000000, 8158.000000, 7874.500000, 7838.500000
2587, 210567768.000000, 2298.250000, 8159.000000, 8162.000000, 8128.500000
2588, 210567928.000000, 2252.375000, 8200.000000, 8221.000000, 8222.500000
2589, 210568088.000000, 2202.500000, 8191.000000, 8231.500000, 8234.500000
2590, 210568248.000000, 2149.750000, 8222.000000, 8237.500000, 8243.500000
2591, 210568408.000000, 2090.625000, 8227.000000, 8235.500000, 8248.000000
2592, 210568568.000000, 2028.125000, 8203.000000, 8244.000000, 8249.500000
2593, 210568728.000000, 1969.750000, 8218.000000, 8249.500000, 8264.500000
2594, 210568888.000000, 1917.500000, 8241.500000, 8255.500000, 8275.500000
2595, 210569048.000000, 1862.375000, 8237.000000, 8269.500000, 8290.500000
2596, 210569208.000000, 1799.375000, 8277.500000, 8273.500000, 8306.500000
2597, 210569368.000000, 1723.000000, 8287.000000, 8269.000000, 8309.500000
2598, 210569528.000000, 1641.125000, 8297.000000, 8253.000000, 8306.000000
2599, 210569688.000000, 1561.375000, 8267.500000, 8238.500000, 8276.000000
2600, 210569848.000000, 1486.625000, 8213.000000, 8221.000000, 8233.000000
2601, 210570008.000000, 1425.750000, 8173.500000, 8203.500000, 8203.000000
2602, 210570168.000000, 1377.125000, 8183.500000, 8188.500000, 8184.500000
2603, 210570328.000000, 1345.875000, 8157.000000, 8190.000000, 8178.000000
2604, 210570488.000000, 1321.250000, 8175.000000, 8197.500000, 8186.500000
2605, 210570648.000000, 1295.250000, 8165.000000, 8199.000000, 8188.500000
2606, 210570808.000000, 1267.500000, 8163.500000, 8211.000000, 8195.500000
2607, 210570968.000000, 1235.375000, 8174.000000, 8203.500000, 8192.500000
2608, 210571128.000000, 1192.250000, 8175.000000, 8205.000000, 8196.000000
2609, 210571288.000000, 1154.625000, 8167.500000, 8204.500000, 8193.500000
2610, 210571448.000000, 1158.625000, 8169.500000, 8202.000000, 8190.000000
2611, 210571608.000000, 1273.500000, 8158.000000, 8199.500000, 8180.500000
2612, 210571768.000000, 1514.750000, 8180.500000, 8185.500000, 8167.000000
2613, 210571928.000000, 1855.375000, 8141.000000, 8191.500000, 8158.500000
2614, 210572088.000000, 2210.750000, 8156.000000, 8189.500000, 8156.000000
2615, 210572248.000000, 2517.750000, 8149.000000, 8183.000000, 8149.500000
2616, 210572408.000000, 2740.500000, 8145.000000, 8185.500000, 8144.500000
2617, 210572568.000000, 2874.375000, 8165.000000, 8179.000000, 8141.500000
2618, 210572728.000000, 2926.500000, 8163.000000, 8177.000000, 8140.000000
2619, 210572888.000000, 2920.500000, 8158.000000, 8177.000000, 8142.000000
2620, 210573048.000000, 2882.250000, 8159.500000, 8178.500000, 8139.500000
2621, 210573208.000000, 2825.250000, 8163.000000, 8171.500000, 8136.500000
2622, 210573368.000000, 2752.125000, 8164.500000, 8166.500000, 8134.500000
2623, 210573528.000000, 2656.000000, 8164.000000, 8198.000000, 8175.000000
2624, 210573688.000000, 2551.375000, 8193.500000, 8192.000000, 8178.000000
2625, 210573848.000000, 2451.500000, 8168.000000, 8175.000000, 8144.500000
2626, 210574008.000000, 2369.750000, 8166.000000, 8172.500000, 8149.500000
2627, 210574168.000000, 2309.500000, 8162.000000, 8168.000000, 8160.500000
2628, 210574328.000000, 2266.000000, 8191.000000, 8177.500000, 8177.000000
2629, 210574488.000000, 2230.750000, 8191.000000, 8184.000000, 8187.000000
2630, 210574648.000000, 2193.000000, 8348.500000, 8092.000000, 8185.000000
2631, 210574808.000000, 2144.375000, 8193.500000, 7894.000000, 7887.500000
2632, 210574968.000000, 2080.375000, 8161.500000, 8156.500000, 8139.500000
2633, 210575128.000000, 2007.000000, 8206.000000, 8222.500000, 8242.000000
2634, 210575288.000000, 1922.375000, 8208.500000, 8231.000000, 8252.000000
2635, 210575448.000000, 1832.500000, 8197.500000, 8237.000000, 8253.500000
2636, 210575608.000000, 1743.375000, 8204.500000, 8238.500000, 8253.000000
2637, 210575768.000000, 1660.375000, 8206.500000, 8240.000000, 8257.500000
2638, 210575928.000000, 1591.125000, 8239.000000, 8237.000000, 8265.500000
2639, 210576088.000000, 1536.875000, 8241.000000, 8247.000000, 8278.000000
2640, 210576248.000000, 1497.750000, 8239.000000, 8255.500000, 8291.000000
2641, 210576408.000000, 1466.875000, 8258.000000, 8262.000000, 8302.000000
2642, 210576568.000000, 1442.125000, 8285.500000, 8256.500000, 8304.000000
2643, 210576728.000000, 1422.000000, 8300.500000, 8243.000000, 8299.500000
2644, 210576888.000000, 1402.875000, 8264.000000, 8227.000000, 8278.000000
2645, 210577048.000000, 1386.750000, 8211.500000, 8213.000000, 8239.000000
2646, 210577208.000000, 1371.750000, 8167.000000, 8201.000000, 8205.500000
2647, 210577368.000000, 1356.750000, 8141.000000, 8190.000000, 8183.500000
2648, 210577528.000000, 1343.625000, 8173.000000, 8184.500000, 8182.000000
2649, 210577688.000000, 1336.250000, 8149.500000, 8187.000000, 8176.000000
2650, 210577848.000000, 1331.250000, 8143.500000, 8187.500000, 8169.500000
2651, 210578008.000000, 1327.250000, 8168.500000, 8175.500000, 8160.000000
2652, 210578168.000000, 1321.375000, 8164.000000, 8180.000000, 8169.500000
2653, 210578328.000000, 1308.375000, 8158.000000, 8196.000000, 8192.500000
2654, 210578488.000000, 1296.125000, 8182.500000, 8196.000000, 8205.500000
2655, 210578648.000000, 1328.000000, 8177.500000, 8201.000000, 8213.500000
2656, 210578808.000000, 1476.000000, 8162.500000, 8192.500000, 8198.500000
2657, 210578968.000000, 1759.500000, 8185.500000, 8185.500000, 8196.000000
2658, 210579128.000000, 2137.250000, 8192.000000, 8188.500000, 8196.500000
2659, 210579288.000000, 2518.875000, 8172.500000, 8193.000000, 8196.000000
2660, 210579448.000000, 2837.625000, 8187.000000, 8188.000000, 8193.500000
2661, 210579608.000000, 3056.500000, 8179.500000, 8185.500000, 8190.000000
2662, 210579768.000000, 3184.375000, 8173.000000, 8184.500000, 8185.000000
2663, 210579928.000000, 3234.250000, 8213.500000, 8176.500000, 8187.500000
2664, 210580088.000000, 3224.375000, 8164.000000, 8190.500000, 8185.000000
2665, 210580248.000000, 3177.250000, 8176.500000, 8188.500000, 8185.500000
2666, 210580408.000000, 3103.000000, 8187.500000, 8191.500000, 8195.500000
2667, 210580568.000000, 3009.250000, 8192.500000, 8209.500000, 8227.000000
2668, 210580728.000000, 2896.875000, 8206.500000, 8211.500000, 8230.000000
2669, 210580888.000000, 2776.000000, 8195.000000, 8197.000000, 8203.000000
2670, 210581048.000000, 2660.625000, 8186.500000, 8179.000000, 8176.000000
2671, 210581208.000000, 2560.125000, 8156.500000, 8179.500000, 8168.000000
2672, 210581368.000000, 2475.000000, 8189.500000, 8165.500000, 8165.000000
2673, 210581528.000000, 2406.000000, 8180.500000, 8182.500000, 8175.000000
2674, 210581688.000000, 2350.625000, 8349.500000, 8046.000000, 8128.000000
2675, 210581848.000000, 2297.750000, 8106.000000, 7916.500000, 7868.500000
2676, 210582008.000000, 2240.000000, 8166.000000, 8151.000000, 8128.000000
2677, 210582168.000000, 2171.750000, 8168.000000, 8214.500000, 8208.000000
2678, 210582328.000000, 2091.250000, 8199.500000, 8216.000000, 8223.000000
2679, 210582488.000000, 2001.125000, 8185.500000, 8228.500000, 8228.500000
2680, 210582648.000000, 1905.750000, 8186.500000, 8233.000000, 8236.000000
2681, 210582808.000000, 1813.875000, 8213.500000, 8225.000000, 8239.000000
2682, 210582968.000000, 1729.125000, 8214.000000, 8237.500000, 8248.000000
2683, 210583128.000000, 1655.625000, 8218.500000, 8251.000000, 8264.500000
2684, 210583288.000000, 1598.625000, 8233.000000, 8259.000000, 8282.500000
2685, 210583448.000000, 1550.250000, 8269.000000, 8274.500000, 8308.000000
2686, 210583608.000000, 1504.375000, 8265.000000, 8284.500000, 8316.000000
2687, 210583768.000000, 1458.250000, 8282.500000, 8271.500000, 8315.000000
2688, 210583928.000000, 1409.625000, 8266.000000, 8256.500000, 8289.500000
2689, 210584088.000000, 1354.000000, 8192.000000, 8223.500000, 8230.500000
2690, 210584248.000000, 1292.125000, 8157.000000, 8197.000000, 8187.000000
2691, 210584408.000000, 1229.000000, 8142.500000, 8178.000000, 8160.500000
2692, 210584568.000000, 1171.750000, 8146.000000, 8173.000000, 8153.000000
2693, 210584728.000000, 1119.875000, 8165.000000, 8165.000000, 8151.500000
2694, 210584888.000000, 1075.125000, 8153.500000, 8172.000000, 8156.500000
2695, 210585048.000000, 1037.375000, 8143.000000, 8174.000000, 8150.500000
2696, 210585208.000000, 998.000000, 8185.000000, 8164.000000, 8154.500000
2697, 210585368.000000, 953.500000, 8156.000000, 8166.500000, 8146.500000
2698, 210585528.000000, 902.500000, 8168.000000, 8166.000000, 8149.500000
2699, 210585688.000000, 878.125000, 8182.000000, 8160.500000, 8147.500000
2700, 210585848.000000, 922.875000, 8154.500000, 8166.500000, 8144.000000
2701, 210586008.000000, 1097.375000, 8172.000000, 8150.500000, 8136.500000
2702, 210586168.000000, 1389.500000, 8181.000000, 8149.500000, 8132.500000
2703, 210586328.000000, 1750.375000, 8154.000000, 8156.000000, 8131.000000
2704, 210586488.000000, 2093.750000, 8154.000000, 8155.000000, 8133.000000
2705, 210586648.000000, 2365.250000, 8166.500000, 8159.500000, 8145.500000
2706, 210586808.000000, 2539.875000, 8172.000000, 8177.000000, 8170.000000
2707, 210586968.000000, 2624.000000, 8185.000000, 8189.000000, 8193.500000
2708, 210587128.000000, 2639.250000, 8172.000000, 8171.000000, 8156.000000
2709, 210587288.000000, 2606.875000, 8170.500000, 8143.000000, 8122.000000
2710, 210587448.000000, 2550.250000, 8151.500000, 8144.000000, 8119.000000
2711, 210587608.000000, 2473.625000, 8161.000000, 8141.500000, 8117.000000
2712, 210587768.000000, 2387.500000, 8171.500000, 8161.000000, 8140.500000
2713, 210587928.000000, 2296.125000, 8292.000000, 8003.000000, 8056.500000
2714, 210588088.000000, 2207.375000, 8105.000000, 7885.000000, 7822.000000
2715, 210588248.000000, 2130.125000, 8140.500000, 8147.000000, 8110.000000
2716, 210588408.000000, 2064.875000, 8181.500000, 8198.000000, 8187.500000
2717, 210588568.000000, 2013.250000, 8185.500000, 8207.000000, 8201.000000
2718, 210588728.000000, 1971.000000, 8175.000000, 8221.000000, 8210.000000
2719, 210588888.000000, 1933.000000, 8188.500000, 8226.500000, 8222.500000
2720, 210589048.000000, 1888.375000, 8192.500000, 8234.000000, 8237.000000
2721, 210589208.000000, 1831.875000, 8207.500000, 8236.000000, 8243.500000
2722, 210589368.000000, 1761.625000, 8226.000000, 8243.000000, 8262.500000
2723, 210589528.000000, 1682.375000, 8230.000000, 8264.500000, 8283.500000
2724, 210589688.000000, 1607.625000, 8255.000000, 8272.000000, 8305.000000
2725, 210589848.000000, 1540.625000, 8299.500000, 8259.500000, 8307.000000
2726, 210590008.000000, 1483.625000, 8279.000000, 8249.000000, 8296.000000
2727, 210590168.000000, 1437.000000, 8248.500000, 8229.000000, 8258.500000
2728, 210590328.000000, 1401.625000, 8203.500000, 8200.500000, 8212.500000
2729, 210590488.000000, 1374.625000, 8181.000000, 8191.500000, 8184.500000
2730, 210590648.000000, 1351.250000, 8161.000000, 8184.000000, 8170.500000
2731, 210590808.000000, 1331.375000, 8140.500000, 8179.500000, 8161.500000
2732, 210590968.000000, 1313.000000, 8143.500000, 8187.000000, 8166.000000
2733, 210591128.000000, 1296.750000, 8170.000000, 8186.000000, 8177.500000
2734, 210591288.000000, 1283.625000, 8185.500000, 8186.000000, 8184.000000
2735, 210591448.000000, 1271.375000, 8159.500000, 8189.500000, 8185.500000
2736, 210591608.000000, 1251.125000, 8169.000000, 8190.500000, 8181.500000
2737, 210591768.000000, 1220.750000, 8180.500000, 8186.500000, 8183.500000
2738, 210591928.000000, 1194.750000, 8180.500000, 8185.500000, 8184.000000
2739, 210592088.000000, 1249.750000, 8164.000000, 8185.000000, 8180.500000
2740, 210592248.000000, 1437.750000, 8175.500000, 8188.000000, 8180.500000
2741, 210592408.000000, 1770.250000, 8160.000000, 8187.500000, 8173.500000
2742, 210592568.000000, 2159.250000, 8167.000000, 8181.000000, 8169.000000
2743, 210592728.000000, 2528.500000, 8187.500000, 8184.500000, 8179.000000
2744, 210592888.000000, 2816.250000, 8199.000000, 8204.000000, 8219.500000
2745, 210593048.000000, 3013.750000, 8228.500000, 8216.000000, 8246.500000
2746, 210593208.000000, 3122.000000, 8215.000000, 8200.000000, 8211.500000
2747, 210593368.000000, 3148.750000, 8203.000000, 8170.500000, 8175.500000
2748, 210593528.000000, 3109.875000, 8195.000000, 8170.000000, 8161.000000
2749, 210593688.000000, 3030.125000, 8150.000000, 8182.500000, 8164.000000
2750, 210593848.000000, 2924.000000, 8182.500000, 8166.000000, 8155.000000
2751, 210594008.000000, 2790.625000, 8257.500000, 8179.500000, 8222.000000
2752, 210594168.000000, 2646.250000, 8312.000000, 7832.500000, 7868.500000
2753, 210594328.000000, 2512.000000, 8139.000000, 8101.000000, 8055.000000
2754, 210594488.000000, 2405.750000, 8189.000000, 8222.000000, 8222.000000
2755, 210594648.000000, 2328.250000, 8180.000000, 8229.500000, 8235.500000
2756, 210594808.000000, 2273.375000, 8194.000000, 8235.000000, 8236.500000
2757, 210594968.000000, 2231.000000, 8206.000000, 8236.000000, 8242.500000
2758, 210595128.000000, 2185.625000, 8190.500000, 8253.500000, 8259.500000
2759, 210595288.000000, 2122.750000, 8211.000000, 8255.500000, 8269.000000
2760, 210595448.000000, 2037.625000, 8230.000000, 8260.500000, 8278.000000
2761, 210595608.000000, 1936.250000, 8238.500000, 8266.500000, 8293.500000
2762, 210595768.000000, 1830.375000, 8255.500000, 8276.500000, 8306.000000
2763, 210595928.000000, 1723.625000, 8282.500000, 8273.000000, 8315.500000
2764, 210596088.000000, 1624.750000, 8287.000000, 8267.000000, 8310.500000
2765, 210596248.000000, 1535.250000, 8283.500000, 8237.500000, 8282.500000
2766, 210596408.000000, 1455.750000, 8231.500000, 8213.500000, 8237.000000
2767, 210596568.000000, 1389.000000, 8181.500000, 8205.500000, 8203.000000
2768, 210596728.000000, 1330.875000, 8156.500000, 8201.500000, 8184.000000
2769, 210596888.000000, 1274.375000, 8132.500000, 8197.000000, 8171.500000
2770, 210597048.000000, 1219.500000, 8157.000000, 8187.000000, 8170.000000
2771, 210597208.000000, 1174.000000, 8148.500000, 8188.000000, 8167.500000
2772, 210597368.000000, 1138.500000, 8164.500000, 8192.000000, 8171.000000
2773, 210597528.000000, 1111.250000, 8155.000000, 8192.500000, 8173.500000
2774, 210597688.000000, 1085.375000, 8188.000000, 8178.000000, 8171.000000
2775, 210597848.000000, 1052.375000, 8172.000000, 8177.000000, 8165.000000
2776, 210598008.000000, 1024.000000, 8159.500000, 8181.500000, 8159.500000
2777, 210598168.000000, 1046.750000, 8157.000000, 8179.500000, 8156.500000
2778, 210598328.000000, 1186.750000, 8153.500000, 8177.500000, 8156.000000
2779, 210598488.000000, 1474.625000, 8157.500000, 8172.000000, 8150.500000
2780, 210598648.000000, 1857.875000, 8164.500000, 8168.000000, 8145.000000
2781, 210598808.000000, 2243.375000, 8153.500000, 8164.000000, 8142.500000
2782, 210598968.000000, 2565.625000, 8165.000000, 8182.000000, 8178.500000
2783, 210599128.000000, 2789.125000, 8167.000000, 8208.500000, 8207.000000
2784, 210599288.000000, 2913.500000, 8192.000000, 8194.000000, 8195.000000
2785, 210599448.000000, 2954.375000, 8170.500000, 8178.500000, 8174.500000
2786, 210599608.000000, 2936.625000, 8168.500000, 8165.000000, 8158.500000
2787, 210599768.000000, 2880.750000, 8160.000000, 8171.000000, 8166.000000
2788, 210599928.000000, 2793.875000, 8189.000000, 8161.000000, 8165.000000
2789, 210600088.000000, 2681.000000, 8211.500000, 8223.500000, 8247.500000
2790, 210600248.000000, 2557.250000, 8349.500000, 7865.000000, 7944.000000
2791, 210600408.000000, 2440.875000, 8090.000000, 8034.500000, 7978.500000
2792, 210600568.000000, 2348.000000, 8203.500000, 8193.000000, 8206.500000
2793, 210600728.000000, 2284.500000, 8174.500000, 8219.500000, 8225.000000
2794, 210600888.000000, 2242.750000, 8179.500000, 8226.000000, 8227.000000
2795, 210601048.000000, 2215.625000, 8196.000000, 8220.000000, 8228.000000
2796, 210601208.000000, 2193.125000, 8190.500000, 8225.000000, 8231.000000
2797, 210601368.000000, 2163.750000, 8200.500000, 8238.000000, 8248.000000
2798, 210601528.000000, 2119.625000, 8211.500000, 8241.500000, 8261.500000
2799, 210601688.000000, 2059.125000, 8221.000000, 8253.500000, 8274.000000
2800, 210601848.000000, 1984.750000, 8240.500000, 8251.000000, 8282.000000
2801, 210602008.000000, 1908.000000, 8268.000000, 8256.500000, 8301.000000
2802, 210602168.000000, 1831.625000, 8283.000000, 8257.000000, 8312.000000
2803, 210602328.000000, 1762.250000, 8284.000000, 8245.000000, 8301.500000
2804, 210602488.000000, 1700.875000, 8227.000000, 8225.500000, 8260.000000
2805, 210602648.000000, 1649.250000, 8184.500000, 8206.000000, 8213.000000
2806, 210602808.000000, 1607.000000, 8176.000000, 8190.500000, 8194.000000
2807, 210602968.000000, 1573.250000, 8163.000000, 8193.000000, 8189.000000
2808, 210603128.000000, 1551.000000, 8131.000000, 8203.000000, 8194.500000
2809, 210603288.000000, 1539.250000, 8157.500000, 8190.500000, 8182.000000
2810, 210603448.000000, 1537.875000, 8173.500000, 8186.000000, 8176.000000
2811, 210603608.000000, 1542.750000, 8171.000000, 8181.500000, 8174.000000
2812, 210603768.000000, 1549.625000, 8145.000000, 8186.000000, 8169.000000
2813, 210603928.000000, 1546.500000, 8172.500000, 8185.000000, 8172.500000
2814, 210604088.000000, 1536.375000, 8155.500000, 8187.500000, 8164.500000
2815, 210604248.000000, 1549.125000, 8168.000000, 8173.000000, 8157.000000
2816, 210604408.000000, 1649.000000, 8166.500000, 8181.500000, 8163.000000
2817, 210604568.000000, 1866.750000, 8163.000000, 8191.500000, 8171.500000
2818, 210604728.000000, 2184.125000, 8156.000000, 8193.500000, 8171.000000
2819, 210604888.000000, 2521.625000, 8171.000000, 8199.000000, 8184.500000
2820, 210605048.000000, 2811.875000, 8163.000000, 8218.000000, 8214.000000
2821, 210605208.000000, 3010.875000, 8177.000000, 8232.500000, 8238.500000
2822, 210605368.000000, 3124.000000, 8195.500000, 8207.000000, 8201.500000
2823, 210605528.000000, 3158.375000, 8167.000000, 8181.500000, 8163.000000
2824, 210605688.000000, 3142.500000, 8159.500000, 8184.000000, 8162.000000
2825, 210605848.000000, 3093.125000, 8159.000000, 8183.000000, 8161.000000
2826, 210606008.000000, 3000.500000, 8166.500000, 8194.000000, 8167.500000
2827, 210606168.000000, 2844.875000, 8312.500000, 8086.000000, 8150.500000
2828, 210606328.000000, 2643.500000, 8108.500000, 7917.500000, 7872.000000
2829, 210606488.000000, 2437.375000, 8152.500000, 8151.500000, 8117.500000
2830, 210606648.000000, 2251.750000, 8189.000000, 8215.500000, 8206.500000
2831, 210606808.000000, 2095.000000, 8181.500000, 8221.500000, 8211.000000
2832, 210606968.000000, 1967.875000, 8203.500000, 8228.000000, 8224.000000
2833, 210607128.000000, 1863.750000, 8220.000000, 8232.500000, 8239.500000
2834, 210607288.000000, 1770.625000, 8188.500000, 8239.000000, 8244.500000
2835, 210607448.000000, 1675.375000, 8219.000000, 8243.000000, 8252.000000
2836, 210607608.000000, 1580.625000, 8221.500000, 8255.000000, 8266.000000
2837, 210607768.000000, 1490.250000, 8255.500000, 8254.000000, 8283.500000
2838, 210607928.000000, 1412.625000, 8248.000000, 8281.000000, 8308.000000
2839, 210608088.000000, 1350.750000, 8256.000000, 8276.000000, 8307.500000
2840, 210608248.000000, 1300.375000, 8286.000000, 8259.500000, 8295.000000
2841, 210608408.000000, 1250.125000, 8238.500000, 8238.500000, 8260.500000
2842, 210608568.000000, 1200.375000, 8190.500000, 8214.500000, 8215.500000
2843, 210608728.000000, 1150.875000, 8159.000000, 8181.500000, 8170.000000
2844, 210608888.000000, 1110.750000, 8140.000000, 8162.000000, 8144.500000
2845, 210609048.000000, 1082.250000, 8157.500000, 8150.000000, 8132.000000
2846, 210609208.000000, 1066.500000, 8148.000000, 8151.500000, 8127.500000
2847, 210609368.000000, 1059.875000, 8154.000000, 8154.500000, 8130.500000
2848, 210609528.000000, 1050.500000, 8161.500000, 8154.500000, 8134.500000
2849, 210609688.000000, 1043.875000, 8196.000000, 8140.500000, 8130.500000
2850, 210609848.000000, 1034.500000, 8151.500000, 8149.500000, 8122.500000
2851, 210610008.000000, 1022.125000, 8166.500000, 8141.500000, 8120.000000
2852, 210610168.000000, 1019.625000, 8150.500000, 8146.500000, 8117.500000
2853, 210610328.000000, 1075.375000, 8157.500000, 8145.500000, 8118.000000
2854, 210610488.000000, 1242.000000, 8155.500000, 8137.500000, 8109.500000
2855, 210610648.000000, 1531.625000, 8177.500000, 8137.000000, 8123.500000
2856, 210610808.000000, 1883.000000, 8164.500000, 8159.000000, 8152.000000
2857, 210610968.000000, 2222.125000, 8175.500000, 8176.000000, 8178.000000
2858, 210611128.000000, 2496.625000, 8179.500000, 8152.500000, 8132.500000
2859, 210611288.000000, 2677.125000, 8147.000000, 8126.000000, 8090.500000
2860, 210611448.000000, 2770.875000, 8140.000000, 8120.000000, 8084.000000
2861, 210611608.000000, 2783.125000, 8158.000000, 8118.000000, 8085.000000
2862, 210611768.000000, 2750.375000, 8164.500000, 8144.500000, 8113.500000
2863, 210611928.000000, 2686.750000, 8274.000000, 7972.000000, 8018.500000
2864, 210612088.000000, 2605.250000, 8071.500000, 7864.000000, 7784.000000
2865, 210612248.000000, 2518.250000, 8176.000000, 8119.500000, 8087.000000
2866, 210612408.000000, 2434.125000, 8167.500000, 8180.000000, 8164.000000
2867, 210612568.000000, 2357.875000, 8192.000000, 8207.000000, 8208.000000
2868, 210612728.000000, 2296.875000, 8219.500000, 8209.500000, 8231.000000
2869, 210612888.000000, 2248.625000, 8210.500000, 8227.000000, 8245.500000
2870, 210613048.000000, 2207.875000, 8218.000000, 8229.500000, 8254.000000
2871, 210613208.000000, 2170.000000, 8230.000000, 8242.000000, 8277.500000
2872, 210613368.000000, 2130.000000, 8253.500000, 8252.000000, 8300.000000
2873, 210613528.000000, 2085.875000, 8244.500000, 8275.000000, 8319.000000
2874, 210613688.000000, 2035.625000, 8264.500000, 8279.500000, 8332.000000
2875, 210613848.000000, 1980.375000, 8276.000000, 8275.500000, 8335.500000
2876, 210614008.000000, 1920.125000, 8311.000000, 8250.000000, 8322.500000
2877, 210614168.000000, 1856.625000, 8254.500000, 8240.500000, 8287.000000
2878, 210614328.000000, 1799.625000, 8193.500000, 8224.000000, 8245.000000
2879, 210614488.000000, 1755.625000, 8183.000000, 8199.000000, 8206.000000
2880, 210614648.000000, 1715.875000, 8149.500000, 8192.500000, 8179.500000
2881, 210614808.000000, 1682.125000, 8133.500000, 8199.000000, 8176.500000
2882, 210614968.000000, 1648.625000, 8140.500000, 8202.000000, 8179.000000
2883, 210615128.000000, 1618.875000, 8175.500000, 8190.000000, 8181.500000
2884, 210615288.000000, 1594.125000, 8143.000000, 8204.500000, 8183.000000
2885, 210615448.000000, 1577.750000, 8167.000000, 8197.500000, 8183.500000
2886, 210615608.000000, 1560.000000, 8175.000000, 8191.000000, 8179.000000
2887, 210615768.000000, 1532.125000, 8171.500000, 8190.000000, 8175.500000
2888, 210615928.000000, 1513.250000, 8173.000000, 8193.500000, 8181.000000
2889, 210616088.000000, 1566.125000, 8176.000000, 8191.500000, 8179.000000
2890, 210616248.000000, 1753.250000, 8172.500000, 8193.500000, 8185.000000
2891, 210616408.000000, 2076.875000, 8175.500000, 8219.500000, 8224.500000
2892, 210616568.000000, 2454.125000, 8207.500000, 8236.000000, 8260.500000
2893, 210616728.000000, 2790.625000, 8215.500000, 8204.000000, 8214.500000
2894, 210616888.000000, 3047.000000, 8152.000000, 8190.500000, 8170.500000
2895, 210617048.000000, 3209.250000, 8192.500000, 8174.000000, 8165.500000
2896, 210617208.000000, 3282.875000, 8160.500000, 8186.000000, 8167.500000
2897, 210617368.000000, 3271.375000, 8175.000000, 8194.500000, 8179.500000
2898, 210617528.000000, 3186.375000, 8303.500000, 8068.000000, 8128.500000
2899, 210617688.000000, 3042.125000, 8146.000000, 7882.500000, 7839.000000
2900, 210617848.000000, 2858.625000, 8146.500000, 8171.000000, 8135.000000
2901, 210618008.000000, 2659.750000, 8188.000000, 8247.000000, 8244.500000
2902, 210618168.000000, 2474.750000, 8204.500000, 8256.000000, 8261.000000
2903, 210618328.000000, 2323.875000, 8198.000000, 8266.000000, 8270.000000
2904, 210618488.000000, 2214.750000, 8205.500000, 8263.500000, 8269.500000
2905, 210618648.000000, 2146.250000, 8201.000000, 8270.500000, 8278.500000
2906, 210618808.000000, 2116.000000, 8223.500000, 8276.500000, 8295.500000
2907, 210618968.000000, 2103.125000, 8236.500000, 8289.000000, 8311.500000
2908, 210619128.000000, 2087.000000, 8250.000000, 8296.500000, 8325.500000
