1607, 199078192.000000, 2065.000000, 8291.000000, 8186.000000, 8245.000000
1608, 199078352.000000, 1895.750000, 8226.000000, 7894.000000, 7908.000000
1609, 199078512.000000, 1777.750000, 8137.000000, 8125.000000, 8076.000000
1610, 199078672.000000, 1714.000000, 8176.000000, 8211.000000, 8202.000000
1611, 199078832.000000, 1700.000000, 8178.000000, 8220.000000, 8212.000000
1612, 199078992.000000, 1711.500000, 8185.000000, 8222.000000, 8215.000000
1613, 199079152.000000, 1721.500000, 8192.000000, 8225.000000, 8222.000000
1614, 199079312.000000, 1715.750000, 8200.000000, 8229.000000, 8231.000000
1615, 199079472.000000, 1682.500000, 8209.000000, 8232.000000, 8238.000000
1616, 199079632.000000, 1622.750000, 8215.000000, 8235.000000, 8245.000000
1617, 199079792.000000, 1544.500000, 8225.000000, 8237.000000, 8252.000000
1618, 199079952.000000, 1458.500000, 8238.000000, 8236.000000, 8256.000000
1619, 199080112.000000, 1375.000000, 8253.000000, 8231.000000, 8257.000000
1620, 199080272.000000, 1296.500000, 8261.000000, 8221.000000, 8252.000000
1621, 199080432.000000, 1230.000000, 8237.000000, 8210.000000, 8233.000000
1622, 199080592.000000, 1183.250000, 8192.000000, 8206.000000, 8213.000000
1623, 199080752.000000, 1153.750000, 8165.000000, 8201.000000, 8196.000000
1624, 199080912.000000, 1130.000000, 8155.000000, 8197.000000, 8186.000000
1625, 199081072.000000, 1106.250000, 8155.000000, 8196.000000, 8185.000000
1626, 199081232.000000, 1086.000000, 8156.000000, 8196.000000, 8185.000000
1627, 199081392.000000, 1066.000000, 8159.000000, 8196.000000, 8187.000000
1628, 199081552.000000, 1043.500000, 8163.000000, 8198.000000, 8190.000000
1629, 199081712.000000, 1016.000000, 8166.000000, 8197.000000, 8191.000000
1630, 199081872.000000, 982.000000, 8169.000000, 8194.000000, 8190.000000
1631, 199082032.000000, 969.750000, 8169.000000, 8192.000000, 8186.000000
1632, 199082192.000000, 1038.000000, 8171.000000, 8188.000000, 8181.000000
1633, 199082352.000000, 1251.000000, 8171.000000, 8185.000000, 8176.000000
1634, 199082512.000000, 1572.500000, 8170.000000, 8185.000000, 8174.000000
1635, 199082672.000000, 1903.750000, 8172.000000, 8183.000000, 8173.000000
1636, 199082832.000000, 2153.000000, 8170.000000, 8183.000000, 8172.000000
1637, 199082992.000000, 2291.500000, 8173.000000, 8183.000000, 8172.000000
1638, 199083152.000000, 2324.000000, 8186.000000, 8209.000000, 8218.000000
1639, 199083312.000000, 2286.250000, 8201.000000, 8230.000000, 8257.000000
1640, 199083472.000000, 2209.500000, 8199.000000, 8202.000000, 8210.000000
1641, 199083632.000000, 2120.250000, 8170.000000, 8178.000000, 8165.000000
1642, 199083792.000000, 2021.000000, 8165.000000, 8173.000000, 8156.000000
1643, 199083952.000000, 1907.500000, 8168.000000, 8171.000000, 8156.000000
1644, 199084112.000000, 1800.750000, 8176.000000, 8167.000000, 8146.000000
1645, 199084272.000000, 1726.500000, 8300.000000, 8158.000000, 8221.000000
1646, 199084432.000000, 1696.250000, 8216.000000, 7877.000000, 7880.000000
1647, 199084592.000000, 1695.500000, 8151.000000, 8141.000000, 8099.000000
1648, 199084752.000000, 1703.750000, 8180.000000, 8210.000000, 8203.000000
1649, 199084912.000000, 1702.750000, 8183.000000, 8219.000000, 8214.000000
1650, 199085072.000000, 1682.750000, 8189.000000, 8221.000000, 8218.000000
1651, 199085232.000000, 1642.000000, 8197.000000, 8224.000000, 8226.000000
1652, 199085392.000000, 1581.000000, 8206.000000, 8227.000000, 8233.000000
1653, 199085552.000000, 1506.750000, 8213.000000, 8231.000000, 8240.000000
1654, 199085712.000000, 1432.750000, 8224.000000, 8236.000000, 8252.000000
1655, 199085872.000000, 1365.250000, 8234.000000, 8239.000000, 8260.000000
1656, 199086032.000000, 1312.500000, 8250.000000, 8240.000000, 8268.000000
1657, 199086192.000000, 1272.500000, 8258.000000, 8233.000000, 8262.000000
1658, 199086352.000000, 1244.750000, 8260.000000, 8225.000000, 8257.000000
1659, 199086512.000000, 1223.000000, 8241.000000, 8215.000000, 8241.000000
1660, 199086672.000000, 1205.500000, 8192.000000, 8210.000000, 8217.000000
1661, 199086832.000000, 1190.500000, 8162.000000, 8203.000000, 8196.000000
1662, 199086992.000000, 1176.500000, 8151.000000, 8197.000000, 8183.000000
1663, 199087152.000000, 1161.500000, 8150.000000, 8195.000000, 8180.000000
1664, 199087312.000000, 1145.250000, 8151.000000, 8195.000000, 8181.000000
1665, 199087472.000000, 1125.250000, 8155.000000, 8197.000000, 8184.000000
1666, 199087632.000000, 1098.750000, 8160.000000, 8196.000000, 8184.000000
1667, 199087792.000000, 1065.500000, 8163.000000, 8195.000000, 8185.000000
1668, 199087952.000000, 1031.250000, 8165.000000, 8195.000000, 8186.000000
1669, 199088112.000000, 1028.250000, 8167.000000, 8193.000000, 8184.000000
1670, 199088272.000000, 1141.500000, 8166.000000, 8191.000000, 8183.000000
1671, 199088432.000000, 1402.000000, 8167.000000, 8188.000000, 8179.000000
1672, 199088592.000000, 1756.750000, 8167.000000, 8185.000000, 8176.000000
1673, 199088752.000000, 2079.250000, 8167.000000, 8184.000000, 8175.000000
1674, 199088912.000000, 2300.250000, 8167.000000, 8183.000000, 8174.000000
1675, 199089072.000000, 2404.250000, 8169.000000, 8184.000000, 8176.000000
1676, 199089232.000000, 2422.500000, 8168.000000, 8183.000000, 8176.000000
1677, 199089392.000000, 2380.000000, 8168.000000, 8182.000000, 8173.000000
1678, 199089552.000000, 2311.500000, 8169.000000, 8183.000000, 8175.000000
1679, 199089712.000000, 2234.000000, 8177.000000, 8198.000000, 8203.000000
1680, 199089872.000000, 2149.750000, 8183.000000, 8214.000000, 8231.000000
1681, 199090032.000000, 2050.500000, 8199.000000, 8211.000000, 8227.000000
1682, 199090192.000000, 1952.500000, 8181.000000, 8185.000000, 8183.000000
1683, 199090352.000000, 1879.250000, 8165.000000, 8174.000000, 8161.000000
1684, 199090512.000000, 1841.250000, 8167.000000, 8172.000000, 8159.000000
1685, 199090672.000000, 1830.500000, 8168.000000, 8173.000000, 8162.000000
1686, 199090832.000000, 1824.500000, 8208.000000, 8205.000000, 8209.000000
1687, 199090992.000000, 1814.750000, 8372.000000, 7943.000000, 8042.000000
1688, 199091152.000000, 1792.750000, 8086.000000, 8003.000000, 7930.000000
1689, 199091312.000000, 1751.000000, 8179.000000, 8197.000000, 8190.000000
1690, 199091472.000000, 1693.500000, 8182.000000, 8215.000000, 8212.000000
1691, 199091632.000000, 1624.250000, 8185.000000, 8219.000000, 8216.000000
1692, 199091792.000000, 1553.250000, 8190.000000, 8221.000000, 8219.000000
1693, 199091952.000000, 1488.250000, 8197.000000, 8225.000000, 8229.000000
1694, 199092112.000000, 1432.250000, 8202.000000, 8229.000000, 8235.000000
1695, 199092272.000000, 1388.750000, 8209.000000, 8230.000000, 8240.000000
1696, 199092432.000000, 1357.250000, 8218.000000, 8232.000000, 8246.000000
1697, 199092592.000000, 1332.250000, 8229.000000, 8233.000000, 8251.000000
1698, 199092752.000000, 1313.250000, 8242.000000, 8231.000000, 8255.000000
1699, 199092912.000000, 1294.750000, 8252.000000, 8227.000000, 8256.000000
1700, 199093072.000000, 1279.500000, 8252.000000, 8217.000000, 8248.000000
1701, 199093232.000000, 1265.250000, 8220.000000, 8207.000000, 8225.000000
1702, 199093392.000000, 1249.250000, 8178.000000, 8202.000000, 8202.000000
1703, 199093552.000000, 1230.000000, 8155.000000, 8196.000000, 8185.000000
1704, 199093712.000000, 1207.500000, 8149.000000, 8192.000000, 8175.000000
1705, 199093872.000000, 1182.500000, 8150.000000, 8192.000000, 8175.000000
1706, 199094032.000000, 1157.250000, 8150.000000, 8193.000000, 8176.000000
1707, 199094192.000000, 1131.500000, 8152.000000, 8194.000000, 8177.000000
1708, 199094352.000000, 1103.000000, 8156.000000, 8196.000000, 8183.000000
1709, 199094512.000000, 1071.250000, 8161.000000, 8196.000000, 8185.000000
1710, 199094672.000000, 1050.250000, 8164.000000, 8195.000000, 8186.000000
1711, 199094832.000000, 1101.250000, 8164.000000, 8193.000000, 8182.000000
1712, 199094992.000000, 1299.500000, 8166.000000, 8191.000000, 8181.000000
1713, 199095152.000000, 1643.500000, 8167.000000, 8187.000000, 8176.000000
1714, 199095312.000000, 2025.250000, 8166.000000, 8186.000000, 8176.000000
1715, 199095472.000000, 2326.750000, 8169.000000, 8185.000000, 8177.000000
1716, 199095632.000000, 2508.750000, 8168.000000, 8183.000000, 8174.000000
1717, 199095792.000000, 2579.750000, 8169.000000, 8184.000000, 8174.000000
1718, 199095952.000000, 2569.750000, 8170.000000, 8183.000000, 8172.000000
1719, 199096112.000000, 2515.500000, 8171.000000, 8184.000000, 8175.000000
1720, 199096272.000000, 2447.000000, 8174.000000, 8185.000000, 8178.000000
1721, 199096432.000000, 2375.250000, 8177.000000, 8183.000000, 8176.000000
1722, 199096592.000000, 2291.750000, 8177.000000, 8184.000000, 8175.000000
1723, 199096752.000000, 2191.500000, 8179.000000, 8186.000000, 8179.000000
1724, 199096912.000000, 2092.750000, 8189.000000, 8206.000000, 8217.000000
1725, 199097072.000000, 2022.500000, 8199.000000, 8208.000000, 8220.000000
1726, 199097232.000000, 1989.250000, 8194.000000, 8188.000000, 8190.000000
1727, 199097392.000000, 1976.750000, 8176.000000, 8177.000000, 8168.000000
1728, 199097552.000000, 1968.750000, 8174.000000, 8175.000000, 8164.000000
1729, 199097712.000000, 1950.500000, 8177.000000, 8177.000000, 8168.000000
1730, 199097872.000000, 1916.500000, 8184.000000, 8172.000000, 8158.000000
1731, 199098032.000000, 1864.000000, 8324.000000, 8180.000000, 8253.000000
1732, 199098192.000000, 1796.500000, 8235.000000, 7913.000000, 7927.000000
1733, 199098352.000000, 1719.750000, 8151.000000, 8133.000000, 8089.000000
1734, 199098512.000000, 1643.500000, 8189.000000, 8210.000000, 8207.000000
1735, 199098672.000000, 1572.750000, 8194.000000, 8219.000000, 8219.000000
1736, 199098832.000000, 1508.250000, 8196.000000, 8220.000000, 8218.000000
1737, 199098992.000000, 1456.750000, 8202.000000, 8221.000000, 8223.000000
1738, 199099152.000000, 1413.500000, 8210.000000, 8224.000000, 8229.000000
1739, 199099312.000000, 1382.000000, 8220.000000, 8227.000000, 8237.000000
1740, 199099472.000000, 1354.500000, 8230.000000, 8228.000000, 8244.000000
1741, 199099632.000000, 1331.250000, 8242.000000, 8230.000000, 8252.000000
1742, 199099792.000000, 1311.250000, 8254.000000, 8228.000000, 8252.000000
1743, 199099952.000000, 1293.000000, 8267.000000, 8224.000000, 8253.000000
1744, 199100112.000000, 1269.500000, 8271.000000, 8215.000000, 8245.000000
1745, 199100272.000000, 1244.500000, 8258.000000, 8202.000000, 8231.000000
1746, 199100432.000000, 1218.250000, 8214.000000, 8198.000000, 8210.000000
1747, 199100592.000000, 1189.000000, 8177.000000, 8192.000000, 8189.000000
1748, 199100752.000000, 1159.250000, 8164.000000, 8188.000000, 8177.000000
1749, 199100912.000000, 1134.500000, 8160.000000, 8186.000000, 8174.000000
1750, 199101072.000000, 1111.000000, 8163.000000, 8187.000000, 8177.000000
1751, 199101232.000000, 1090.250000, 8167.000000, 8188.000000, 8179.000000
1752, 199101392.000000, 1063.000000, 8174.000000, 8187.000000, 8182.000000
1753, 199101552.000000, 1031.250000, 8180.000000, 8187.000000, 8184.000000
1754, 199101712.000000, 995.750000, 8182.000000, 8186.000000, 8183.000000
1755, 199101872.000000, 975.250000, 8184.000000, 8184.000000, 8182.000000
1756, 199102032.000000, 1051.250000, 8182.000000, 8182.000000, 8179.000000
1757, 199102192.000000, 1289.250000, 8180.000000, 8182.000000, 8177.000000
1758, 199102352.000000, 1670.000000, 8182.000000, 8180.000000, 8177.000000
1759, 199102512.000000, 2058.250000, 8179.000000, 8182.000000, 8177.000000
1760, 199102672.000000, 2350.750000, 8178.000000, 8182.000000, 8178.000000
1761, 199102832.000000, 2510.250000, 8177.000000, 8182.000000, 8177.000000
1762, 199102992.000000, 2558.750000, 8175.000000, 8181.000000, 8173.000000
1763, 199103152.000000, 2522.750000, 8174.000000, 8181.000000, 8174.000000
1764, 199103312.000000, 2446.500000, 8175.000000, 8182.000000, 8174.000000
1765, 199103472.000000, 2359.000000, 8177.000000, 8185.000000, 8180.000000
1766, 199103632.000000, 2268.750000, 8189.000000, 8207.000000, 8218.000000
1767, 199103792.000000, 2169.750000, 8200.000000, 8209.000000, 8219.000000
1768, 199103952.000000, 2058.500000, 8197.000000, 8188.000000, 8188.000000
1769, 199104112.000000, 1965.000000, 8181.000000, 8176.000000, 8168.000000
1770, 199104272.000000, 1909.000000, 8179.000000, 8175.000000, 8164.000000
1771, 199104432.000000, 1890.750000, 8178.000000, 8175.000000, 8163.000000
1772, 199104592.000000, 1889.250000, 8188.000000, 8170.000000, 8153.000000
1773, 199104752.000000, 1891.000000, 8314.000000, 8152.000000, 8222.000000
1774, 199104912.000000, 1881.250000, 8213.000000, 7893.000000, 7894.000000
1775, 199105072.000000, 1852.750000, 8159.000000, 8144.000000, 8107.000000
1776, 199105232.000000, 1802.750000, 8189.000000, 8215.000000, 8212.000000
1777, 199105392.000000, 1731.750000, 8191.000000, 8224.000000, 8221.000000
1778, 199105552.000000, 1649.500000, 8197.000000, 8227.000000, 8227.000000
1779, 199105712.000000, 1565.250000, 8202.000000, 8228.000000, 8230.000000
1780, 199105872.000000, 1487.750000, 8208.000000, 8232.000000, 8238.000000
1781, 199106032.000000, 1421.000000, 8213.000000, 8234.000000, 8241.000000
1782, 199106192.000000, 1368.750000, 8225.000000, 8238.000000, 8251.000000
1783, 199106352.000000, 1331.250000, 8237.000000, 8243.000000, 8262.000000
1784, 199106512.000000, 1304.000000, 8250.000000, 8243.000000, 8269.000000
1785, 199106672.000000, 1285.750000, 8263.000000, 8238.000000, 8270.000000
1786, 199106832.000000, 1269.250000, 8268.000000, 8228.000000, 8262.000000
1787, 199106992.000000, 1252.500000, 8252.000000, 8215.000000, 8244.000000
1788, 199107152.000000, 1231.750000, 8207.000000, 8210.000000, 8223.000000
1789, 199107312.000000, 1207.750000, 8173.000000, 8204.000000, 8201.000000
1790, 199107472.000000, 1183.250000, 8156.000000, 8198.000000, 8185.000000
1791, 199107632.000000, 1155.750000, 8152.000000, 8195.000000, 8178.000000
1792, 199107792.000000, 1130.250000, 8153.000000, 8195.000000, 8178.000000
1793, 199107952.000000, 1104.250000, 8154.000000, 8198.000000, 8182.000000
1794, 199108112.000000, 1078.250000, 8158.000000, 8200.000000, 8187.000000
1795, 199108272.000000, 1049.000000, 8163.000000, 8198.000000, 8188.000000
1796, 199108432.000000, 1015.500000, 8167.000000, 8196.000000, 8187.000000
1797, 199108592.000000, 990.250000, 8170.000000, 8193.000000, 8184.000000
1798, 199108752.000000, 1039.250000, 8169.000000, 8192.000000, 8184.000000
1799, 199108912.000000, 1241.500000, 8169.000000, 8190.000000, 8182.000000
1800, 199109072.000000, 1609.500000, 8168.000000, 8187.000000, 8178.000000
1801, 199109232.000000, 2029.250000, 8167.000000, 8186.000000, 8177.000000
1802, 199109392.000000, 2375.750000, 8168.000000, 8184.000000, 8175.000000
1803, 199109552.000000, 2593.000000, 8168.000000, 8186.000000, 8177.000000
1804, 199109712.000000, 2686.750000, 8169.000000, 8186.000000, 8178.000000
1805, 199109872.000000, 2686.000000, 8170.000000, 8187.000000, 8178.000000
1806, 199110032.000000, 2625.000000, 8170.000000, 8186.000000, 8177.000000
1807, 199110192.000000, 2540.750000, 8172.000000, 8186.000000, 8178.000000
1808, 199110352.000000, 2449.750000, 8182.000000, 8204.000000, 8212.000000
1809, 199110512.000000, 2348.750000, 8188.000000, 8212.000000, 8224.000000
1810, 199110672.000000, 2232.750000, 8192.000000, 8200.000000, 8205.000000
1811, 199110832.000000, 2116.750000, 8177.000000, 8188.000000, 8185.000000
1812, 199110992.000000, 2035.750000, 8167.000000, 8181.000000, 8172.000000
1813, 199111152.000000, 1999.000000, 8167.000000, 8182.000000, 8173.000000
1814, 199111312.000000, 1993.250000, 8170.000000, 8182.000000, 8173.000000
1815, 199111472.000000, 1995.750000, 8237.000000, 8213.000000, 8240.000000
1816, 199111632.000000, 1994.000000, 8375.000000, 7893.000000, 7988.000000
1817, 199111792.000000, 1973.000000, 8109.000000, 8058.000000, 7994.000000
1818, 199111952.000000, 1930.000000, 8184.000000, 8214.000000, 8214.000000
1819, 199112112.000000, 1861.500000, 8188.000000, 8227.000000, 8231.000000
1820, 199112272.000000, 1779.250000, 8195.000000, 8228.000000, 8233.000000
1821, 199112432.000000, 1692.750000, 8199.000000, 8228.000000, 8232.000000
1822, 199112592.000000, 1606.000000, 8207.000000, 8231.000000, 8238.000000
1823, 199112752.000000, 1531.000000, 8215.000000, 8233.000000, 8243.000000
1824, 199112912.000000, 1467.250000, 8224.000000, 8237.000000, 8253.000000
1825, 199113072.000000, 1417.250000, 8232.000000, 8240.000000, 8258.000000
1826, 199113232.000000, 1380.000000, 8245.000000, 8241.000000, 8265.000000
1827, 199113392.000000, 1352.500000, 8260.000000, 8239.000000, 8269.000000
1828, 199113552.000000, 1332.250000, 8269.000000, 8232.000000, 8266.000000
1829, 199113712.000000, 1314.750000, 8265.000000, 8221.000000, 8255.000000
1830, 199113872.000000, 1297.750000, 8232.000000, 8210.000000, 8232.000000
1831, 199114032.000000, 1274.500000, 8187.000000, 8202.000000, 8204.000000
1832, 199114192.000000, 1248.500000, 8165.000000, 8195.000000, 8186.000000
1833, 199114352.000000, 1221.000000, 8159.000000, 8190.000000, 8177.000000
1834, 199114512.000000, 1194.500000, 8160.000000, 8190.000000, 8176.000000
1835, 199114672.000000, 1168.750000, 8162.000000, 8190.000000, 8177.000000
1836, 199114832.000000, 1142.250000, 8164.000000, 8189.000000, 8176.000000
1837, 199114992.000000, 1112.250000, 8166.000000, 8191.000000, 8179.000000
1838, 199115152.000000, 1076.000000, 8173.000000, 8190.000000, 8181.000000
1839, 199115312.000000, 1037.250000, 8174.000000, 8188.000000, 8179.000000
1840, 199115472.000000, 1033.750000, 8175.000000, 8186.000000, 8178.000000
1841, 199115632.000000, 1172.500000, 8171.000000, 8183.000000, 8170.000000
1842, 199115792.000000, 1502.750000, 8175.000000, 8182.000000, 8170.000000
1843, 199115952.000000, 1967.750000, 8174.000000, 8181.000000, 8168.000000
1844, 199116112.000000, 2406.000000, 8172.000000, 8180.000000, 8166.000000
1845, 199116272.000000, 2721.500000, 8172.000000, 8181.000000, 8167.000000
1846, 199116432.000000, 2885.750000, 8169.000000, 8180.000000, 8162.000000
1847, 199116592.000000, 2923.000000, 8171.000000, 8181.000000, 8164.000000
1848, 199116752.000000, 2871.250000, 8173.000000, 8181.000000, 8166.000000
1849, 199116912.000000, 2774.500000, 8170.000000, 8181.000000, 8166.000000
1850, 199117072.000000, 2668.250000, 8171.000000, 8181.000000, 8166.000000
1851, 199117232.000000, 2558.000000, 8179.000000, 8196.000000, 8193.000000
1852, 199117392.000000, 2434.500000, 8186.000000, 8201.000000, 8202.000000
1853, 199117552.000000, 2298.500000, 8191.000000, 8190.000000, 8185.000000
1854, 199117712.000000, 2181.750000, 8178.000000, 8178.000000, 8168.000000
1855, 199117872.000000, 2110.000000, 8165.000000, 8173.000000, 8156.000000
1856, 199118032.000000, 2079.500000, 8168.000000, 8174.000000, 8157.000000
1857, 199118192.000000, 2070.500000, 8170.000000, 8173.000000, 8156.000000
1858, 199118352.000000, 2067.000000, 8248.000000, 8216.000000, 8242.000000
1859, 199118512.000000, 2051.250000, 8375.000000, 7907.000000, 7992.000000
1860, 199118672.000000, 2011.500000, 8114.000000, 8062.000000, 7997.000000
1861, 199118832.000000, 1948.250000, 8181.000000, 8205.000000, 8197.000000
1862, 199118992.000000, 1863.500000, 8184.000000, 8217.000000, 8211.000000
1863, 199119152.000000, 1765.250000, 8190.000000, 8220.000000, 8216.000000
1864, 199119312.000000, 1666.250000, 8195.000000, 8222.000000, 8221.000000
1865, 199119472.000000, 1575.500000, 8203.000000, 8224.000000, 8228.000000
1866, 199119632.000000, 1496.000000, 8210.000000, 8227.000000, 8232.000000
1867, 199119792.000000, 1429.250000, 8224.000000, 8228.000000, 8240.000000
1868, 199119952.000000, 1375.000000, 8235.000000, 8232.000000, 8248.000000
1869, 199120112.000000, 1330.000000, 8250.000000, 8234.000000, 8258.000000
1870, 199120272.000000, 1297.500000, 8262.000000, 8230.000000, 8258.000000
1871, 199120432.000000, 1275.000000, 8273.000000, 8222.000000, 8253.000000
1872, 199120592.000000, 1257.250000, 8268.000000, 8212.000000, 8242.000000
1873, 199120752.000000, 1238.000000, 8234.000000, 8203.000000, 8222.000000
1874, 199120912.000000, 1215.250000, 8188.000000, 8199.000000, 8201.000000
1875, 199121072.000000, 1185.250000, 8166.000000, 8193.000000, 8183.000000
1876, 199121232.000000, 1153.750000, 8156.000000, 8190.000000, 8175.000000
1877, 199121392.000000, 1120.250000, 8156.000000, 8190.000000, 8175.000000
1878, 199121552.000000, 1091.250000, 8160.000000, 8193.000000, 8181.000000
1879, 199121712.000000, 1064.750000, 8163.000000, 8195.000000, 8185.000000
1880, 199121872.000000, 1035.000000, 8165.000000, 8194.000000, 8185.000000
1881, 199122032.000000, 1002.500000, 8166.000000, 8194.000000, 8184.000000
1882, 199122192.000000, 961.250000, 8170.000000, 8193.000000, 8186.000000
1883, 199122352.000000, 938.250000, 8171.000000, 8191.000000, 8184.000000
1884, 199122512.000000, 1032.500000, 8170.000000, 8190.000000, 8183.000000
1885, 199122672.000000, 1327.000000, 8170.000000, 8186.000000, 8179.000000
1886, 199122832.000000, 1794.500000, 8168.000000, 8185.000000, 8176.000000
1887, 199122992.000000, 2275.500000, 8169.000000, 8185.000000, 8177.000000
1888, 199123152.000000, 2647.000000, 8168.000000, 8184.000000, 8175.000000
1889, 199123312.000000, 2854.000000, 8169.000000, 8185.000000, 8177.000000
1890, 199123472.000000, 2919.750000, 8172.000000, 8184.000000, 8178.000000
1891, 199123632.000000, 2869.250000, 8180.000000, 8200.000000, 8205.000000
1892, 199123792.000000, 2757.750000, 8188.000000, 8219.000000, 8235.000000
1893, 199123952.000000, 2621.000000, 8195.000000, 8207.000000, 8214.000000
1894, 199124112.000000, 2478.750000, 8180.000000, 8187.000000, 8182.000000
1895, 199124272.000000, 2327.750000, 8167.000000, 8175.000000, 8160.000000
1896, 199124432.000000, 2170.250000, 8169.000000, 8173.000000, 8159.000000
1897, 199124592.000000, 2041.000000, 8169.000000, 8174.000000, 8158.000000
1898, 199124752.000000, 1965.500000, 8243.000000, 8219.000000, 8244.000000
1899, 199124912.000000, 1946.500000, 8361.000000, 7904.000000, 7988.000000
1900, 199125072.000000, 1958.000000, 8110.000000, 8051.000000, 7986.000000
1901, 199125232.000000, 1976.500000, 8184.000000, 8205.000000, 8199.000000
1902, 199125392.000000, 1981.250000, 8188.000000, 8218.000000, 8213.000000
1903, 199125552.000000, 1960.750000, 8195.000000, 8222.000000, 8221.000000
1904, 199125712.000000, 1905.750000, 8203.000000, 8224.000000, 8228.000000
1905, 199125872.000000, 1822.250000, 8210.000000, 8227.000000, 8234.000000
1906, 199126032.000000, 1725.750000, 8217.000000, 8229.000000, 8239.000000
1907, 199126192.000000, 1624.000000, 8224.000000, 8234.000000, 8248.000000
1908, 199126352.000000, 1531.250000, 8234.000000, 8239.000000, 8258.000000
1909, 199126512.000000, 1448.750000, 8247.000000, 8240.000000, 8264.000000
1910, 199126672.000000, 1382.250000, 8261.000000, 8237.000000, 8266.000000
1911, 199126832.000000, 1331.500000, 8268.000000, 8228.000000, 8258.000000
1912, 199126992.000000, 1295.250000, 8263.000000, 8216.000000, 8246.000000
1913, 199127152.000000, 1270.250000, 8227.000000, 8208.000000, 8226.000000
1914, 199127312.000000, 1251.750000, 8187.000000, 8202.000000, 8204.000000
1915, 199127472.000000, 1236.750000, 8164.000000, 8196.000000, 8185.000000
1916, 199127632.000000, 1217.750000, 8158.000000, 8192.000000, 8179.000000
1917, 199127792.000000, 1194.500000, 8159.000000, 8193.000000, 8180.000000
1918, 199127952.000000, 1168.500000, 8164.000000, 8196.000000, 8185.000000
1919, 199128112.000000, 1140.250000, 8169.000000, 8197.000000, 8189.000000
1920, 199128272.000000, 1106.500000, 8173.000000, 8196.000000, 8189.000000
1921, 199128432.000000, 1068.250000, 8173.000000, 8196.000000, 8187.000000
1922, 199128592.000000, 1020.250000, 8178.000000, 8195.000000, 8189.000000
1923, 199128752.000000, 982.250000, 8180.000000, 8193.000000, 8188.000000
1924, 199128912.000000, 1035.500000, 8179.000000, 8190.000000, 8183.000000
1925, 199129072.000000, 1270.500000, 8180.000000, 8188.000000, 8181.000000
1926, 199129232.000000, 1709.250000, 8180.000000, 8186.000000, 8179.000000
1927, 199129392.000000, 2208.750000, 8182.000000, 8185.000000, 8178.000000
1928, 199129552.000000, 2629.250000, 8181.000000, 8185.000000, 8179.000000
1929, 199129712.000000, 2889.750000, 8180.000000, 8185.000000, 8180.000000
1930, 199129872.000000, 2997.500000, 8193.000000, 8204.000000, 8216.000000
1931, 199130032.000000, 2973.750000, 8205.000000, 8223.000000, 8249.000000
1932, 199130192.000000, 2874.000000, 8212.000000, 8210.000000, 8226.000000
1933, 199130352.000000, 2735.500000, 8193.000000, 8186.000000, 8186.000000
1934, 199130512.000000, 2586.500000, 8178.000000, 8174.000000, 8164.000000
1935, 199130672.000000, 2425.500000, 8176.000000, 8171.000000, 8158.000000
1936, 199130832.000000, 2257.000000, 8175.000000, 8169.000000, 8153.000000
1937, 199130992.000000, 2114.500000, 8261.000000, 8197.000000, 8228.000000
1938, 199131152.000000, 2022.750000, 8361.000000, 7868.000000, 7944.000000
1939, 199131312.000000, 1992.250000, 8124.000000, 8074.000000, 8010.000000
1940, 199131472.000000, 1996.250000, 8187.000000, 8206.000000, 8200.000000
1941, 199131632.000000, 2008.750000, 8188.000000, 8217.000000, 8212.000000
1942, 199131792.000000, 2011.500000, 8194.000000, 8222.000000, 8222.000000
1943, 199131952.000000, 1993.250000, 8199.000000, 8224.000000, 8226.000000
1944, 199132112.000000, 1943.250000, 8205.000000, 8228.000000, 8232.000000
1945, 199132272.000000, 1865.750000, 8212.000000, 8229.000000, 8237.000000
1946, 199132432.000000, 1769.500000, 8218.000000, 8233.000000, 8243.000000
1947, 199132592.000000, 1663.500000, 8227.000000, 8239.000000, 8253.000000
1948, 199132752.000000, 1561.750000, 8238.000000, 8241.000000, 8261.000000
1949, 199132912.000000, 1473.250000, 8251.000000, 8237.000000, 8265.000000
1950, 199133072.000000, 1401.750000, 8256.000000, 8230.000000, 8260.000000
1951, 199133232.000000, 1346.000000, 8246.000000, 8217.000000, 8244.000000
1952, 199133392.000000, 1305.750000, 8210.000000, 8210.000000, 8223.000000
1953, 199133552.000000, 1276.500000, 8172.000000, 8203.000000, 8201.000000
1954, 199133712.000000, 1253.500000, 8153.000000, 8197.000000, 8184.000000
1955, 199133872.000000, 1231.750000, 8146.000000, 8193.000000, 8174.000000
1956, 199134032.000000, 1212.250000, 8147.000000, 8194.000000, 8175.000000
1957, 199134192.000000, 1194.000000, 8151.000000, 8195.000000, 8179.000000
1958, 199134352.000000, 1174.000000, 8154.000000, 8197.000000, 8183.000000
1959, 199134512.000000, 1151.500000, 8156.000000, 8196.000000, 8183.000000
1960, 199134672.000000, 1120.000000, 8155.000000, 8194.000000, 8179.000000
1961, 199134832.000000, 1075.750000, 8160.000000, 8190.000000, 8176.000000
1962, 199134992.000000, 1043.250000, 8160.000000, 8188.000000, 8174.000000
1963, 199135152.000000, 1107.000000, 8162.000000, 8186.000000, 8173.000000
1964, 199135312.000000, 1370.000000, 8162.000000, 8183.000000, 8170.000000
1965, 199135472.000000, 1826.000000, 8161.000000, 8183.000000, 8168.000000
1966, 199135632.000000, 2340.750000, 8162.000000, 8184.000000, 8171.000000
1967, 199135792.000000, 2765.500000, 8162.000000, 8182.000000, 8169.000000
1968, 199135952.000000, 3027.250000, 8172.000000, 8196.000000, 8196.000000
1969, 199136112.000000, 3122.500000, 8181.000000, 8213.000000, 8227.000000
1970, 199136272.000000, 3095.500000, 8201.000000, 8214.000000, 8231.000000
1971, 199136432.000000, 2987.500000, 8185.000000, 8183.000000, 8183.000000
1972, 199136592.000000, 2849.500000, 8164.000000, 8168.000000, 8153.000000
1973, 199136752.000000, 2703.750000, 8166.000000, 8166.000000, 8152.000000
1974, 199136912.000000, 2547.750000, 8168.000000, 8166.000000, 8153.000000
1975, 199137072.000000, 2385.000000, 8214.000000, 8204.000000, 8210.000000
1976, 199137232.000000, 2244.750000, 8373.000000, 7948.000000, 8044.000000
1977, 199137392.000000, 2160.000000, 8092.000000, 7993.000000, 7922.000000
1978, 199137552.000000, 2129.750000, 8180.000000, 8190.000000, 8181.000000
1979, 199137712.000000, 2137.500000, 8184.000000, 8208.000000, 8204.000000
1980, 199137872.000000, 2152.250000, 8188.000000, 8212.000000, 8209.000000
1981, 199138032.000000, 2156.500000, 8195.000000, 8214.000000, 8213.000000
1982, 199138192.000000, 2132.750000, 8202.000000, 8219.000000, 8221.000000
1983, 199138352.000000, 2076.000000, 8210.000000, 8223.000000, 8230.000000
1984, 199138512.000000, 1988.000000, 8221.000000, 8225.000000, 8237.000000
1985, 199138672.000000, 1882.000000, 8230.000000, 8228.000000, 8242.000000
1986, 199138832.000000, 1774.500000, 8241.000000, 8230.000000, 8248.000000
1987, 199138992.000000, 1675.250000, 8250.000000, 8227.000000, 8247.000000
1988, 199139152.000000, 1591.750000, 8259.000000, 8221.000000, 8245.000000
1989, 199139312.000000, 1525.000000, 8255.000000, 8212.000000, 8235.000000
1990, 199139472.000000, 1475.000000, 8224.000000, 8202.000000, 8214.000000
1991, 199139632.000000, 1440.000000, 8180.000000, 8198.000000, 8193.000000
1992, 199139792.000000, 1415.750000, 8155.000000, 8194.000000, 8177.000000
1993, 199139952.000000, 1396.750000, 8150.000000, 8189.000000, 8170.000000
1994, 199140112.000000, 1381.250000, 8147.000000, 8188.000000, 8165.000000
1995, 199140272.000000, 1364.500000, 8151.000000, 8189.000000, 8167.000000
1996, 199140432.000000, 1346.000000, 8159.000000, 8189.000000, 8170.000000
1997, 199140592.000000, 1322.750000, 8161.000000, 8189.000000, 8170.000000
1998, 199140752.000000, 1287.000000, 8163.000000, 8186.000000, 8166.000000
1999, 199140912.000000, 1239.500000, 8165.000000, 8184.000000, 8165.000000
2000, 199141072.000000, 1184.500000, 8164.000000, 8181.000000, 8160.000000
2001, 199141232.000000, 1177.750000, 8163.000000, 8180.000000, 8158.000000
2002, 199141392.000000, 1307.250000, 8166.000000, 8177.000000, 8157.000000
2003, 199141552.000000, 1643.000000, 8167.000000, 8179.000000, 8160.000000
2004, 199141712.000000, 2093.000000, 8166.000000, 8180.000000, 8160.000000
2005, 199141872.000000, 2517.250000, 8165.000000, 8179.000000, 8160.000000
2006, 199142032.000000, 2797.000000, 8175.000000, 8200.000000, 8196.000000
2007, 199142192.000000, 2920.250000, 8189.000000, 8221.000000, 8234.000000
2008, 199142352.000000, 2905.250000, 8196.000000, 8204.000000, 8206.000000
2009, 199142512.000000, 2799.000000, 8176.000000, 8178.000000, 8165.000000
2010, 199142672.000000, 2653.250000, 8168.000000, 8167.000000, 8146.000000
2011, 199142832.000000, 2494.000000, 8173.000000, 8165.000000, 8146.000000
2012, 199142992.000000, 2330.000000, 8173.000000, 8165.000000, 8142.000000
2013, 199143152.000000, 2160.750000, 8271.000000, 8213.000000, 8249.000000
2014, 199143312.000000, 2012.750000, 8334.000000, 7905.000000, 7965.000000
2015, 199143472.000000, 1915.000000, 8127.000000, 8071.000000, 8009.000000
2016, 199143632.000000, 1878.000000, 8186.000000, 8197.000000, 8188.000000
2017, 199143792.000000, 1877.250000, 8191.000000, 8209.000000, 8204.000000
2018, 199143952.000000, 1890.000000, 8196.000000, 8213.000000, 8209.000000
2019, 199144112.000000, 1894.250000, 8203.000000, 8215.000000, 8215.000000
2020, 199144272.000000, 1872.000000, 8209.000000, 8218.000000, 8220.000000
2021, 199144432.000000, 1823.000000, 8218.000000, 8224.000000, 8232.000000
2022, 199144592.000000, 1747.750000, 8226.000000, 8229.000000, 8241.000000
2023, 199144752.000000, 1660.250000, 8240.000000, 8234.000000, 8253.000000
2024, 199144912.000000, 1570.000000, 8253.000000, 8235.000000, 8259.000000
2025, 199145072.000000, 1480.750000, 8263.000000, 8229.000000, 8257.000000
2026, 199145232.000000, 1400.000000, 8269.000000, 8218.000000, 8248.000000
2027, 199145392.000000, 1333.250000, 8256.000000, 8205.000000, 8231.000000
2028, 199145552.000000, 1280.750000, 8214.000000, 8202.000000, 8216.000000
2029, 199145712.000000, 1243.250000, 8176.000000, 8199.000000, 8199.000000
2030, 199145872.000000, 1212.250000, 8155.000000, 8196.000000, 8183.000000
2031, 199146032.000000, 1185.500000, 8152.000000, 8194.000000, 8179.000000
2032, 199146192.000000, 1163.000000, 8157.000000, 8195.000000, 8183.000000
2033, 199146352.000000, 1143.000000, 8160.000000, 8196.000000, 8186.000000
2034, 199146512.000000, 1123.750000, 8167.000000, 8196.000000, 8187.000000
2035, 199146672.000000, 1104.750000, 8171.000000, 8196.000000, 8189.000000
2036, 199146832.000000, 1079.500000, 8179.000000, 8194.000000, 8191.000000
2037, 199146992.000000, 1040.500000, 8179.000000, 8194.000000, 8191.000000
2038, 199147152.000000, 1001.250000, 8179.000000, 8191.000000, 8191.000000
2039, 199147312.000000, 1013.750000, 8178.000000, 8189.000000, 8187.000000
2040, 199147472.000000, 1166.250000, 8175.000000, 8187.000000, 8183.000000
2041, 199147632.000000, 1497.000000, 8175.000000, 8186.000000, 8182.000000
2042, 199147792.000000, 1911.250000, 8176.000000, 8186.000000, 8181.000000
2043, 199147952.000000, 2277.250000, 8184.000000, 8202.000000, 8210.000000
2044, 199148112.000000, 2514.250000, 8190.000000, 8220.000000, 8238.000000
2045, 199148272.000000, 2620.250000, 8206.000000, 8222.000000, 8242.000000
2046, 199148432.000000, 2610.750000, 8191.000000, 8194.000000, 8198.000000
2047, 199148592.000000, 2534.000000, 8172.000000, 8178.000000, 8168.000000
2048, 199148752.000000, 2423.750000, 8170.000000, 8175.000000, 8164.000000
2049, 199148912.000000, 2294.500000, 8172.000000, 8174.000000, 8164.000000
2050, 199149072.000000, 2151.750000, 8218.000000, 8219.000000, 8231.000000
2051, 199149232.000000, 1999.000000, 8364.000000, 7957.000000, 8053.000000
2052, 199149392.000000, 1873.250000, 8096.000000, 7994.000000, 7933.000000
2053, 199149552.000000, 1795.500000, 8185.000000, 8198.000000, 8195.000000
2054, 199149712.000000, 1773.250000, 8187.000000, 8218.000000, 8218.000000
2055, 199149872.000000, 1785.000000, 8191.000000, 8223.000000, 8223.000000
2056, 199150032.000000, 1810.000000, 8197.000000, 8226.000000, 8228.000000
2057, 199150192.000000, 1821.500000, 8206.000000, 8228.000000, 8234.000000
2058, 199150352.000000, 1814.250000, 8215.000000, 8234.000000, 8246.000000
2059, 199150512.000000, 1777.500000, 8227.000000, 8238.000000, 8254.000000
2060, 199150672.000000, 1716.000000, 8237.000000, 8240.000000, 8259.000000
2061, 199150832.000000, 1640.250000, 8250.000000, 8243.000000, 8267.000000
2062, 199150992.000000, 1554.500000, 8263.000000, 8241.000000, 8271.000000
2063, 199151152.000000, 1470.250000, 8270.000000, 8233.000000, 8266.000000
2064, 199151312.000000, 1394.500000, 8268.000000, 8219.000000, 8251.000000
2065, 199151472.000000, 1336.250000, 8232.000000, 8208.000000, 8226.000000
2066, 199151632.000000, 1291.500000, 8191.000000, 8203.000000, 8207.000000
2067, 199151792.000000, 1259.000000, 8170.000000, 8198.000000, 8193.000000
2068, 199151952.000000, 1235.250000, 8163.000000, 8194.000000, 8184.000000
2069, 199152112.000000, 1218.500000, 8160.000000, 8193.000000, 8181.000000
2070, 199152272.000000, 1204.750000, 8160.000000, 8194.000000, 8182.000000
2071, 199152432.000000, 1189.750000, 8164.000000, 8197.000000, 8188.000000
2072, 199152592.000000, 1168.750000, 8167.000000, 8196.000000, 8189.000000
2073, 199152752.000000, 1141.250000, 8170.000000, 8193.000000, 8188.000000
2074, 199152912.000000, 1104.750000, 8169.000000, 8191.000000, 8187.000000
2075, 199153072.000000, 1062.750000, 8168.000000, 8188.000000, 8183.000000
2076, 199153232.000000, 1060.500000, 8169.000000, 8186.000000, 8182.000000
2077, 199153392.000000, 1168.000000, 8169.000000, 8185.000000, 8181.000000
2078, 199153552.000000, 1445.250000, 8170.000000, 8183.000000, 8178.000000
2079, 199153712.000000, 1820.500000, 8170.000000, 8182.000000, 8175.000000
2080, 199153872.000000, 2173.250000, 8170.000000, 8182.000000, 8173.000000
2081, 199154032.000000, 2410.500000, 8171.000000, 8184.000000, 8177.000000
2082, 199154192.000000, 2525.250000, 8183.000000, 8210.000000, 8221.000000
2083, 199154352.000000, 2534.000000, 8201.000000, 8228.000000, 8255.000000
2084, 199154512.000000, 2479.000000, 8200.000000, 8201.000000, 8211.000000
2085, 199154672.000000, 2394.000000, 8177.000000, 8176.000000, 8165.000000
2086, 199154832.000000, 2299.250000, 8176.000000, 8171.000000, 8156.000000
2087, 199154992.000000, 2192.500000, 8177.000000, 8171.000000, 8156.000000
2088, 199155152.000000, 2071.500000, 8190.000000, 8167.000000, 8151.000000
2089, 199155312.000000, 1955.500000, 8308.000000, 8161.000000, 8225.000000
2090, 199155472.000000, 1877.250000, 8241.000000, 7873.000000, 7883.000000
2091, 199155632.000000, 1847.500000, 8167.000000, 8129.000000, 8092.000000
2092, 199155792.000000, 1846.000000, 8203.000000, 8209.000000, 8211.000000
2093, 199155952.000000, 1855.250000, 8206.000000, 8217.000000, 8221.000000
2094, 199156112.000000, 1855.000000, 8212.000000, 8221.000000, 8227.000000
2095, 199156272.000000, 1838.500000, 8216.000000, 8224.000000, 8231.000000
2096, 199156432.000000, 1803.000000, 8221.000000, 8227.000000, 8237.000000
2097, 199156592.000000, 1746.250000, 8229.000000, 8232.000000, 8246.000000
2098, 199156752.000000, 1675.750000, 8239.000000, 8236.000000, 8256.000000
2099, 199156912.000000, 1602.250000, 8250.000000, 8241.000000, 8265.000000
2100, 199157072.000000, 1533.500000, 8263.000000, 8242.000000, 8272.000000
2101, 199157232.000000, 1472.750000, 8275.000000, 8237.000000, 8273.000000
2102, 199157392.000000, 1422.750000, 8279.000000, 8227.000000, 8264.000000
2103, 199157552.000000, 1383.500000, 8258.000000, 8212.000000, 8241.000000
2104, 199157712.000000, 1352.250000, 8213.000000, 8205.000000, 8218.000000
2105, 199157872.000000, 1328.000000, 8182.000000, 8199.000000, 8196.000000
2106, 199158032.000000, 1312.500000, 8167.000000, 8195.000000, 8184.000000
2107, 199158192.000000, 1299.250000, 8166.000000, 8193.000000, 8183.000000
2108, 199158352.000000, 1284.500000, 8169.000000, 8194.000000, 8184.000000
2109, 199158512.000000, 1268.750000, 8172.000000, 8194.000000, 8184.000000
2110, 199158672.000000, 1250.000000, 8175.000000, 8193.000000, 8185.000000
2111, 199158832.000000, 1227.500000, 8176.000000, 8196.000000, 8187.000000
2112, 199158992.000000, 1198.750000, 8181.000000, 8195.000000, 8189.000000
2113, 199159152.000000, 1164.500000, 8182.000000, 8193.000000, 8186.000000
2114, 199159312.000000, 1142.000000, 8179.000000, 8190.000000, 8179.000000
2115, 199159472.000000, 1204.250000, 8179.000000, 8187.000000, 8176.000000
2116, 199159632.000000, 1424.000000, 8178.000000, 8186.000000, 8174.000000
2117, 199159792.000000, 1780.250000, 8179.000000, 8185.000000, 8174.000000
2118, 199159952.000000, 2156.250000, 8179.000000, 8184.000000, 8173.000000
2119, 199160112.000000, 2449.250000, 8180.000000, 8185.000000, 8174.000000
2120, 199160272.000000, 2617.750000, 8182.000000, 8184.000000, 8173.000000
2121, 199160432.000000, 2675.000000, 8184.000000, 8184.000000, 8174.000000
2122, 199160592.000000, 2656.000000, 8184.000000, 8186.000000, 8178.000000
2123, 199160752.000000, 2594.000000, 8188.000000, 8193.000000, 8190.000000
2124, 199160912.000000, 2504.500000, 8195.000000, 8213.000000, 8224.000000
2125, 199161072.000000, 2408.000000, 8212.000000, 8217.000000, 8235.000000
2126, 199161232.000000, 2308.250000, 8205.000000, 8193.000000, 8197.000000
2127, 199161392.000000, 2203.000000, 8181.000000, 8177.000000, 8167.000000
2128, 199161552.000000, 2119.250000, 8181.000000, 8176.000000, 8166.000000
2129, 199161712.000000, 2076.750000, 8182.000000, 8176.000000, 8165.000000
2130, 199161872.000000, 2065.000000, 8198.000000, 8183.000000, 8172.000000
2131, 199162032.000000, 2064.250000, 8354.000000, 8027.000000, 8116.000000
2132, 199162192.000000, 2055.500000, 8113.000000, 7926.000000, 7871.000000
2133, 199162352.000000, 2024.500000, 8184.000000, 8181.000000, 8167.000000
2134, 199162512.000000, 1970.250000, 8197.000000, 8219.000000, 8219.000000
2135, 199162672.000000, 1907.000000, 8200.000000, 8224.000000, 8224.000000
2136, 199162832.000000, 1819.500000, 8206.000000, 8228.000000, 8230.000000
2137, 199162992.000000, 1732.750000, 8209.000000, 8230.000000, 8234.000000
2138, 199163152.000000, 1669.500000, 8217.000000, 8235.000000, 8243.000000
2139, 199163312.000000, 1618.750000, 8222.000000, 8237.000000, 8246.000000
2140, 199163472.000000, 1577.750000, 8229.000000, 8241.000000, 8253.000000
2141, 199163632.000000, 1546.000000, 8240.000000, 8244.000000, 8263.000000
2142, 199163792.000000, 1519.750000, 8250.000000, 8245.000000, 8267.000000
2143, 199163952.000000, 1500.750000, 8263.000000, 8238.000000, 8266.000000
2144, 199164112.000000, 1482.000000, 8264.000000, 8229.000000, 8258.000000
2145, 199164272.000000, 1463.750000, 8241.000000, 8215.000000, 8235.000000
2146, 199164432.000000, 1441.500000, 8198.000000, 8208.000000, 8211.000000
2147, 199164592.000000, 1412.750000, 8170.000000, 8201.000000, 8190.000000
2148, 199164752.000000, 1379.000000, 8161.000000, 8196.000000, 8181.000000
2149, 199164912.000000, 1349.000000, 8157.000000, 8193.000000, 8175.000000
2150, 199165072.000000, 1320.500000, 8157.000000, 8193.000000, 8175.000000
2151, 199165232.000000, 1293.000000, 8158.000000, 8195.000000, 8178.000000
2152, 199165392.000000, 1262.750000, 8161.000000, 8196.000000, 8181.000000
2153, 199165552.000000, 1228.500000, 8165.000000, 8195.000000, 8182.000000
2154, 199165712.000000, 1206.500000, 8165.000000, 8194.000000, 8179.000000
2155, 199165872.000000, 1261.250000, 8170.000000, 8191.000000, 8176.000000
2156, 199166032.000000, 1477.500000, 8169.000000, 8189.000000, 8173.000000
2157, 199166192.000000, 1845.250000, 8169.000000, 8188.000000, 8172.000000
2158, 199166352.000000, 2250.750000, 8166.000000, 8187.000000, 8169.000000
2159, 199166512.000000, 2575.250000, 8166.000000, 8185.000000, 8167.000000
2160, 199166672.000000, 2767.500000, 8167.000000, 8185.000000, 8168.000000
2161, 199166832.000000, 2839.500000, 8167.000000, 8184.000000, 8167.000000
2162, 199166992.000000, 2830.500000, 8171.000000, 8184.000000, 8169.000000
2163, 199167152.000000, 2776.250000, 8171.000000, 8184.000000, 8169.000000
2164, 199167312.000000, 2708.750000, 8170.000000, 8184.000000, 8167.000000
2165, 199167472.000000, 2646.250000, 8173.000000, 8183.000000, 8168.000000
2166, 199167632.000000, 2570.250000, 8173.000000, 8185.000000, 8172.000000
2167, 199167792.000000, 2473.500000, 8174.000000, 8186.000000, 8175.000000
2168, 199167952.000000, 2367.750000, 8182.000000, 8210.000000, 8216.000000
2169, 199168112.000000, 2290.250000, 8189.000000, 8212.000000, 8217.000000
2170, 199168272.000000, 2247.750000, 8187.000000, 8193.000000, 8189.000000
2171, 199168432.000000, 2232.250000, 8168.000000, 8180.000000, 8167.000000
2172, 199168592.000000, 2224.250000, 8166.000000, 8178.000000, 8164.000000
2173, 199168752.000000, 2211.750000, 8166.000000, 8177.000000, 8163.000000
2174, 199168912.000000, 2183.500000, 8170.000000, 8175.000000, 8156.000000
2175, 199169072.000000, 2138.500000, 8286.000000, 8192.000000, 8246.000000
2176, 199169232.000000, 2074.000000, 8286.000000, 7891.000000, 7927.000000
2177, 199169392.000000, 1999.750000, 8139.000000, 8122.000000, 8074.000000
2178, 199169552.000000, 1921.750000, 8182.000000, 8216.000000, 8213.000000
2179, 199169712.000000, 1850.750000, 8183.000000, 8225.000000, 8222.000000
2180, 199169872.000000, 1787.250000, 8185.000000, 8226.000000, 8221.000000
2181, 199170032.000000, 1733.000000, 8193.000000, 8228.000000, 8228.000000
2182, 199170192.000000, 1689.250000, 8201.000000, 8231.000000, 8236.000000
2183, 199170352.000000, 1655.000000, 8209.000000, 8235.000000, 8243.000000
2184, 199170512.000000, 1629.000000, 8220.000000, 8237.000000, 8249.000000
2185, 199170672.000000, 1608.250000, 8232.000000, 8237.000000, 8253.000000
2186, 199170832.000000, 1587.000000, 8246.000000, 8238.000000, 8261.000000
2187, 199170992.000000, 1566.250000, 8259.000000, 8233.000000, 8261.000000
2188, 199171152.000000, 1542.750000, 8268.000000, 8225.000000, 8257.000000
2189, 199171312.000000, 1516.750000, 8260.000000, 8212.000000, 8242.000000
2190, 199171472.000000, 1488.250000, 8219.000000, 8205.000000, 8220.000000
2191, 199171632.000000, 1459.000000, 8182.000000, 8200.000000, 8200.000000
2192, 199171792.000000, 1428.000000, 8164.000000, 8195.000000, 8186.000000
2193, 199171952.000000, 1398.000000, 8156.000000, 8192.000000, 8179.000000
2194, 199172112.000000, 1370.500000, 8155.000000, 8192.000000, 8177.000000
2195, 199172272.000000, 1347.250000, 8157.000000, 8192.000000, 8178.000000
2196, 199172432.000000, 1325.500000, 8163.000000, 8194.000000, 8184.000000
2197, 199172592.000000, 1299.000000, 8166.000000, 8195.000000, 8187.000000
2198, 199172752.000000, 1268.250000, 8166.000000, 8193.000000, 8185.000000
2199, 199172912.000000, 1262.250000, 8167.000000, 8191.000000, 8182.000000
2200, 199173072.000000, 1366.250000, 8167.000000, 8188.000000, 8179.000000
2201, 199173232.000000, 1647.000000, 8168.000000, 8187.000000, 8178.000000
2202, 199173392.000000, 2046.500000, 8166.000000, 8185.000000, 8177.000000
2203, 199173552.000000, 2440.250000, 8162.000000, 8185.000000, 8174.000000
2204, 199173712.000000, 2723.750000, 8160.000000, 8184.000000, 8170.000000
2205, 199173872.000000, 2873.250000, 8161.000000, 8183.000000, 8168.000000
2206, 199174032.000000, 2907.250000, 8161.000000, 8183.000000, 8168.000000
2207, 199174192.000000, 2864.250000, 8164.000000, 8183.000000, 8170.000000
2208, 199174352.000000, 2786.750000, 8163.000000, 8183.000000, 8169.000000
2209, 199174512.000000, 2702.500000, 8165.000000, 8182.000000, 8169.000000
2210, 199174672.000000, 2614.250000, 8171.000000, 8185.000000, 8176.000000
2211, 199174832.000000, 2510.250000, 8182.000000, 8208.000000, 8214.000000
2212, 199174992.000000, 2391.250000, 8192.000000, 8205.000000, 8212.000000
2213, 199175152.000000, 2282.500000, 8191.000000, 8186.000000, 8186.000000
2214, 199175312.000000, 2218.000000, 8168.000000, 8173.000000, 8158.000000
2215, 199175472.000000, 2194.000000, 8170.000000, 8173.000000, 8158.000000
2216, 199175632.000000, 2192.000000, 8168.000000, 8174.000000, 8159.000000
2217, 199175792.000000, 2189.500000, 8179.000000, 8179.000000, 8160.000000
2218, 199175952.000000, 2175.000000, 8340.000000, 8116.000000, 8198.000000
2219, 199176112.000000, 2135.750000, 8128.000000, 7932.000000, 7891.000000
2220, 199176272.000000, 2078.000000, 8156.000000, 8156.000000, 8121.000000
2221, 199176432.000000, 2003.750000, 8182.000000, 8213.000000, 8206.000000
2222, 199176592.000000, 1921.750000, 8187.000000, 8219.000000, 8215.000000
2223, 199176752.000000, 1841.750000, 8192.000000, 8221.000000, 8218.000000
2224, 199176912.000000, 1773.000000, 8200.000000, 8224.000000, 8224.000000
2225, 199177072.000000, 1714.750000, 8208.000000, 8228.000000, 8232.000000
2226, 199177232.000000, 1665.250000, 8216.000000, 8232.000000, 8241.000000
2227, 199177392.000000, 1623.750000, 8224.000000, 8235.000000, 8247.000000
2228, 199177552.000000, 1588.500000, 8235.000000, 8238.000000, 8254.000000
2229, 199177712.000000, 1556.750000, 8248.000000, 8237.000000, 8259.000000
2230, 199177872.000000, 1532.750000, 8261.000000, 8229.000000, 8256.000000
2231, 199178032.000000, 1510.250000, 8265.000000, 8219.000000, 8249.000000
2232, 199178192.000000, 1485.250000, 8244.000000, 8205.000000, 8229.000000
2233, 199178352.000000, 1457.000000, 8199.000000, 8201.000000, 8209.000000
2234, 199178512.000000, 1427.000000, 8164.000000, 8198.000000, 8189.000000
2235, 199178672.000000, 1397.000000, 8151.000000, 8192.000000, 8176.000000
2236, 199178832.000000, 1367.000000, 8149.000000, 8191.000000, 8174.000000
2237, 199178992.000000, 1339.500000, 8149.000000, 8193.000000, 8176.000000
2238, 199179152.000000, 1315.750000, 8153.000000, 8195.000000, 8180.000000
2239, 199179312.000000, 1291.750000, 8158.000000, 8194.000000, 8179.000000
2240, 199179472.000000, 1262.500000, 8163.000000, 8195.000000, 8181.000000
2241, 199179632.000000, 1224.750000, 8169.000000, 8194.000000, 8184.000000
2242, 199179792.000000, 1205.750000, 8170.000000, 8193.000000, 8182.000000
2243, 199179952.000000, 1281.250000, 8168.000000, 8191.000000, 8178.000000
2244, 199180112.000000, 1528.750000, 8169.000000, 8187.000000, 8175.000000
2245, 199180272.000000, 1920.750000, 8167.000000, 8186.000000, 8173.000000
2246, 199180432.000000, 2329.000000, 8169.000000, 8185.000000, 8173.000000
2247, 199180592.000000, 2645.250000, 8168.000000, 8185.000000, 8174.000000
2248, 199180752.000000, 2824.250000, 8167.000000, 8184.000000, 8171.000000
2249, 199180912.000000, 2879.750000, 8168.000000, 8183.000000, 8172.000000
2250, 199181072.000000, 2848.250000, 8168.000000, 8183.000000, 8172.000000
2251, 199181232.000000, 2768.750000, 8170.000000, 8183.000000, 8172.000000
2252, 199181392.000000, 2676.250000, 8173.000000, 8183.000000, 8174.000000
2253, 199181552.000000, 2577.250000, 8174.000000, 8183.000000, 8176.000000
2254, 199181712.000000, 2463.750000, 8175.000000, 8183.000000, 8175.000000
2255, 199181872.000000, 2340.250000, 8182.000000, 8202.000000, 8208.000000
2256, 199182032.000000, 2232.750000, 8190.000000, 8203.000000, 8207.000000
2257, 199182192.000000, 2172.000000, 8194.000000, 8189.000000, 8189.000000
2258, 199182352.000000, 2153.000000, 8183.000000, 8180.000000, 8175.000000
2259, 199182512.000000, 2160.000000, 8175.000000, 8174.000000, 8162.000000
2260, 199182672.000000, 2166.250000, 8176.000000, 8175.000000, 8164.000000
2261, 199182832.000000, 2162.250000, 8178.000000, 8176.000000, 8164.000000
2262, 199182992.000000, 2133.750000, 8257.000000, 8202.000000, 8234.000000
2263, 199183152.000000, 2078.750000, 8367.000000, 7869.000000, 7945.000000
2264, 199183312.000000, 2001.500000, 8126.000000, 8078.000000, 8017.000000
2265, 199183472.000000, 1914.750000, 8190.000000, 8214.000000, 8212.000000
2266, 199183632.000000, 1829.750000, 8193.000000, 8226.000000, 8226.000000
2267, 199183792.000000, 1752.250000, 8199.000000, 8228.000000, 8230.000000
2268, 199183952.000000, 1688.000000, 8203.000000, 8230.000000, 8234.000000
2269, 199184112.000000, 1635.500000, 8208.000000, 8231.000000, 8235.000000
2270, 199184272.000000, 1594.500000, 8214.000000, 8234.000000, 8240.000000
2271, 199184432.000000, 1562.750000, 8224.000000, 8238.000000, 8250.000000
2272, 199184592.000000, 1537.750000, 8234.000000, 8241.000000, 8258.000000
2273, 199184752.000000, 1515.250000, 8244.000000, 8243.000000, 8263.000000
2274, 199184912.000000, 1495.000000, 8259.000000, 8241.000000, 8267.000000
2275, 199185072.000000, 1475.000000, 8269.000000, 8234.000000, 8266.000000
2276, 199185232.000000, 1451.750000, 8265.000000, 8221.000000, 8253.000000
2277, 199185392.000000, 1430.250000, 8233.000000, 8206.000000, 8224.000000
2278, 199185552.000000, 1405.250000, 8191.000000, 8199.000000, 8199.000000
2279, 199185712.000000, 1377.000000, 8169.000000, 8192.000000, 8180.000000
2280, 199185872.000000, 1347.000000, 8164.000000, 8187.000000, 8172.000000
2281, 199186032.000000, 1317.000000, 8163.000000, 8187.000000, 8173.000000
2282, 199186192.000000, 1291.750000, 8162.000000, 8190.000000, 8175.000000
2283, 199186352.000000, 1270.250000, 8162.000000, 8191.000000, 8176.000000
2284, 199186512.000000, 1245.000000, 8165.000000, 8190.000000, 8175.000000
2285, 199186672.000000, 1210.750000, 8170.000000, 8189.000000, 8176.000000
2286, 199186832.000000, 1180.000000, 8175.000000, 8188.000000, 8178.000000
2287, 199186992.000000, 1222.250000, 8175.000000, 8185.000000, 8175.000000
2288, 199187152.000000, 1439.500000, 8173.000000, 8184.000000, 8171.000000
2289, 199187312.000000, 1858.000000, 8173.000000, 8182.000000, 8169.000000
2290, 199187472.000000, 2357.000000, 8172.000000, 8182.000000, 8168.000000
2291, 199187632.000000, 2783.000000, 8174.000000, 8183.000000, 8170.000000
2292, 199187792.000000, 3059.250000, 8172.000000, 8183.000000, 8169.000000
2293, 199187952.000000, 3189.500000, 8169.000000, 8183.000000, 8167.000000
2294, 199188112.000000, 3196.250000, 8169.000000, 8182.000000, 8166.000000
2295, 199188272.000000, 3133.750000, 8169.000000, 8181.000000, 8165.000000
2296, 199188432.000000, 3033.500000, 8168.000000, 8182.000000, 8167.000000
2297, 199188592.000000, 2927.750000, 8168.000000, 8182.000000, 8167.000000
2298, 199188752.000000, 2814.500000, 8168.000000, 8182.000000, 8167.000000
2299, 199188912.000000, 2683.500000, 8170.000000, 8182.000000, 8167.000000
2300, 199189072.000000, 2549.500000, 8176.000000, 8193.000000, 8186.000000
2301, 199189232.000000, 2443.500000, 8181.000000, 8200.000000, 8198.000000
2302, 199189392.000000, 2388.750000, 8188.000000, 8192.000000, 8185.000000
2303, 199189552.000000, 2369.000000, 8182.000000, 8182.000000, 8171.000000
2304, 199189712.000000, 2366.000000, 8168.000000, 8172.000000, 8153.000000
2305, 199189872.000000, 2360.000000, 8167.000000, 8172.000000, 8153.000000
2306, 199190032.000000, 2336.250000, 8167.000000, 8172.000000, 8153.000000
2307, 199190192.000000, 2290.500000, 8220.000000, 8209.000000, 8215.000000
2308, 199190352.000000, 2219.250000, 8372.000000, 7896.000000, 7981.000000
2309, 199190512.000000, 2127.750000, 8098.000000, 8024.000000, 7947.000000
2310, 199190672.000000, 2025.750000, 8183.000000, 8206.000000, 8199.000000
2311, 199190832.000000, 1926.750000, 8184.000000, 8222.000000, 8216.000000
2312, 199190992.000000, 1835.750000, 8191.000000, 8227.000000, 8224.000000
2313, 199191152.000000, 1760.750000, 8194.000000, 8229.000000, 8226.000000
2314, 199191312.000000, 1702.250000, 8198.000000, 8230.000000, 8229.000000
2315, 199191472.000000, 1657.250000, 8209.000000, 8233.000000, 8239.000000
2316, 199191632.000000, 1621.000000, 8213.000000, 8237.000000, 8246.000000
2317, 199191792.000000, 1592.750000, 8220.000000, 8239.000000, 8251.000000
2318, 199191952.000000, 1563.250000, 8232.000000, 8242.000000, 8260.000000
2319, 199192112.000000, 1534.250000, 8245.000000, 8242.000000, 8266.000000
2320, 199192272.000000, 1503.750000, 8253.000000, 8238.000000, 8264.000000
2321, 199192432.000000, 1471.000000, 8256.000000, 8228.000000, 8258.000000
2322, 199192592.000000, 1442.750000, 8231.000000, 8213.000000, 8234.000000
2323, 199192752.000000, 1411.000000, 8190.000000, 8204.000000, 8204.000000
2324, 199192912.000000, 1378.750000, 8162.000000, 8194.000000, 8181.000000
2325, 199193072.000000, 1348.250000, 8152.000000, 8189.000000, 8170.000000
2326, 199193232.000000, 1319.250000, 8150.000000, 8190.000000, 8171.000000
2327, 199193392.000000, 1294.500000, 8152.000000, 8192.000000, 8175.000000
2328, 199193552.000000, 1272.750000, 8154.000000, 8191.000000, 8173.000000
2329, 199193712.000000, 1248.500000, 8158.000000, 8193.000000, 8178.000000
2330, 199193872.000000, 1218.000000, 8160.000000, 8193.000000, 8181.000000
2331, 199194032.000000, 1177.750000, 8162.000000, 8193.000000, 8184.000000
2332, 199194192.000000, 1180.500000, 8162.000000, 8191.000000, 8182.000000
2333, 199194352.000000, 1322.750000, 8161.000000, 8189.000000, 8178.000000
2334, 199194512.000000, 1688.750000, 8161.000000, 8188.000000, 8177.000000
2335, 199194672.000000, 2191.750000, 8163.000000, 8186.000000, 8176.000000
2336, 199194832.000000, 2680.000000, 8164.000000, 8185.000000, 8176.000000
2337, 199194992.000000, 3030.500000, 8164.000000, 8185.000000, 8176.000000
2338, 199195152.000000, 3223.500000, 8166.000000, 8184.000000, 8176.000000
2339, 199195312.000000, 3272.250000, 8169.000000, 8184.000000, 8176.000000
2340, 199195472.000000, 3224.000000, 8169.000000, 8183.000000, 8175.000000
2341, 199195632.000000, 3120.500000, 8170.000000, 8185.000000, 8178.000000
2342, 199195792.000000, 2997.750000, 8170.000000, 8183.000000, 8176.000000
2343, 199195952.000000, 2873.750000, 8170.000000, 8184.000000, 8177.000000
2344, 199196112.000000, 2739.250000, 8175.000000, 8183.000000, 8179.000000
2345, 199196272.000000, 2590.750000, 8184.000000, 8199.000000, 8205.000000
2346, 199196432.000000, 2457.250000, 8192.000000, 8200.000000, 8207.000000
2347, 199196592.000000, 2369.000000, 8198.000000, 8188.000000, 8191.000000
2348, 199196752.000000, 2329.250000, 8189.000000, 8181.000000, 8182.000000
2349, 199196912.000000, 2318.500000, 8180.000000, 8175.000000, 8170.000000
2350, 199197072.000000, 2313.500000, 8180.000000, 8176.000000, 8171.000000
2351, 199197232.000000, 2302.000000, 8181.000000, 8177.000000, 8171.000000
2352, 199197392.000000, 2268.250000, 8275.000000, 8221.000000, 8269.000000
2353, 199197552.000000, 2205.500000, 8363.000000, 7908.000000, 7987.000000
2354, 199197712.000000, 2115.750000, 8133.000000, 8084.000000, 8032.000000
2355, 199197872.000000, 2009.750000, 8189.000000, 8209.000000, 8210.000000
2356, 199198032.000000, 1904.750000, 8191.000000, 8221.000000, 8225.000000
2357, 199198192.000000, 1804.500000, 8197.000000, 8224.000000, 8230.000000
2358, 199198352.000000, 1719.500000, 8200.000000, 8225.000000, 8231.000000
2359, 199198512.000000, 1650.250000, 8207.000000, 8227.000000, 8234.000000
2360, 199198672.000000, 1596.500000, 8215.000000, 8230.000000, 8242.000000
2361, 199198832.000000, 1554.000000, 8223.000000, 8233.000000, 8249.000000
2362, 199198992.000000, 1520.000000, 8231.000000, 8234.000000, 8255.000000
2363, 199199152.000000, 1490.000000, 8245.000000, 8236.000000, 8262.000000
2364, 199199312.000000, 1462.250000, 8259.000000, 8232.000000, 8262.000000
2365, 199199472.000000, 1435.500000, 8266.000000, 8225.000000, 8259.000000
2366, 199199632.000000, 1406.250000, 8263.000000, 8213.000000, 8247.000000
2367, 199199792.000000, 1376.250000, 8228.000000, 8203.000000, 8224.000000
2368, 199199952.000000, 1345.750000, 8186.000000, 8198.000000, 8201.000000
2369, 199200112.000000, 1314.750000, 8162.000000, 8193.000000, 8186.000000
2370, 199200272.000000, 1287.000000, 8153.000000, 8191.000000, 8178.000000
2371, 199200432.000000, 1259.500000, 8152.000000, 8191.000000, 8178.000000
2372, 199200592.000000, 1232.750000, 8156.000000, 8192.000000, 8181.000000
2373, 199200752.000000, 1208.500000, 8158.000000, 8194.000000, 8181.000000
2374, 199200912.000000, 1182.250000, 8163.000000, 8194.000000, 8184.000000
2375, 199201072.000000, 1152.250000, 8169.000000, 8191.000000, 8183.000000
2376, 199201232.000000, 1113.500000, 8173.000000, 8190.000000, 8183.000000
2377, 199201392.000000, 1105.000000, 8172.000000, 8187.000000, 8179.000000
2378, 199201552.000000, 1213.250000, 8172.000000, 8184.000000, 8174.000000
2379, 199201712.000000, 1538.000000, 8172.000000, 8182.000000, 8170.000000
2380, 199201872.000000, 2028.250000, 8171.000000, 8182.000000, 8171.000000
2381, 199202032.000000, 2539.000000, 8172.000000, 8181.000000, 8169.000000
2382, 199202192.000000, 2923.500000, 8171.000000, 8182.000000, 8169.000000
2383, 199202352.000000, 3145.250000, 8171.000000, 8181.000000, 8168.000000
2384, 199202512.000000, 3206.250000, 8171.000000, 8182.000000, 8169.000000
2385, 199202672.000000, 3147.500000, 8171.000000, 8183.000000, 8170.000000
2386, 199202832.000000, 3025.000000, 8171.000000, 8185.000000, 8172.000000
2387, 199202992.000000, 2880.000000, 8172.000000, 8186.000000, 8174.000000
2388, 199203152.000000, 2728.000000, 8179.000000, 8208.000000, 8208.000000
2389, 199203312.000000, 2566.500000, 8187.000000, 8211.000000, 8211.000000
2390, 199203472.000000, 2399.500000, 8188.000000, 8193.000000, 8186.000000
2391, 199203632.000000, 2263.500000, 8171.000000, 8182.000000, 8167.000000
2392, 199203792.000000, 2183.750000, 8166.000000, 8179.000000, 8161.000000
2393, 199203952.000000, 2162.250000, 8166.000000, 8178.000000, 8160.000000
2394, 199204112.000000, 2170.750000, 8173.000000, 8174.000000, 8155.000000
2395, 199204272.000000, 2186.500000, 8284.000000, 8199.000000, 8253.000000
2396, 199204432.000000, 2189.750000, 8272.000000, 7903.000000, 7935.000000
2397, 199204592.000000, 2164.000000, 8137.000000, 8119.000000, 8068.000000
2398, 199204752.000000, 2103.500000, 8180.000000, 8215.000000, 8208.000000
2399, 199204912.000000, 2016.000000, 8183.000000, 8224.000000, 8217.000000
2400, 199205072.000000, 1910.000000, 8191.000000, 8227.000000, 8224.000000
2401, 199205232.000000, 1799.000000, 8195.000000, 8230.000000, 8229.000000
2402, 199205392.000000, 1697.000000, 8206.000000, 8233.000000, 8239.000000
2403, 199205552.000000, 1614.500000, 8214.000000, 8235.000000, 8243.000000
2404, 199205712.000000, 1549.750000, 8220.000000, 8238.000000, 8248.000000
2405, 199205872.000000, 1500.500000, 8234.000000, 8241.000000, 8258.000000
2406, 199206032.000000, 1463.500000, 8246.000000, 8244.000000, 8265.000000
2407, 199206192.000000, 1430.250000, 8257.000000, 8239.000000, 8265.000000
2408, 199206352.000000, 1402.500000, 8264.000000, 8230.000000, 8257.000000
2409, 199206512.000000, 1379.250000, 8255.000000, 8215.000000, 8240.000000
2410, 199206672.000000, 1357.250000, 8218.000000, 8206.000000, 8218.000000
2411, 199206832.000000, 1333.250000, 8177.000000, 8203.000000, 8198.000000
2412, 199206992.000000, 1309.250000, 8158.000000, 8197.000000, 8182.000000
2413, 199207152.000000, 1283.500000, 8153.000000, 8195.000000, 8178.000000
2414, 199207312.000000, 1258.500000, 8153.000000, 8196.000000, 8179.000000
2415, 199207472.000000, 1233.500000, 8156.000000, 8196.000000, 8181.000000
2416, 199207632.000000, 1209.500000, 8161.000000, 8196.000000, 8183.000000
2417, 199207792.000000, 1183.750000, 8167.000000, 8195.000000, 8184.000000
2418, 199207952.000000, 1153.000000, 8169.000000, 8193.000000, 8181.000000
2419, 199208112.000000, 1110.250000, 8174.000000, 8192.000000, 8183.000000
2420, 199208272.000000, 1099.250000, 8175.000000, 8189.000000, 8181.000000
2421, 199208432.000000, 1205.500000, 8174.000000, 8186.000000, 8177.000000
2422, 199208592.000000, 1537.750000, 8172.000000, 8185.000000, 8175.000000
2423, 199208752.000000, 2034.750000, 8172.000000, 8184.000000, 8174.000000
2424, 199208912.000000, 2550.750000, 8172.000000, 8184.000000, 8174.000000
2425, 199209072.000000, 2938.000000, 8171.000000, 8184.000000, 8173.000000
2426, 199209232.000000, 3160.500000, 8171.000000, 8185.000000, 8174.000000
2427, 199209392.000000, 3221.750000, 8172.000000, 8185.000000, 8173.000000
2428, 199209552.000000, 3168.500000, 8171.000000, 8185.000000, 8172.000000
2429, 199209712.000000, 3046.000000, 8175.000000, 8184.000000, 8172.000000
2430, 199209872.000000, 2895.750000, 8175.000000, 8184.000000, 8172.000000
2431, 199210032.000000, 2739.000000, 8183.000000, 8203.000000, 8204.000000
2432, 199210192.000000, 2571.500000, 8191.000000, 8206.000000, 8212.000000
2433, 199210352.000000, 2399.750000, 8194.000000, 8193.000000, 8190.000000
2434, 199210512.000000, 2256.250000, 8183.000000, 8181.000000, 8174.000000
2435, 199210672.000000, 2175.500000, 8172.000000, 8176.000000, 8164.000000
2436, 199210832.000000, 2152.000000, 8172.000000, 8175.000000, 8163.000000
2437, 199210992.000000, 2160.500000, 8173.000000, 8174.000000, 8159.000000
2438, 199211152.000000, 2177.250000, 8257.000000, 8206.000000, 8238.000000
2439, 199211312.000000, 2181.750000, 8361.000000, 7878.000000, 7950.000000
2440, 199211472.000000, 2157.750000, 8126.000000, 8082.000000, 8021.000000
2441, 199211632.000000, 2100.250000, 8190.000000, 8214.000000, 8214.000000
2442, 199211792.000000, 2013.750000, 8190.000000, 8225.000000, 8223.000000
2443, 199211952.000000, 1910.500000, 8193.000000, 8228.000000, 8226.000000
2444, 199212112.000000, 1807.000000, 8200.000000, 8230.000000, 8232.000000
2445, 199212272.000000, 1709.500000, 8207.000000, 8233.000000, 8238.000000
2446, 199212432.000000, 1623.500000, 8214.000000, 8237.000000, 8245.000000
2447, 199212592.000000, 1554.250000, 8223.000000, 8238.000000, 8250.000000
2448, 199212752.000000, 1501.500000, 8231.000000, 8242.000000, 8257.000000
2449, 199212912.000000, 1463.250000, 8242.000000, 8245.000000, 8265.000000
2450, 199213072.000000, 1433.500000, 8253.000000, 8245.000000, 8271.000000
2451, 199213232.000000, 1411.000000, 8261.000000, 8238.000000, 8269.000000
2452, 199213392.000000, 1391.250000, 8258.000000, 8225.000000, 8254.000000
2453, 199213552.000000, 1373.750000, 8230.000000, 8210.000000, 8228.000000
2454, 199213712.000000, 1354.000000, 8187.000000, 8202.000000, 8200.000000
2455, 199213872.000000, 1331.500000, 8168.000000, 8196.000000, 8185.000000
2456, 199214032.000000, 1307.500000, 8162.000000, 8193.000000, 8178.000000
2457, 199214192.000000, 1281.500000, 8161.000000, 8192.000000, 8175.000000
2458, 199214352.000000, 1256.750000, 8163.000000, 8192.000000, 8176.000000
2459, 199214512.000000, 1236.750000, 8165.000000, 8194.000000, 8181.000000
2460, 199214672.000000, 1215.750000, 8167.000000, 8195.000000, 8182.000000
2461, 199214832.000000, 1189.250000, 8169.000000, 8194.000000, 8182.000000
2462, 199214992.000000, 1147.500000, 8172.000000, 8193.000000, 8183.000000
2463, 199215152.000000, 1121.500000, 8173.000000, 8191.000000, 8180.000000
2464, 199215312.000000, 1210.000000, 8173.000000, 8189.000000, 8178.000000
2465, 199215472.000000, 1533.250000, 8173.000000, 8187.000000, 8176.000000
2466, 199215632.000000, 2052.750000, 8175.000000, 8185.000000, 8175.000000
2467, 199215792.000000, 2618.500000, 8174.000000, 8183.000000, 8172.000000
2468, 199215952.000000, 3064.750000, 8174.000000, 8183.000000, 8172.000000
2469, 199216112.000000, 3331.750000, 8175.000000, 8182.000000, 8172.000000
2470, 199216272.000000, 3422.000000, 8175.000000, 8184.000000, 8174.000000
2471, 199216432.000000, 3385.000000, 8178.000000, 8184.000000, 8174.000000
2472, 199216592.000000, 3267.750000, 8176.000000, 8184.000000, 8173.000000
2473, 199216752.000000, 3118.500000, 8181.000000, 8187.000000, 8179.000000
2474, 199216912.000000, 2964.250000, 8193.000000, 8212.000000, 8222.000000
2475, 199217072.000000, 2803.500000, 8203.000000, 8214.000000, 8226.000000
2476, 199217232.000000, 2631.000000, 8201.000000, 8191.000000, 8194.000000
2477, 199217392.000000, 2474.000000, 8176.000000, 8178.000000, 8165.000000
2478, 199217552.000000, 2372.250000, 8175.000000, 8176.000000, 8162.000000
2479, 199217712.000000, 2328.250000, 8174.000000, 8175.000000, 8160.000000
2480, 199217872.000000, 2322.500000, 8186.000000, 8174.000000, 8157.000000
2481, 199218032.000000, 2327.500000, 8333.000000, 8116.000000, 8197.000000
2482, 199218192.000000, 2327.500000, 8165.000000, 7900.000000, 7869.000000
2483, 199218352.000000, 2300.750000, 8170.000000, 8160.000000, 8131.000000
2484, 199218512.000000, 2242.000000, 8192.000000, 8216.000000, 8213.000000
2485, 199218672.000000, 2152.000000, 8196.000000, 8223.000000, 8221.000000
2486, 199218832.000000, 2042.500000, 8201.000000, 8224.000000, 8223.000000
2487, 199218992.000000, 1930.000000, 8205.000000, 8226.000000, 8226.000000
2488, 199219152.000000, 1825.500000, 8215.000000, 8227.000000, 8233.000000
2489, 199219312.000000, 1736.250000, 8224.000000, 8231.000000, 8241.000000
2490, 199219472.000000, 1663.750000, 8231.000000, 8234.000000, 8247.000000
2491, 199219632.000000, 1606.250000, 8242.000000, 8238.000000, 8256.000000
2492, 199219792.000000, 1563.500000, 8256.000000, 8239.000000, 8263.000000
2493, 199219952.000000, 1530.250000, 8267.000000, 8234.000000, 8263.000000
2494, 199220112.000000, 1501.250000, 8270.000000, 8227.000000, 8260.000000
2495, 199220272.000000, 1478.000000, 8258.000000, 8213.000000, 8242.000000
2496, 199220432.000000, 1457.750000, 8216.000000, 8204.000000, 8217.000000
2497, 199220592.000000, 1433.500000, 8181.000000, 8198.000000, 8196.000000
2498, 199220752.000000, 1407.000000, 8166.000000, 8193.000000, 8181.000000
2499, 199220912.000000, 1375.250000, 8163.000000, 8191.000000, 8177.000000
2500, 199221072.000000, 1344.250000, 8164.000000, 8189.000000, 8174.000000
2501, 199221232.000000, 1316.750000, 8170.000000, 8190.000000, 8179.000000
2502, 199221392.000000, 1291.500000, 8172.000000, 8190.000000, 8180.000000
2503, 199221552.000000, 1265.750000, 8174.000000, 8190.000000, 8181.000000
2504, 199221712.000000, 1235.000000, 8173.000000, 8188.000000, 8177.000000
2505, 199221872.000000, 1193.250000, 8175.000000, 8187.000000, 8179.000000
2506, 199222032.000000, 1183.500000, 8176.000000, 8186.000000, 8179.000000
2507, 199222192.000000, 1317.500000, 8174.000000, 8183.000000, 8174.000000
2508, 199222352.000000, 1680.000000, 8173.000000, 8183.000000, 8174.000000
2509, 199222512.000000, 2222.250000, 8172.000000, 8182.000000, 8172.000000
2510, 199222672.000000, 2766.250000, 8171.000000, 8183.000000, 8174.000000
2511, 199222832.000000, 3174.250000, 8172.000000, 8183.000000, 8173.000000
2512, 199222992.000000, 3399.000000, 8173.000000, 8183.000000, 8174.000000
2513, 199223152.000000, 3454.250000, 8172.000000, 8184.000000, 8174.000000
2514, 199223312.000000, 3391.500000, 8180.000000, 8202.000000, 8205.000000
2515, 199223472.000000, 3256.000000, 8194.000000, 8218.000000, 8234.000000
2516, 199223632.000000, 3100.000000, 8196.000000, 8196.000000, 8198.000000
2517, 199223792.000000, 2939.250000, 8179.000000, 8180.000000, 8171.000000
2518, 199223952.000000, 2766.000000, 8173.000000, 8172.000000, 8157.000000
2519, 199224112.000000, 2587.500000, 8172.000000, 8172.000000, 8158.000000
2520, 199224272.000000, 2433.250000, 8177.000000, 8170.000000, 8155.000000
2521, 199224432.000000, 2344.250000, 8288.000000, 8215.000000, 8266.000000
2522, 199224592.000000, 2310.500000, 8313.000000, 7922.000000, 7976.000000
2523, 199224752.000000, 2314.000000, 8137.000000, 8090.000000, 8037.000000
2524, 199224912.000000, 2321.000000, 8189.000000, 8200.000000, 8197.000000
2525, 199225072.000000, 2312.000000, 8194.000000, 8209.000000, 8209.000000
2526, 199225232.000000, 2273.500000, 8198.000000, 8214.000000, 8215.000000
2527, 199225392.000000, 2203.500000, 8204.000000, 8215.000000, 8218.000000
2528, 199225552.000000, 2107.250000, 8211.000000, 8219.000000, 8225.000000
2529, 199225712.000000, 1998.000000, 8217.000000, 8224.000000, 8234.000000
2530, 199225872.000000, 1889.750000, 8228.000000, 8227.000000, 8242.000000
2531, 199226032.000000, 1794.000000, 8234.000000, 8231.000000, 8248.000000
2532, 199226192.000000, 1714.000000, 8246.000000, 8232.000000, 8253.000000
2533, 199226352.000000, 1650.750000, 8260.000000, 8227.000000, 8253.000000
2534, 199226512.000000, 1603.000000, 8269.000000, 8218.000000, 8248.000000
2535, 199226672.000000, 1568.750000, 8259.000000, 8204.000000, 8230.000000
2536, 199226832.000000, 1544.000000, 8216.000000, 8199.000000, 8212.000000
2537, 199226992.000000, 1525.750000, 8175.000000, 8197.000000, 8195.000000
2538, 199227152.000000, 1505.750000, 8155.000000, 8195.000000, 8182.000000
2539, 199227312.000000, 1483.250000, 8152.000000, 8193.000000, 8178.000000
2540, 199227472.000000, 1461.500000, 8154.000000, 8193.000000, 8179.000000
2541, 199227632.000000, 1438.250000, 8158.000000, 8193.000000, 8178.000000
2542, 199227792.000000, 1411.000000, 8164.000000, 8194.000000, 8183.000000
2543, 199227952.000000, 1378.500000, 8169.000000, 8194.000000, 8184.000000
2544, 199228112.000000, 1338.500000, 8171.000000, 8193.000000, 8184.000000
2545, 199228272.000000, 1289.250000, 8174.000000, 8191.000000, 8184.000000
2546, 199228432.000000, 1242.750000, 8173.000000, 8189.000000, 8178.000000
2547, 199228592.000000, 1251.250000, 8171.000000, 8186.000000, 8173.000000
2548, 199228752.000000, 1418.750000, 8169.000000, 8184.000000, 8170.000000
2549, 199228912.000000, 1784.250000, 8170.000000, 8184.000000, 8171.000000
2550, 199229072.000000, 2271.000000, 8172.000000, 8184.000000, 8172.000000
2551, 199229232.000000, 2718.500000, 8174.000000, 8183.000000, 8172.000000
2552, 199229392.000000, 3026.750000, 8174.000000, 8182.000000, 8171.000000
2553, 199229552.000000, 3163.750000, 8173.000000, 8183.000000, 8172.000000
2554, 199229712.000000, 3165.250000, 8184.000000, 8209.000000, 8215.000000
2555, 199229872.000000, 3069.250000, 8198.000000, 8223.000000, 8242.000000
2556, 199230032.000000, 2928.000000, 8192.000000, 8195.000000, 8196.000000
2557, 199230192.000000, 2773.000000, 8170.000000, 8174.000000, 8159.000000
2558, 199230352.000000, 2604.250000, 8166.000000, 8171.000000, 8153.000000
2559, 199230512.000000, 2427.500000, 8166.000000, 8171.000000, 8153.000000
2560, 199230672.000000, 2269.000000, 8173.000000, 8167.000000, 8142.000000
2561, 199230832.000000, 2168.250000, 8308.000000, 8137.000000, 8205.000000
2562, 199230992.000000, 2131.500000, 8175.000000, 7888.000000, 7866.000000
2563, 199231152.000000, 2138.250000, 8149.000000, 8146.000000, 8107.000000
2564, 199231312.000000, 2159.500000, 8176.000000, 8210.000000, 8201.000000
2565, 199231472.000000, 2168.000000, 8180.000000, 8218.000000, 8211.000000
2566, 199231632.000000, 2148.500000, 8186.000000, 8221.000000, 8216.000000
2567, 199231792.000000, 2096.000000, 8191.000000, 8224.000000, 8219.000000
2568, 199231952.000000, 2010.250000, 8198.000000, 8227.000000, 8226.000000
2569, 199232112.000000, 1908.500000, 8204.000000, 8231.000000, 8234.000000
2570, 199232272.000000, 1804.000000, 8211.000000, 8237.000000, 8243.000000
2571, 199232432.000000, 1709.000000, 8223.000000, 8240.000000, 8252.000000
2572, 199232592.000000, 1631.250000, 8235.000000, 8240.000000, 8258.000000
2573, 199232752.000000, 1571.250000, 8251.000000, 8237.000000, 8263.000000
2574, 199232912.000000, 1527.500000, 8256.000000, 8228.000000, 8256.000000
2575, 199233072.000000, 1495.000000, 8239.000000, 8213.000000, 8237.000000
2576, 199233232.000000, 1470.000000, 8198.000000, 8205.000000, 8214.000000
2577, 199233392.000000, 1450.750000, 8165.000000, 8198.000000, 8191.000000
2578, 199233552.000000, 1435.500000, 8149.000000, 8193.000000, 8176.000000
2579, 199233712.000000, 1418.000000, 8145.000000, 8191.000000, 8171.000000
2580, 199233872.000000, 1398.000000, 8146.000000, 8191.000000, 8170.000000
2581, 199234032.000000, 1375.500000, 8149.000000, 8192.000000, 8173.000000
2582, 199234192.000000, 1350.250000, 8152.000000, 8194.000000, 8175.000000
2583, 199234352.000000, 1322.750000, 8155.000000, 8193.000000, 8176.000000
2584, 199234512.000000, 1290.000000, 8157.000000, 8193.000000, 8177.000000
2585, 199234672.000000, 1248.250000, 8160.000000, 8192.000000, 8178.000000
2586, 199234832.000000, 1220.000000, 8161.000000, 8189.000000, 8176.000000
2587, 199234992.000000, 1292.000000, 8163.000000, 8186.000000, 8172.000000
2588, 199235152.000000, 1565.000000, 8162.000000, 8184.000000, 8167.000000
2589, 199235312.000000, 2031.750000, 8164.000000, 8184.000000, 8169.000000
2590, 199235472.000000, 2557.250000, 8164.000000, 8184.000000, 8169.000000
2591, 199235632.000000, 2988.750000, 8166.000000, 8183.000000, 8169.000000
2592, 199235792.000000, 3252.000000, 8164.000000, 8184.000000, 8169.000000
2593, 199235952.000000, 3344.000000, 8163.000000, 8184.000000, 8168.000000
2594, 199236112.000000, 3309.750000, 8172.000000, 8205.000000, 8205.000000
2595, 199236272.000000, 3197.750000, 8183.000000, 8224.000000, 8239.000000
2596, 199236432.000000, 3058.750000, 8188.000000, 8207.000000, 8211.000000
2597, 199236592.000000, 2914.500000, 8169.000000, 8184.000000, 8172.000000
2598, 199236752.000000, 2759.750000, 8156.000000, 8175.000000, 8154.000000
2599, 199236912.000000, 2595.500000, 8156.000000, 8173.000000, 8152.000000
2600, 199237072.000000, 2444.750000, 8159.000000, 8171.000000, 8150.000000
2601, 199237232.000000, 2348.000000, 8247.000000, 8198.000000, 8224.000000
2602, 199237392.000000, 2308.750000, 8350.000000, 7865.000000, 7933.000000
2603, 199237552.000000, 2303.750000, 8115.000000, 8079.000000, 8011.000000
2604, 199237712.000000, 2305.750000, 8179.000000, 8209.000000, 8202.000000
2605, 199237872.000000, 2298.500000, 8184.000000, 8219.000000, 8215.000000
2606, 199238032.000000, 2262.750000, 8190.000000, 8223.000000, 8219.000000
2607, 199238192.000000, 2197.000000, 8195.000000, 8226.000000, 8223.000000
2608, 199238352.000000, 2105.750000, 8203.000000, 8230.000000, 8232.000000
2609, 199238512.000000, 1999.000000, 8208.000000, 8234.000000, 8238.000000
2610, 199238672.000000, 1892.750000, 8220.000000, 8237.000000, 8247.000000
2611, 199238832.000000, 1794.250000, 8233.000000, 8240.000000, 8256.000000
2612, 199238992.000000, 1711.500000, 8247.000000, 8241.000000, 8261.000000
2613, 199239152.000000, 1643.250000, 8260.000000, 8238.000000, 8264.000000
2614, 199239312.000000, 1591.750000, 8269.000000, 8230.000000, 8262.000000
2615, 199239472.000000, 1557.000000, 8267.000000, 8217.000000, 8250.000000
2616, 199239632.000000, 1531.750000, 8229.000000, 8207.000000, 8225.000000
2617, 199239792.000000, 1511.750000, 8190.000000, 8200.000000, 8200.000000
2618, 199239952.000000, 1492.750000, 8169.000000, 8193.000000, 8183.000000
2619, 199240112.000000, 1471.000000, 8163.000000, 8190.000000, 8176.000000
2620, 199240272.000000, 1449.500000, 8162.000000, 8189.000000, 8176.000000
2621, 199240432.000000, 1423.750000, 8164.000000, 8190.000000, 8177.000000
2622, 199240592.000000, 1396.500000, 8164.000000, 8192.000000, 8179.000000
2623, 199240752.000000, 1366.500000, 8169.000000, 8192.000000, 8182.000000
2624, 199240912.000000, 1329.750000, 8171.000000, 8191.000000, 8182.000000
2625, 199241072.000000, 1284.000000, 8175.000000, 8190.000000, 8184.000000
2626, 199241232.000000, 1240.250000, 8175.000000, 8187.000000, 8181.000000
2627, 199241392.000000, 1261.500000, 8173.000000, 8185.000000, 8178.000000
2628, 199241552.000000, 1459.750000, 8174.000000, 8183.000000, 8176.000000
2629, 199241712.000000, 1870.500000, 8174.000000, 8182.000000, 8175.000000
2630, 199241872.000000, 2397.500000, 8173.000000, 8182.000000, 8175.000000
2631, 199242032.000000, 2870.750000, 8172.000000, 8181.000000, 8173.000000
2632, 199242192.000000, 3187.250000, 8173.000000, 8180.000000, 8173.000000
2633, 199242352.000000, 3327.500000, 8176.000000, 8180.000000, 8175.000000
2634, 199242512.000000, 3331.250000, 8176.000000, 8182.000000, 8177.000000
2635, 199242672.000000, 3240.250000, 8178.000000, 8183.000000, 8179.000000
2636, 199242832.000000, 3085.500000, 8178.000000, 8185.000000, 8181.000000
2637, 199242992.000000, 2922.750000, 8188.000000, 8205.000000, 8219.000000
2638, 199243152.000000, 2779.250000, 8204.000000, 8215.000000, 8236.000000
2639, 199243312.000000, 2613.000000, 8197.000000, 8192.000000, 8198.000000
2640, 199243472.000000, 2458.250000, 8175.000000, 8177.000000, 8169.000000
2641, 199243632.000000, 2352.500000, 8170.000000, 8175.000000, 8162.000000
2642, 199243792.000000, 2300.500000, 8169.000000, 8175.000000, 8161.000000
2643, 199243952.000000, 2282.250000, 8175.000000, 8173.000000, 8153.000000
2644, 199244112.000000, 2273.000000, 8327.000000, 8159.000000, 8236.000000
2645, 199244272.000000, 2256.500000, 8187.000000, 7911.000000, 7899.000000
2646, 199244432.000000, 2216.250000, 8151.000000, 8147.000000, 8109.000000
2647, 199244592.000000, 2144.500000, 8182.000000, 8213.000000, 8208.000000
2648, 199244752.000000, 2023.750000, 8186.000000, 8220.000000, 8219.000000
2649, 199244912.000000, 1892.500000, 8193.000000, 8223.000000, 8225.000000
2650, 199245072.000000, 1778.250000, 8199.000000, 8225.000000, 8231.000000
2651, 199245232.000000, 1690.000000, 8206.000000, 8228.000000, 8238.000000
2652, 199245392.000000, 1621.250000, 8212.000000, 8231.000000, 8243.000000
2653, 199245552.000000, 1569.500000, 8222.000000, 8235.000000, 8252.000000
2654, 199245712.000000, 1531.250000, 8234.000000, 8238.000000, 8261.000000
2655, 199245872.000000, 1497.000000, 8248.000000, 8236.000000, 8264.000000
2656, 199246032.000000, 1458.000000, 8264.000000, 8229.000000, 8262.000000
2657, 199246192.000000, 1416.000000, 8273.000000, 8220.000000, 8257.000000
2658, 199246352.000000, 1383.000000, 8258.000000, 8210.000000, 8243.000000
2659, 199246512.000000, 1353.000000, 8215.000000, 8206.000000, 8226.000000
2660, 199246672.000000, 1321.750000, 8177.000000, 8203.000000, 8208.000000
2661, 199246832.000000, 1289.250000, 8158.000000, 8198.000000, 8191.000000
2662, 199246992.000000, 1253.750000, 8155.000000, 8195.000000, 8184.000000
2663, 199247152.000000, 1222.000000, 8155.000000, 8197.000000, 8186.000000
2664, 199247312.000000, 1193.250000, 8157.000000, 8197.000000, 8189.000000
2665, 199247472.000000, 1163.250000, 8163.000000, 8200.000000, 8196.000000
2666, 199247632.000000, 1129.000000, 8166.000000, 8198.000000, 8194.000000
2667, 199247792.000000, 1087.250000, 8168.000000, 8197.000000, 8194.000000
2668, 199247952.000000, 1090.250000, 8168.000000, 8196.000000, 8193.000000
2669, 199248112.000000, 1230.750000, 8168.000000, 8194.000000, 8191.000000
2670, 199248272.000000, 1597.000000, 8170.000000, 8193.000000, 8190.000000
2671, 199248432.000000, 2104.000000, 8169.000000, 8190.000000, 8184.000000
2672, 199248592.000000, 2599.750000, 8170.000000, 8187.000000, 8180.000000
2673, 199248752.000000, 2951.000000, 8173.000000, 8186.000000, 8181.000000
2674, 199248912.000000, 3130.250000, 8173.000000, 8185.000000, 8180.000000
2675, 199249072.000000, 3150.500000, 8176.000000, 8184.000000, 8181.000000
2676, 199249232.000000, 3071.750000, 8175.000000, 8184.000000, 8180.000000
2677, 199249392.000000, 2950.750000, 8175.000000, 8185.000000, 8179.000000
2678, 199249552.000000, 2825.500000, 8175.000000, 8185.000000, 8181.000000
2679, 199249712.000000, 2696.500000, 8178.000000, 8187.000000, 8185.000000
2680, 199249872.000000, 2550.000000, 8184.000000, 8200.000000, 8208.000000
2681, 199250032.000000, 2390.500000, 8189.000000, 8212.000000, 8227.000000
2682, 199250192.000000, 2258.000000, 8198.000000, 8204.000000, 8213.000000
2683, 199250352.000000, 2181.250000, 8187.000000, 8188.000000, 8188.000000
2684, 199250512.000000, 2156.750000, 8174.000000, 8180.000000, 8173.000000
2685, 199250672.000000, 2159.250000, 8175.000000, 8179.000000, 8173.000000
2686, 199250832.000000, 2162.750000, 8173.000000, 8180.000000, 8171.000000
2687, 199250992.000000, 2147.000000, 8224.000000, 8224.000000, 8240.000000
2688, 199251152.000000, 2099.000000, 8382.000000, 7949.000000, 8051.000000
2689, 199251312.000000, 2018.000000, 8106.000000, 8022.000000, 7964.000000
2690, 199251472.000000, 1917.000000, 8184.000000, 8204.000000, 8202.000000
2691, 199251632.000000, 1806.000000, 8188.000000, 8221.000000, 8223.000000
2692, 199251792.000000, 1700.000000, 8192.000000, 8226.000000, 8229.000000
2693, 199251952.000000, 1605.000000, 8200.000000, 8227.000000, 8233.000000
2694, 199252112.000000, 1524.250000, 8207.000000, 8228.000000, 8237.000000
2695, 199252272.000000, 1460.000000, 8214.000000, 8232.000000, 8244.000000
2696, 199252432.000000, 1411.000000, 8219.000000, 8235.000000, 8248.000000
2697, 199252592.000000, 1377.750000, 8228.000000, 8238.000000, 8255.000000
2698, 199252752.000000, 1359.500000, 8241.000000, 8242.000000, 8264.000000
2699, 199252912.000000, 1345.250000, 8255.000000, 8241.000000, 8270.000000
2700, 199253072.000000, 1329.500000, 8264.000000, 8233.000000, 8266.000000
2701, 199253232.000000, 1314.500000, 8264.000000, 8220.000000, 8255.000000
2702, 199253392.000000, 1298.250000, 8236.000000, 8208.000000, 8232.000000
2703, 199253552.000000, 1281.000000, 8190.000000, 8203.000000, 8211.000000
2704, 199253712.000000, 1255.750000, 8162.000000, 8197.000000, 8192.000000
2705, 199253872.000000, 1219.750000, 8152.000000, 8193.000000, 8182.000000
2706, 199254032.000000, 1181.750000, 8149.000000, 8191.000000, 8176.000000
2707, 199254192.000000, 1150.750000, 8149.000000, 8192.000000, 8177.000000
2708, 199254352.000000, 1126.750000, 8153.000000, 8194.000000, 8183.000000
2709, 199254512.000000, 1100.750000, 8158.000000, 8197.000000, 8188.000000
2710, 199254672.000000, 1064.000000, 8162.000000, 8196.000000, 8191.000000
2711, 199254832.000000, 1033.250000, 8163.000000, 8194.000000, 8188.000000
2712, 199254992.000000, 1074.750000, 8164.000000, 8191.000000, 8184.000000
2713, 199255152.000000, 1311.000000, 8167.000000, 8191.000000, 8184.000000
2714, 199255312.000000, 1757.000000, 8167.000000, 8189.000000, 8182.000000
2715, 199255472.000000, 2310.500000, 8168.000000, 8187.000000, 8180.000000
2716, 199255632.000000, 2792.750000, 8168.000000, 8186.000000, 8177.000000
2717, 199255792.000000, 3111.750000, 8169.000000, 8186.000000, 8178.000000
2718, 199255952.000000, 3241.250000, 8171.000000, 8186.000000, 8179.000000
2719, 199256112.000000, 3227.750000, 8173.000000, 8186.000000, 8179.000000
2720, 199256272.000000, 3117.250000, 8176.000000, 8186.000000, 8181.000000
2721, 199256432.000000, 2973.500000, 8176.000000, 8185.000000, 8178.000000
2722, 199256592.000000, 2830.750000, 8176.000000, 8185.000000, 8178.000000
2723, 199256752.000000, 2684.750000, 8175.000000, 8186.000000, 8178.000000
2724, 199256912.000000, 2524.250000, 8178.000000, 8187.000000, 8181.000000
2725, 199257072.000000, 2362.250000, 8177.000000, 8187.000000, 8182.000000
2726, 199257232.000000, 2240.500000, 8178.000000, 8186.000000, 8180.000000
2727, 199257392.000000, 2181.500000, 8189.000000, 8206.000000, 8217.000000
2728, 199257552.000000, 2170.750000, 8194.000000, 8205.000000, 8213.000000
2729, 199257712.000000, 2179.250000, 8196.000000, 8189.000000, 8193.000000
2730, 199257872.000000, 2179.500000, 8180.000000, 8180.000000, 8177.000000
2731, 199258032.000000, 2154.500000, 8177.000000, 8177.000000, 8172.000000
2732, 199258192.000000, 2097.250000, 8177.000000, 8179.000000, 8174.000000
2733, 199258352.000000, 2008.000000, 8183.000000, 8176.000000, 8169.000000
2734, 199258512.000000, 1900.500000, 8303.000000, 8186.000000, 8251.000000
2735, 199258672.000000, 1785.500000, 8320.000000, 7884.000000, 7940.000000
2736, 199258832.000000, 1679.250000, 8151.000000, 8127.000000, 8087.000000
2737, 199258992.000000, 1589.250000, 8191.000000, 8218.000000, 8224.000000
2738, 199259152.000000, 1519.500000, 8192.000000, 8226.000000, 8231.000000
2739, 199259312.000000, 1471.250000, 8199.000000, 8228.000000, 8236.000000
2740, 199259472.000000, 1439.250000, 8204.000000, 8228.000000, 8237.000000
2741, 199259632.000000, 1417.750000, 8211.000000, 8228.000000, 8238.000000
2742, 199259792.000000, 1398.000000, 8221.000000, 8232.000000, 8246.000000
2743, 199259952.000000, 1378.000000, 8230.000000, 8235.000000, 8253.000000
2744, 199260112.000000, 1356.750000, 8241.000000, 8237.000000, 8259.000000
2745, 199260272.000000, 1332.500000, 8251.000000, 8238.000000, 8264.000000
2746, 199260432.000000, 1306.250000, 8262.000000, 8235.000000, 8265.000000
2747, 199260592.000000, 1277.000000, 8272.000000, 8229.000000, 8265.000000
2748, 199260752.000000, 1250.250000, 8265.000000, 8219.000000, 8253.000000
2749, 199260912.000000, 1224.250000, 8233.000000, 8207.000000, 8231.000000
2750, 199261072.000000, 1203.000000, 8190.000000, 8200.000000, 8204.000000
2751, 199261232.000000, 1183.000000, 8167.000000, 8194.000000, 8185.000000
2752, 199261392.000000, 1161.500000, 8156.000000, 8190.000000, 8175.000000
2753, 199261552.000000, 1139.000000, 8154.000000, 8190.000000, 8176.000000
2754, 199261712.000000, 1119.000000, 8155.000000, 8192.000000, 8179.000000
2755, 199261872.000000, 1098.250000, 8156.000000, 8193.000000, 8180.000000
2756, 199262032.000000, 1072.000000, 8158.000000, 8193.000000, 8180.000000
2757, 199262192.000000, 1039.500000, 8160.000000, 8192.000000, 8182.000000
2758, 199262352.000000, 1029.250000, 8162.000000, 8192.000000, 8183.000000
2759, 199262512.000000, 1141.500000, 8162.000000, 8189.000000, 8180.000000
2760, 199262672.000000, 1481.750000, 8163.000000, 8189.000000, 8179.000000
2761, 199262832.000000, 2022.000000, 8166.000000, 8187.000000, 8179.000000
2762, 199262992.000000, 2593.250000, 8168.000000, 8184.000000, 8177.000000
2763, 199263152.000000, 3031.500000, 8165.000000, 8183.000000, 8174.000000
2764, 199263312.000000, 3277.750000, 8166.000000, 8184.000000, 8176.000000
2765, 199263472.000000, 3345.250000, 8168.000000, 8182.000000, 8175.000000
2766, 199263632.000000, 3276.000000, 8165.000000, 8182.000000, 8173.000000
2767, 199263792.000000, 3136.500000, 8167.000000, 8182.000000, 8173.000000
2768, 199263952.000000, 2978.500000, 8165.000000, 8181.000000, 8172.000000
2769, 199264112.000000, 2826.750000, 8166.000000, 8181.000000, 8173.000000
2770, 199264272.000000, 2677.000000, 8166.000000, 8179.000000, 8169.000000
2771, 199264432.000000, 2510.250000, 8166.000000, 8178.000000, 8166.000000
2772, 199264592.000000, 2349.000000, 8170.000000, 8179.000000, 8168.000000
2773, 199264752.000000, 2228.750000, 8176.000000, 8192.000000, 8192.000000
2774, 199264912.000000, 2167.500000, 8182.000000, 8196.000000, 8196.000000
2775, 199265072.000000, 2145.250000, 8188.000000, 8187.000000, 8182.000000
2776, 199265232.000000, 2136.000000, 8178.000000, 8180.000000, 8170.000000
2777, 199265392.000000, 2116.750000, 8167.000000, 8174.000000, 8159.000000
2778, 199265552.000000, 2074.000000, 8169.000000, 8176.000000, 8162.000000
2779, 199265712.000000, 2004.000000, 8170.000000, 8177.000000, 8164.000000
2780, 199265872.000000, 1908.000000, 8239.000000, 8221.000000, 8243.000000
2781, 199266032.000000, 1794.750000, 8400.000000, 7936.000000, 8036.000000
2782, 199266192.000000, 1676.250000, 8110.000000, 8053.000000, 7990.000000
2783, 199266352.000000, 1566.250000, 8182.000000, 8205.000000, 8200.000000
2784, 199266512.000000, 1472.750000, 8184.000000, 8219.000000, 8217.000000
2785, 199266672.000000, 1396.750000, 8189.000000, 8223.000000, 8222.000000
2786, 199266832.000000, 1338.250000, 8194.000000, 8224.000000, 8224.000000
2787, 199266992.000000, 1295.750000, 8200.000000, 8226.000000, 8228.000000
2788, 199267152.000000, 1262.250000, 8209.000000, 8229.000000, 8237.000000
2789, 199267312.000000, 1237.000000, 8217.000000, 8232.000000, 8244.000000
2790, 199267472.000000, 1219.750000, 8227.000000, 8233.000000, 8249.000000
2791, 199267632.000000, 1206.250000, 8242.000000, 8234.000000, 8256.000000
2792, 199267792.000000, 1194.500000, 8258.000000, 8231.000000, 8258.000000
2793, 199267952.000000, 1175.250000, 8272.000000, 8224.000000, 8258.000000
2794, 199268112.000000, 1153.250000, 8271.000000, 8213.000000, 8247.000000
2795, 199268272.000000, 1125.750000, 8245.000000, 8202.000000, 8228.000000
2796, 199268432.000000, 1099.000000, 8201.000000, 8196.000000, 8205.000000
2797, 199268592.000000, 1069.000000, 8174.000000, 8191.000000, 8188.000000
2798, 199268752.000000, 1043.750000, 8165.000000, 8187.000000, 8180.000000
2799, 199268912.000000, 1023.000000, 8165.000000, 8187.000000, 8180.000000
2800, 199269072.000000, 1005.250000, 8169.000000, 8186.000000, 8180.000000
2801, 199269232.000000, 986.000000, 8173.000000, 8185.000000, 8180.000000
2802, 199269392.000000, 962.250000, 8183.000000, 8186.000000, 8185.000000
2803, 199269552.000000, 931.500000, 8186.000000, 8185.000000, 8184.000000
2804, 199269712.000000, 896.750000, 8188.000000, 8186.000000, 8186.000000
2805, 199269872.000000, 903.250000, 8188.000000, 8183.000000, 8180.000000
2806, 199270032.000000, 1076.000000, 8188.000000, 8182.000000, 8179.000000
2807, 199270192.000000, 1477.250000, 8185.000000, 8181.000000, 8176.000000
2808, 199270352.000000, 2045.750000, 8185.000000, 8181.000000, 8176.000000
2809, 199270512.000000, 2588.500000, 8184.000000, 8180.000000, 8174.000000
2810, 199270672.000000, 2979.250000, 8184.000000, 8179.000000, 8171.000000
2811, 199270832.000000, 3168.750000, 8182.000000, 8179.000000, 8170.000000
2812, 199270992.000000, 3188.500000, 8184.000000, 8181.000000, 8173.000000
2813, 199271152.000000, 3092.750000, 8184.000000, 8179.000000, 8171.000000
2814, 199271312.000000, 2935.000000, 8185.000000, 8180.000000, 8171.000000
2815, 199271472.000000, 2765.750000, 8189.000000, 8179.000000, 8174.000000
2816, 199271632.000000, 2601.500000, 8196.000000, 8194.000000, 8198.000000
2817, 199271792.000000, 2432.250000, 8203.000000, 8198.000000, 8206.000000
2818, 199271952.000000, 2261.250000, 8212.000000, 8188.000000, 8192.000000
2819, 199272112.000000, 2117.750000, 8200.000000, 8178.000000, 8175.000000
2820, 199272272.000000, 2032.500000, 8190.000000, 8171.000000, 8161.000000
2821, 199272432.000000, 2006.750000, 8190.000000, 8171.000000, 8161.000000
2822, 199272592.000000, 2012.000000, 8192.000000, 8172.000000, 8163.000000
2823, 199272752.000000, 2020.500000, 8259.000000, 8217.000000, 8243.000000
2824, 199272912.000000, 2014.000000, 8403.000000, 7917.000000, 8017.000000
2825, 199273072.000000, 1978.000000, 8126.000000, 8043.000000, 7982.000000
2826, 199273232.000000, 1910.000000, 8202.000000, 8203.000000, 8203.000000
2827, 199273392.000000, 1812.500000, 8203.000000, 8218.000000, 8220.000000
2828, 199273552.000000, 1699.500000, 8211.000000, 8222.000000, 8228.000000
2829, 199273712.000000, 1585.250000, 8218.000000, 8223.000000, 8231.000000
2830, 199273872.000000, 1480.250000, 8224.000000, 8225.000000, 8235.000000
2831, 199274032.000000, 1393.750000, 8233.000000, 8228.000000, 8242.000000
2832, 199274192.000000, 1326.500000, 8242.000000, 8231.000000, 8251.000000
2833, 199274352.000000, 1279.000000, 8251.000000, 8236.000000, 8260.000000
2834, 199274512.000000, 1248.750000, 8262.000000, 8240.000000, 8270.000000
2835, 199274672.000000, 1227.750000, 8271.000000, 8239.000000, 8271.000000
2836, 199274832.000000, 1211.750000, 8280.000000, 8233.000000, 8267.000000
2837, 199274992.000000, 1197.500000, 8281.000000, 8221.000000, 8259.000000
2838, 199275152.000000, 1184.250000, 8251.000000, 8208.000000, 8236.000000
2839, 199275312.000000, 1165.250000, 8204.000000, 8204.000000, 8213.000000
2840, 199275472.000000, 1142.750000, 8174.000000, 8196.000000, 8189.000000
2841, 199275632.000000, 1117.500000, 8164.000000, 8191.000000, 8178.000000
2842, 199275792.000000, 1093.500000, 8159.000000, 8191.000000, 8176.000000
2843, 199275952.000000, 1071.000000, 8160.000000, 8192.000000, 8178.000000
2844, 199276112.000000, 1047.500000, 8164.000000, 8192.000000, 8181.000000
2845, 199276272.000000, 1023.250000, 8166.000000, 8192.000000, 8182.000000
2846, 199276432.000000, 994.250000, 8169.000000, 8191.000000, 8181.000000
2847, 199276592.000000, 957.500000, 8170.000000, 8189.000000, 8178.000000
2848, 199276752.000000, 943.750000, 8173.000000, 8188.000000, 8179.000000
2849, 199276912.000000, 1061.500000, 8173.000000, 8185.000000, 8176.000000
2850, 199277072.000000, 1390.000000, 8171.000000, 8181.000000, 8170.000000
2851, 199277232.000000, 1907.750000, 8172.000000, 8181.000000, 8169.000000
2852, 199277392.000000, 2437.500000, 8172.000000, 8180.000000, 8168.000000
2853, 199277552.000000, 2838.250000, 8173.000000, 8180.000000, 8169.000000
2854, 199277712.000000, 3047.000000, 8173.000000, 8181.000000, 8170.000000
2855, 199277872.000000, 3093.500000, 8174.000000, 8180.000000, 8171.000000
2856, 199278032.000000, 3020.000000, 8176.000000, 8181.000000, 8172.000000
2857, 199278192.000000, 2878.750000, 8174.000000, 8181.000000, 8172.000000
2858, 199278352.000000, 2717.750000, 8176.000000, 8182.000000, 8175.000000
2859, 199278512.000000, 2558.750000, 8184.000000, 8205.000000, 8213.000000
2860, 199278672.000000, 2397.000000, 8195.000000, 8208.000000, 8219.000000
2861, 199278832.000000, 2227.750000, 8192.000000, 8189.000000, 8190.000000
2862, 199278992.000000, 2081.000000, 8173.000000, 8179.000000, 8170.000000
2863, 199279152.000000, 1986.750000, 8167.000000, 8176.000000, 8163.000000
2864, 199279312.000000, 1951.250000, 8168.000000, 8176.000000, 8165.000000
2865, 199279472.000000, 1954.750000, 8174.000000, 8173.000000, 8158.000000
2866, 199279632.000000, 1966.250000, 8283.000000, 8177.000000, 8231.000000
2867, 199279792.000000, 1963.750000, 8285.000000, 7871.000000, 7908.000000
2868, 199279952.000000, 1937.250000, 8143.000000, 8132.000000, 8087.000000
2869, 199280112.000000, 1878.250000, 8182.000000, 8216.000000, 8213.000000
2870, 199280272.000000, 1791.250000, 8186.000000, 8223.000000, 8222.000000
2871, 199280432.000000, 1687.000000, 8191.000000, 8227.000000, 8227.000000
2872, 199280592.000000, 1578.500000, 8196.000000, 8229.000000, 8231.000000
2873, 199280752.000000, 1476.000000, 8201.000000, 8233.000000, 8238.000000
2874, 199280912.000000, 1388.500000, 8210.000000, 8236.000000, 8245.000000
2875, 199281072.000000, 1322.750000, 8216.000000, 8238.000000, 8249.000000
2876, 199281232.000000, 1275.000000, 8226.000000, 8242.000000, 8258.000000
2877, 199281392.000000, 1241.750000, 8240.000000, 8246.000000, 8269.000000
2878, 199281552.000000, 1218.250000, 8254.000000, 8244.000000, 8274.000000
2879, 199281712.000000, 1202.500000, 8261.000000, 8238.000000, 8273.000000
2880, 199281872.000000, 1188.500000, 8255.000000, 8225.000000, 8258.000000
2881, 199282032.000000, 1176.000000, 8220.000000, 8213.000000, 8231.000000
2882, 199282192.000000, 1161.250000, 8180.000000, 8208.000000, 8211.000000
2883, 199282352.000000, 1142.000000, 8158.000000, 8201.000000, 8192.000000
2884, 199282512.000000, 1120.750000, 8151.000000, 8198.000000, 8184.000000
2885, 199282672.000000, 1095.750000, 8149.000000, 8196.000000, 8181.000000
2886, 199282832.000000, 1068.750000, 8151.000000, 8196.000000, 8182.000000
2887, 199282992.000000, 1043.750000, 8154.000000, 8197.000000, 8185.000000
2888, 199283152.000000, 1015.000000, 8157.000000, 8196.000000, 8186.000000
2889, 199283312.000000, 982.500000, 8160.000000, 8194.000000, 8184.000000
2890, 199283472.000000, 947.000000, 8161.000000, 8194.000000, 8183.000000
2891, 199283632.000000, 955.500000, 8164.000000, 8192.000000, 8183.000000
2892, 199283792.000000, 1128.250000, 8165.000000, 8189.000000, 8180.000000
2893, 199283952.000000, 1514.500000, 8165.000000, 8189.000000, 8180.000000
2894, 199284112.000000, 2028.750000, 8165.000000, 8187.000000, 8178.000000
2895, 199284272.000000, 2496.250000, 8164.000000, 8186.000000, 8175.000000
2896, 199284432.000000, 2808.500000, 8162.000000, 8185.000000, 8174.000000
2897, 199284592.000000, 2943.750000, 8164.000000, 8186.000000, 8175.000000
2898, 199284752.000000, 2943.000000, 8166.000000, 8187.000000, 8177.000000
2899, 199284912.000000, 2846.000000, 8166.000000, 8185.000000, 8175.000000
2900, 199285072.000000, 2706.250000, 8166.000000, 8185.000000, 8175.000000
2901, 199285232.000000, 2560.250000, 8168.000000, 8185.000000, 8176.000000
2902, 199285392.000000, 2419.000000, 8171.000000, 8185.000000, 8176.000000
2903, 199285552.000000, 2275.000000, 8182.000000, 8208.000000, 8216.000000
2904, 199285712.000000, 2124.250000, 8190.000000, 8206.000000, 8214.000000
2905, 199285872.000000, 2004.250000, 8188.000000, 8187.000000, 8184.000000
2906, 199286032.000000, 1932.500000, 8170.000000, 8178.000000, 8167.000000
2907, 199286192.000000, 1912.750000, 8167.000000, 8176.000000, 8163.000000
2908, 199286352.000000, 1913.750000, 8169.000000, 8177.000000, 8165.000000
2909, 199286512.000000, 1918.000000, 8177.000000, 8172.000000, 8157.000000
2910, 199286672.000000, 1907.500000, 8307.000000, 8168.000000, 8236.000000
2911, 199286832.000000, 1871.750000, 8241.000000, 7889.000000, 7903.000000
2912, 199286992.000000, 1809.250000, 8148.000000, 8149.000000, 8111.000000
2913, 199287152.000000, 1724.000000, 8178.000000, 8219.000000, 8217.000000
2914, 199287312.000000, 1627.000000, 8183.000000, 8225.000000, 8226.000000
2915, 199287472.000000, 1527.000000, 8186.000000, 8227.000000, 8226.000000
2916, 199287632.000000, 1435.750000, 8190.000000, 8228.000000, 8228.000000
2917, 199287792.000000, 1361.750000, 8198.000000, 8230.000000, 8235.000000
2918, 199287952.000000, 1305.250000, 8209.000000, 8232.000000, 8242.000000
2919, 199288112.000000, 1266.250000, 8213.000000, 8237.000000, 8248.000000
2920, 199288272.000000, 1243.250000, 8223.000000, 8237.000000, 8251.000000
2921, 199288432.000000, 1227.250000, 8237.000000, 8238.000000, 8257.000000
2922, 199288592.000000, 1217.000000, 8251.000000, 8234.000000, 8260.000000
2923, 199288752.000000, 1207.000000, 8257.000000, 8228.000000, 8258.000000
2924, 199288912.000000, 1195.500000, 8250.000000, 8216.000000, 8244.000000
2925, 199289072.000000, 1180.500000, 8213.000000, 8207.000000, 8220.000000
2926, 199289232.000000, 1162.000000, 8175.000000, 8202.000000, 8198.000000
2927, 199289392.000000, 1140.250000, 8155.000000, 8197.000000, 8184.000000
2928, 199289552.000000, 1115.500000, 8149.000000, 8193.000000, 8176.000000
2929, 199289712.000000, 1091.250000, 8149.000000, 8193.000000, 8176.000000
2930, 199289872.000000, 1068.000000, 8153.000000, 8193.000000, 8178.000000
2931, 199290032.000000, 1049.750000, 8155.000000, 8194.000000, 8179.000000
2932, 199290192.000000, 1029.000000, 8159.000000, 8196.000000, 8185.000000
2933, 199290352.000000, 1007.500000, 8164.000000, 8193.000000, 8184.000000
2934, 199290512.000000, 979.750000, 8166.000000, 8191.000000, 8183.000000
2935, 199290672.000000, 990.500000, 8165.000000, 8189.000000, 8180.000000
2936, 199290832.000000, 1142.500000, 8164.000000, 8187.000000, 8176.000000
2937, 199290992.000000, 1502.500000, 8163.000000, 8187.000000, 8175.000000
2938, 199291152.000000, 1981.750000, 8163.000000, 8185.000000, 8175.000000
2939, 199291312.000000, 2423.000000, 8159.000000, 8183.000000, 8170.000000
2940, 199291472.000000, 2720.750000, 8158.000000, 8184.000000, 8169.000000
2941, 199291632.000000, 2859.250000, 8160.000000, 8184.000000, 8172.000000
2942, 199291792.000000, 2863.000000, 8161.000000, 8185.000000, 8172.000000
2943, 199291952.000000, 2784.500000, 8162.000000, 8184.000000, 8173.000000
2944, 199292112.000000, 2662.000000, 8167.000000, 8189.000000, 8182.000000
2945, 199292272.000000, 2532.750000, 8174.000000, 8206.000000, 8211.000000
2946, 199292432.000000, 2406.250000, 8184.000000, 8202.000000, 8204.000000
2947, 199292592.000000, 2276.000000, 8177.000000, 8186.000000, 8183.000000
2948, 199292752.000000, 2144.750000, 8160.000000, 8177.000000, 8165.000000
2949, 199292912.000000, 2040.250000, 8159.000000, 8174.000000, 8163.000000
2950, 199293072.000000, 1989.750000, 8159.000000, 8176.000000, 8165.000000
2951, 199293232.000000, 1982.500000, 8191.000000, 8200.000000, 8202.000000
2952, 199293392.000000, 1995.500000, 8370.000000, 8062.000000, 8166.000000
2953, 199293552.000000, 2005.500000, 8089.000000, 7986.000000, 7939.000000
2954, 199293712.000000, 1997.250000, 8163.000000, 8176.000000, 8160.000000
2955, 199293872.000000, 1959.750000, 8177.000000, 8209.000000, 8208.000000
2956, 199294032.000000, 1895.250000, 8184.000000, 8216.000000, 8216.000000
2957, 199294192.000000, 1813.500000, 8188.000000, 8218.000000, 8220.000000
2958, 199294352.000000, 1721.500000, 8199.000000, 8220.000000, 8226.000000
2959, 199294512.000000, 1631.500000, 8205.000000, 8223.000000, 8229.000000
2960, 199294672.000000, 1550.750000, 8212.000000, 8226.000000, 8234.000000
2961, 199294832.000000, 1485.750000, 8225.000000, 8228.000000, 8241.000000
2962, 199294992.000000, 1435.750000, 8234.000000, 8229.000000, 8244.000000
2963, 199295152.000000, 1400.000000, 8247.000000, 8228.000000, 8248.000000
2964, 199295312.000000, 1374.000000, 8259.000000, 8220.000000, 8242.000000
2965, 199295472.000000, 1356.500000, 8266.000000, 8208.000000, 8234.000000
2966, 199295632.000000, 1345.000000, 8244.000000, 8199.000000, 8217.000000
2967, 199295792.000000, 1335.000000, 8198.000000, 8199.000000, 8204.000000
2968, 199295952.000000, 1325.000000, 8163.000000, 8196.000000, 8186.000000
2969, 199296112.000000, 1313.250000, 8148.000000, 8191.000000, 8173.000000
2970, 199296272.000000, 1301.500000, 8145.000000, 8191.000000, 8171.000000
2971, 199296432.000000, 1284.750000, 8146.000000, 8193.000000, 8174.000000
2972, 199296592.000000, 1264.750000, 8147.000000, 8195.000000, 8178.000000
2973, 199296752.000000, 1239.000000, 8153.000000, 8197.000000, 8184.000000
2974, 199296912.000000, 1207.750000, 8155.000000, 8196.000000, 8181.000000
2975, 199297072.000000, 1171.000000, 8158.000000, 8194.000000, 8179.000000
2976, 199297232.000000, 1131.000000, 8158.000000, 8193.000000, 8178.000000
2977, 199297392.000000, 1126.750000, 8157.000000, 8190.000000, 8176.000000
2978, 199297552.000000, 1229.500000, 8156.000000, 8189.000000, 8174.000000
2979, 199297712.000000, 1510.000000, 8154.000000, 8186.000000, 8170.000000
2980, 199297872.000000, 1909.750000, 8153.000000, 8185.000000, 8168.000000
2981, 199298032.000000, 2303.000000, 8154.000000, 8185.000000, 8167.000000
2982, 199298192.000000, 2576.500000, 8153.000000, 8184.000000, 8167.000000
2983, 199298352.000000, 2711.500000, 8155.000000, 8183.000000, 8166.000000
2984, 199298512.000000, 2723.000000, 8157.000000, 8183.000000, 8167.000000
2985, 199298672.000000, 2646.000000, 8163.000000, 8193.000000, 8183.000000
2986, 199298832.000000, 2529.000000, 8174.000000, 8212.000000, 8217.000000
2987, 199298992.000000, 2401.500000, 8186.000000, 8206.000000, 8209.000000
2988, 199299152.000000, 2271.500000, 8175.000000, 8186.000000, 8178.000000
2989, 199299312.000000, 2134.000000, 8154.000000, 8176.000000, 8156.000000
2990, 199299472.000000, 2003.750000, 8154.000000, 8176.000000, 8156.000000
2991, 199299632.000000, 1913.500000, 8154.000000, 8176.000000, 8156.000000
2992, 199299792.000000, 1881.250000, 8188.000000, 8210.000000, 8203.000000
2993, 199299952.000000, 1889.000000, 8354.000000, 7979.000000, 8070.000000
2994, 199300112.000000, 1916.500000, 8075.000000, 7987.000000, 7916.000000
2995, 199300272.000000, 1939.750000, 8163.000000, 8195.000000, 8177.000000
2996, 199300432.000000, 1942.500000, 8170.000000, 8218.000000, 8207.000000
2997, 199300592.000000, 1918.500000, 8177.000000, 8223.000000, 8216.000000
2998, 199300752.000000, 1860.750000, 8180.000000, 8224.000000, 8219.000000
2999, 199300912.000000, 1781.500000, 8188.000000, 8227.000000, 8224.000000
3000, 199301072.000000, 1693.250000, 8197.000000, 8230.000000, 8230.000000
3001, 199301232.000000, 1610.000000, 8204.000000, 8234.000000, 8237.000000
3002, 199301392.000000, 1537.750000, 8215.000000, 8238.000000, 8246.000000
3003, 199301552.000000, 1482.000000, 8225.000000, 8240.000000, 8253.000000
3004, 199301712.000000, 1439.750000, 8240.000000, 8239.000000, 8258.000000
3005, 199301872.000000, 1409.750000, 8249.000000, 8233.000000, 8254.000000
3006, 199302032.000000, 1388.500000, 8255.000000, 8223.000000, 8248.000000
3007, 199302192.000000, 1376.000000, 8232.000000, 8211.000000, 8229.000000
3008, 199302352.000000, 1366.000000, 8187.000000, 8205.000000, 8207.000000
3009, 199302512.000000, 1356.000000, 8156.000000, 8198.000000, 8185.000000
3010, 199302672.000000, 1346.000000, 8146.000000, 8195.000000, 8176.000000
3011, 199302832.000000, 1333.500000, 8142.000000, 8194.000000, 8172.000000
3012, 199302992.000000, 1318.500000, 8144.000000, 8194.000000, 8173.000000
3013, 199303152.000000, 1301.750000, 8150.000000, 8196.000000, 8179.000000
3014, 199303312.000000, 1282.000000, 8155.000000, 8196.000000, 8179.000000
3015, 199303472.000000, 1259.500000, 8159.000000, 8195.000000, 8180.000000
3016, 199303632.000000, 1229.500000, 8164.000000, 8194.000000, 8181.000000
3017, 199303792.000000, 1197.750000, 8166.000000, 8193.000000, 8181.000000
3018, 199303952.000000, 1213.750000, 8164.000000, 8190.000000, 8177.000000
3019, 199304112.000000, 1378.750000, 8164.000000, 8187.000000, 8172.000000
3020, 199304272.000000, 1728.000000, 8164.000000, 8186.000000, 8171.000000
3021, 199304432.000000, 2181.250000, 8166.000000, 8187.000000, 8173.000000
3022, 199304592.000000, 2584.750000, 8165.000000, 8186.000000, 8173.000000
3023, 199304752.000000, 2856.500000, 8166.000000, 8185.000000, 8173.000000
3024, 199304912.000000, 2981.000000, 8170.000000, 8184.000000, 8173.000000
3025, 199305072.000000, 2984.000000, 8171.000000, 8184.000000, 8173.000000
3026, 199305232.000000, 2906.250000, 8172.000000, 8185.000000, 8175.000000
3027, 199305392.000000, 2789.250000, 8172.000000, 8186.000000, 8176.000000
3028, 199305552.000000, 2669.250000, 8179.000000, 8203.000000, 8207.000000
3029, 199305712.000000, 2551.000000, 8188.000000, 8213.000000, 8225.000000
3030, 199305872.000000, 2421.750000, 8191.000000, 8198.000000, 8198.000000
3031, 199306032.000000, 2293.750000, 8178.000000, 8185.000000, 8177.000000
3032, 199306192.000000, 2197.250000, 8168.000000, 8177.000000, 8164.000000
3033, 199306352.000000, 2152.500000, 8169.000000, 8176.000000, 8164.000000
3034, 199306512.000000, 2146.750000, 8171.000000, 8176.000000, 8163.000000
3035, 199306672.000000, 2156.250000, 8259.000000, 8211.000000, 8245.000000
3036, 199306832.000000, 2158.500000, 8372.000000, 7896.000000, 7981.000000
3037, 199306992.000000, 2142.750000, 8121.000000, 8078.000000, 8022.000000
3038, 199307152.000000, 2098.250000, 8182.000000, 8208.000000, 8208.000000
3039, 199307312.000000, 2030.000000, 8182.000000, 8219.000000, 8219.000000
3040, 199307472.000000, 1942.500000, 8190.000000, 8223.000000, 8225.000000
3041, 199307632.000000, 1846.500000, 8195.000000, 8225.000000, 8230.000000
3042, 199307792.000000, 1755.750000, 8205.000000, 8228.000000, 8236.000000
3043, 199307952.000000, 1677.500000, 8211.000000, 8232.000000, 8242.000000
3044, 199308112.000000, 1612.000000, 8218.000000, 8234.000000, 8248.000000
3045, 199308272.000000, 1559.500000, 8227.000000, 8236.000000, 8254.000000
3046, 199308432.000000, 1518.500000, 8240.000000, 8238.000000, 8261.000000
3047, 199308592.000000, 1488.500000, 8254.000000, 8235.000000, 8265.000000
3048, 199308752.000000, 1467.250000, 8265.000000, 8228.000000, 8262.000000
3049, 199308912.000000, 1451.500000, 8262.000000, 8218.000000, 8250.000000
3050, 199309072.000000, 1437.750000, 8231.000000, 8208.000000, 8229.000000
3051, 199309232.000000, 1422.750000, 8186.000000, 8205.000000, 8210.000000
3052, 199309392.000000, 1401.500000, 8160.000000, 8198.000000, 8190.000000
3053, 199309552.000000, 1376.500000, 8154.000000, 8192.000000, 8180.000000
3054, 199309712.000000, 1351.500000, 8153.000000, 8192.000000, 8179.000000
3055, 199309872.000000, 1327.250000, 8156.000000, 8192.000000, 8181.000000
3056, 199310032.000000, 1305.250000, 8161.000000, 8194.000000, 8185.000000
3057, 199310192.000000, 1277.000000, 8166.000000, 8195.000000, 8189.000000
3058, 199310352.000000, 1244.000000, 8170.000000, 8192.000000, 8187.000000
3059, 199310512.000000, 1203.250000, 8171.000000, 8191.000000, 8186.000000
3060, 199310672.000000, 1173.750000, 8173.000000, 8189.000000, 8184.000000
3061, 199310832.000000, 1220.250000, 8174.000000, 8189.000000, 8184.000000
3062, 199310992.000000, 1462.250000, 8176.000000, 8186.000000, 8183.000000
3063, 199311152.000000, 1879.750000, 8175.000000, 8184.000000, 8180.000000
3064, 199311312.000000, 2362.250000, 8177.000000, 8183.000000, 8178.000000
3065, 199311472.000000, 2756.250000, 8177.000000, 8182.000000, 8177.000000
3066, 199311632.000000, 3000.000000, 8177.000000, 8182.000000, 8177.000000
3067, 199311792.000000, 3088.000000, 8178.000000, 8182.000000, 8178.000000
3068, 199311952.000000, 3060.750000, 8175.000000, 8181.000000, 8175.000000
3069, 199312112.000000, 2961.500000, 8175.000000, 8181.000000, 8175.000000
3070, 199312272.000000, 2836.500000, 8184.000000, 8203.000000, 8211.000000
3071, 199312432.000000, 2715.000000, 8194.000000, 8208.000000, 8222.000000
3072, 199312592.000000, 2591.000000, 8195.000000, 8191.000000, 8196.000000
3073, 199312752.000000, 2456.000000, 8178.000000, 8180.000000, 8176.000000
3074, 199312912.000000, 2322.750000, 8174.000000, 8174.000000, 8165.000000
3075, 199313072.000000, 2228.500000, 8172.000000, 8176.000000, 8166.000000
3076, 199313232.000000, 2187.500000, 8179.000000, 8176.000000, 8165.000000
3077, 199313392.000000, 2183.500000, 8283.000000, 8203.000000, 8253.000000
3078, 199313552.000000, 2190.250000, 8331.000000, 7888.000000, 7950.000000
3079, 199313712.000000, 2188.000000, 8139.000000, 8100.000000, 8050.000000
3080, 199313872.000000, 2164.000000, 8191.000000, 8210.000000, 8210.000000
3081, 199314032.000000, 2109.750000, 8191.000000, 8220.000000, 8222.000000
3082, 199314192.000000, 2031.750000, 8198.000000, 8223.000000, 8228.000000
3083, 199314352.000000, 1934.000000, 8200.000000, 8225.000000, 8229.000000
3084, 199314512.000000, 1832.000000, 8207.000000, 8228.000000, 8235.000000
3085, 199314672.000000, 1737.000000, 8212.000000, 8233.000000, 8243.000000
3086, 199314832.000000, 1654.750000, 8221.000000, 8236.000000, 8250.000000
3087, 199314992.000000, 1589.750000, 8233.000000, 8238.000000, 8258.000000
3088, 199315152.000000, 1540.000000, 8245.000000, 8239.000000, 8263.000000
3089, 199315312.000000, 1506.000000, 8260.000000, 8234.000000, 8264.000000
3090, 199315472.000000, 1479.750000, 8270.000000, 8227.000000, 8260.000000
3091, 199315632.000000, 1459.750000, 8264.000000, 8214.000000, 8247.000000
3092, 199315792.000000, 1444.500000, 8225.000000, 8206.000000, 8225.000000
3093, 199315952.000000, 1428.750000, 8182.000000, 8200.000000, 8202.000000
3094, 199316112.000000, 1410.000000, 8160.000000, 8194.000000, 8186.000000
3095, 199316272.000000, 1389.250000, 8154.000000, 8192.000000, 8180.000000
3096, 199316432.000000, 1366.500000, 8154.000000, 8192.000000, 8180.000000
3097, 199316592.000000, 1339.750000, 8154.000000, 8192.000000, 8180.000000
3098, 199316752.000000, 1314.250000, 8158.000000, 8192.000000, 8181.000000
3099, 199316912.000000, 1285.000000, 8162.000000, 8193.000000, 8184.000000
3100, 199317072.000000, 1251.500000, 8164.000000, 8194.000000, 8185.000000
3101, 199317232.000000, 1213.250000, 8167.000000, 8194.000000, 8187.000000
3102, 199317392.000000, 1180.000000, 8168.000000, 8191.000000, 8186.000000
3103, 199317552.000000, 1220.750000, 8169.000000, 8189.000000, 8183.000000
3104, 199317712.000000, 1428.750000, 8169.000000, 8186.000000, 8180.000000
3105, 199317872.000000, 1827.250000, 8168.000000, 8186.000000, 8179.000000
3106, 199318032.000000, 2298.750000, 8171.000000, 8185.000000, 8180.000000
3107, 199318192.000000, 2702.500000, 8172.000000, 8184.000000, 8178.000000
3108, 199318352.000000, 2956.750000, 8172.000000, 8184.000000, 8176.000000
3109, 199318512.000000, 3059.250000, 8173.000000, 8184.000000, 8177.000000
3110, 199318672.000000, 3036.750000, 8172.000000, 8185.000000, 8177.000000
3111, 199318832.000000, 2942.500000, 8172.000000, 8186.000000, 8178.000000
3112, 199318992.000000, 2817.250000, 8174.000000, 8186.000000, 8181.000000
3113, 199319152.000000, 2694.000000, 8183.000000, 8203.000000, 8210.000000
3114, 199319312.000000, 2574.000000, 8188.000000, 8205.000000, 8213.000000
3115, 199319472.000000, 2439.750000, 8193.000000, 8192.000000, 8192.000000
3116, 199319632.000000, 2302.750000, 8181.000000, 8183.000000, 8179.000000
3117, 199319792.000000, 2195.000000, 8172.000000, 8177.000000, 8167.000000
3118, 199319952.000000, 2140.750000, 8172.000000, 8175.000000, 8165.000000
3119, 199320112.000000, 2121.000000, 8172.000000, 8175.000000, 8163.000000
3120, 199320272.000000, 2115.250000, 8247.000000, 8201.000000, 8227.000000
3121, 199320432.000000, 2102.000000, 8379.000000, 7874.000000, 7964.000000
3122, 199320592.000000, 2071.250000, 8111.000000, 8065.000000, 8000.000000
3123, 199320752.000000, 2015.500000, 8182.000000, 8211.000000, 8208.000000
3124, 199320912.000000, 1933.750000, 8184.000000, 8223.000000, 8221.000000
3125, 199321072.000000, 1837.000000, 8185.000000, 8225.000000, 8222.000000
3126, 199321232.000000, 1733.750000, 8191.000000, 8227.000000, 8227.000000
3127, 199321392.000000, 1635.500000, 8201.000000, 8228.000000, 8233.000000
3128, 199321552.000000, 1548.250000, 8207.000000, 8230.000000, 8237.000000
3129, 199321712.000000, 1478.250000, 8215.000000, 8233.000000, 8243.000000
3130, 199321872.000000, 1424.750000, 8225.000000, 8237.000000, 8252.000000
3131, 199322032.000000, 1385.500000, 8238.000000, 8239.000000, 8259.000000
3132, 199322192.000000, 1359.750000, 8252.000000, 8239.000000, 8268.000000
3133, 199322352.000000, 1340.750000, 8264.000000, 8233.000000, 8266.000000
3134, 199322512.000000, 1325.250000, 8262.000000, 8223.000000, 8255.000000
3135, 199322672.000000, 1305.250000, 8234.000000, 8211.000000, 8234.000000
3136, 199322832.000000, 1281.500000, 8193.000000, 8205.000000, 8211.000000
3137, 199322992.000000, 1255.750000, 8165.000000, 8198.000000, 8191.000000
3138, 199323152.000000, 1226.250000, 8156.000000, 8192.000000, 8179.000000
3139, 199323312.000000, 1195.250000, 8155.000000, 8191.000000, 8176.000000
3140, 199323472.000000, 1165.250000, 8157.000000, 8194.000000, 8180.000000
3141, 199323632.000000, 1137.000000, 8160.000000, 8194.000000, 8182.000000
3142, 199323792.000000, 1107.000000, 8165.000000, 8194.000000, 8185.000000
3143, 199323952.000000, 1077.000000, 8169.000000, 8193.000000, 8185.000000
3144, 199324112.000000, 1045.750000, 8176.000000, 8190.000000, 8185.000000
3145, 199324272.000000, 1019.750000, 8179.000000, 8188.000000, 8183.000000
3146, 199324432.000000, 1051.250000, 8181.000000, 8187.000000, 8185.000000
3147, 199324592.000000, 1243.750000, 8181.000000, 8185.000000, 8181.000000
3148, 199324752.000000, 1619.000000, 8178.000000, 8184.000000, 8180.000000
3149, 199324912.000000, 2086.500000, 8176.000000, 8182.000000, 8175.000000
3150, 199325072.000000, 2488.000000, 8174.000000, 8183.000000, 8176.000000
3151, 199325232.000000, 2749.000000, 8173.000000, 8184.000000, 8175.000000
3152, 199325392.000000, 2858.500000, 8173.000000, 8182.000000, 8173.000000
3153, 199325552.000000, 2849.000000, 8172.000000, 8183.000000, 8173.000000
3154, 199325712.000000, 2743.750000, 8172.000000, 8183.000000, 8173.000000
3155, 199325872.000000, 2597.250000, 8174.000000, 8184.000000, 8175.000000
3156, 199326032.000000, 2474.500000, 8175.000000, 8186.000000, 8178.000000
3157, 199326192.000000, 2345.250000, 8177.000000, 8184.000000, 8177.000000
3158, 199326352.000000, 2220.750000, 8177.000000, 8185.000000, 8178.000000
3159, 199326512.000000, 2105.500000, 8184.000000, 8203.000000, 8209.000000
3160, 199326672.000000, 2018.750000, 8190.000000, 8202.000000, 8206.000000
3161, 199326832.000000, 1983.750000, 8191.000000, 8188.000000, 8185.000000
3162, 199326992.000000, 1971.750000, 8177.000000, 8179.000000, 8170.000000
3163, 199327152.000000, 1956.750000, 8168.000000, 8177.000000, 8164.000000
3164, 199327312.000000, 1927.500000, 8169.000000, 8176.000000, 8164.000000
3165, 199327472.000000, 1875.750000, 8171.000000, 8175.000000, 8162.000000
3166, 199327632.000000, 1803.250000, 8268.000000, 8191.000000, 8233.000000
3167, 199327792.000000, 1713.250000, 8363.000000, 7864.000000, 7941.000000
3168, 199327952.000000, 1622.000000, 8130.000000, 8100.000000, 8042.000000
3169, 199328112.000000, 1519.750000, 8185.000000, 8215.000000, 8212.000000
3170, 199328272.000000, 1433.750000, 8188.000000, 8223.000000, 8220.000000
3171, 199328432.000000, 1378.000000, 8192.000000, 8227.000000, 8228.000000
3172, 199328592.000000, 1336.750000, 8197.000000, 8227.000000, 8229.000000
3173, 199328752.000000, 1307.750000, 8201.000000, 8228.000000, 8231.000000
3174, 199328912.000000, 1284.000000, 8211.000000, 8228.000000, 8234.000000
3175, 199329072.000000, 1265.750000, 8217.000000, 8232.000000, 8240.000000
3176, 199329232.000000, 1249.500000, 8229.000000, 8236.000000, 8250.000000
3177, 199329392.000000, 1232.000000, 8241.000000, 8237.000000, 8257.000000
3178, 199329552.000000, 1214.000000, 8256.000000, 8235.000000, 8261.000000
3179, 199329712.000000, 1193.250000, 8265.000000, 8230.000000, 8260.000000
3180, 199329872.000000, 1169.500000, 8263.000000, 8221.000000, 8253.000000
3181, 199330032.000000, 1143.750000, 8233.000000, 8209.000000, 8231.000000
3182, 199330192.000000, 1118.250000, 8189.000000, 8201.000000, 8204.000000
3183, 199330352.000000, 1091.500000, 8163.000000, 8193.000000, 8181.000000
3184, 199330512.000000, 1064.750000, 8154.000000, 8189.000000, 8173.000000
3185, 199330672.000000, 1044.750000, 8154.000000, 8190.000000, 8174.000000
