1499, 195262672.000000, 2839.750000, 8207.000000, 8225.000000, 8228.000000
1500, 195262832.000000, 2781.250000, 8215.000000, 8226.000000, 8234.000000
1501, 195262992.000000, 2697.250000, 8224.000000, 8233.000000, 8247.000000
1502, 195263152.000000, 2593.500000, 8233.000000, 8241.000000, 8259.000000
1503, 195263312.000000, 2484.250000, 8240.000000, 8238.000000, 8259.000000
1504, 195263472.000000, 2383.500000, 8244.000000, 8228.000000, 8250.000000
1505, 195263632.000000, 2291.750000, 8242.000000, 8217.000000, 8239.000000
1506, 195263792.000000, 2217.750000, 8224.000000, 8211.000000, 8229.000000
1507, 195263952.000000, 2160.250000, 8188.000000, 8211.000000, 8215.000000
1508, 195264112.000000, 2115.250000, 8166.000000, 8203.000000, 8195.000000
1509, 195264272.000000, 2076.000000, 8158.000000, 8196.000000, 8183.000000
1510, 195264432.000000, 2036.000000, 8159.000000, 8192.000000, 8179.000000
1511, 195264592.000000, 1998.000000, 8164.000000, 8197.000000, 8186.000000
1512, 195264752.000000, 1962.250000, 8166.000000, 8201.000000, 8193.000000
1513, 195264912.000000, 1932.000000, 8169.000000, 8199.000000, 8191.000000
1514, 195265072.000000, 1898.000000, 8169.000000, 8191.000000, 8181.000000
1515, 195265232.000000, 1851.750000, 8169.000000, 8185.000000, 8175.000000
1516, 195265392.000000, 1794.750000, 8169.000000, 8187.000000, 8177.000000
1517, 195265552.000000, 1782.500000, 8167.000000, 8190.000000, 8179.000000
1518, 195265712.000000, 1947.500000, 8166.000000, 8188.000000, 8176.000000
1519, 195265872.000000, 2346.500000, 8167.000000, 8179.000000, 8166.000000
1520, 195266032.000000, 2874.250000, 8177.000000, 8193.000000, 8194.000000
1521, 195266192.000000, 3322.000000, 8186.000000, 8217.000000, 8232.000000
1522, 195266352.000000, 3578.750000, 8197.000000, 8212.000000, 8222.000000
1523, 195266512.000000, 3639.000000, 8176.000000, 8185.000000, 8178.000000
1524, 195266672.000000, 3566.000000, 8165.000000, 8169.000000, 8152.000000
1525, 195266832.000000, 3430.500000, 8164.000000, 8164.000000, 8145.000000
1526, 195266992.000000, 3275.250000, 8167.000000, 8169.000000, 8152.000000
1527, 195267152.000000, 3122.500000, 8242.000000, 8230.000000, 8256.000000
1528, 195267312.000000, 2964.250000, 8357.000000, 7962.000000, 8051.000000
1529, 195267472.000000, 2810.500000, 8110.000000, 8042.000000, 7981.000000
1530, 195267632.000000, 2700.250000, 8182.000000, 8188.000000, 8179.000000
1531, 195267792.000000, 2659.250000, 8185.000000, 8207.000000, 8200.000000
1532, 195267952.000000, 2680.250000, 8192.000000, 8215.000000, 8212.000000
1533, 195268112.000000, 2722.750000, 8196.000000, 8216.000000, 8214.000000
1534, 195268272.000000, 2752.750000, 8204.000000, 8214.000000, 8215.000000
1535, 195268432.000000, 2752.500000, 8212.000000, 8216.000000, 8222.000000
1536, 195268592.000000, 2712.750000, 8223.000000, 8225.000000, 8235.000000
1537, 195268752.000000, 2634.500000, 8233.000000, 8231.000000, 8247.000000
1538, 195268912.000000, 2525.000000, 8240.000000, 8230.000000, 8247.000000
1539, 195269072.000000, 2401.500000, 8248.000000, 8219.000000, 8239.000000
1540, 195269232.000000, 2278.750000, 8251.000000, 8207.000000, 8229.000000
1541, 195269392.000000, 2169.250000, 8242.000000, 8200.000000, 8220.000000
1542, 195269552.000000, 2070.000000, 8204.000000, 8205.000000, 8214.000000
1543, 195269712.000000, 1986.000000, 8173.000000, 8202.000000, 8199.000000
1544, 195269872.000000, 1918.500000, 8157.000000, 8194.000000, 8182.000000
1545, 195270032.000000, 1871.000000, 8156.000000, 8192.000000, 8179.000000
1546, 195270192.000000, 1835.250000, 8159.000000, 8198.000000, 8187.000000
1547, 195270352.000000, 1804.000000, 8166.000000, 8201.000000, 8193.000000
1548, 195270512.000000, 1770.750000, 8169.000000, 8198.000000, 8190.000000
1549, 195270672.000000, 1727.000000, 8171.000000, 8190.000000, 8183.000000
1550, 195270832.000000, 1664.500000, 8172.000000, 8187.000000, 8179.000000
1551, 195270992.000000, 1591.250000, 8171.000000, 8190.000000, 8181.000000
1552, 195271152.000000, 1518.250000, 8168.000000, 8191.000000, 8182.000000
1553, 195271312.000000, 1513.750000, 8170.000000, 8187.000000, 8178.000000
1554, 195271472.000000, 1672.250000, 8168.000000, 8179.000000, 8168.000000
1555, 195271632.000000, 2033.500000, 8173.000000, 8185.000000, 8178.000000
1556, 195271792.000000, 2483.500000, 8180.000000, 8211.000000, 8220.000000
1557, 195271952.000000, 2862.250000, 8199.000000, 8229.000000, 8251.000000
1558, 195272112.000000, 3067.750000, 8190.000000, 8196.000000, 8198.000000
1559, 195272272.000000, 3104.500000, 8164.000000, 8170.000000, 8153.000000
1560, 195272432.000000, 3023.750000, 8164.000000, 8166.000000, 8147.000000
1561, 195272592.000000, 2880.000000, 8166.000000, 8171.000000, 8155.000000
1562, 195272752.000000, 2713.250000, 8185.000000, 8188.000000, 8173.000000
1563, 195272912.000000, 2538.250000, 8336.000000, 8062.000000, 8149.000000
1564, 195273072.000000, 2361.500000, 8091.000000, 7936.000000, 7878.000000
1565, 195273232.000000, 2207.500000, 8168.000000, 8167.000000, 8144.000000
1566, 195273392.000000, 2122.500000, 8185.000000, 8212.000000, 8207.000000
1567, 195273552.000000, 2114.000000, 8187.000000, 8222.000000, 8218.000000
1568, 195273712.000000, 2155.000000, 8194.000000, 8221.000000, 8218.000000
1569, 195273872.000000, 2199.750000, 8201.000000, 8219.000000, 8220.000000
1570, 195274032.000000, 2223.500000, 8210.000000, 8223.000000, 8228.000000
1571, 195274192.000000, 2201.250000, 8218.000000, 8232.000000, 8242.000000
1572, 195274352.000000, 2134.500000, 8226.000000, 8240.000000, 8254.000000
1573, 195274512.000000, 2034.750000, 8236.000000, 8239.000000, 8257.000000
1574, 195274672.000000, 1921.500000, 8245.000000, 8232.000000, 8254.000000
1575, 195274832.000000, 1808.750000, 8250.000000, 8225.000000, 8249.000000
1576, 195274992.000000, 1712.750000, 8245.000000, 8219.000000, 8243.000000
1577, 195275152.000000, 1629.250000, 8219.000000, 8213.000000, 8230.000000
1578, 195275312.000000, 1556.750000, 8184.000000, 8205.000000, 8207.000000
1579, 195275472.000000, 1489.250000, 8164.000000, 8194.000000, 8185.000000
1580, 195275632.000000, 1433.500000, 8157.000000, 8192.000000, 8180.000000
1581, 195275792.000000, 1387.500000, 8157.000000, 8197.000000, 8185.000000
1582, 195275952.000000, 1356.750000, 8162.000000, 8200.000000, 8191.000000
1583, 195276112.000000, 1331.750000, 8167.000000, 8199.000000, 8190.000000
1584, 195276272.000000, 1311.000000, 8170.000000, 8192.000000, 8183.000000
1585, 195276432.000000, 1279.250000, 8172.000000, 8189.000000, 8181.000000
1586, 195276592.000000, 1232.750000, 8170.000000, 8192.000000, 8183.000000
1587, 195276752.000000, 1171.000000, 8170.000000, 8192.000000, 8183.000000
1588, 195276912.000000, 1165.750000, 8168.000000, 8187.000000, 8176.000000
1589, 195277072.000000, 1325.250000, 8167.000000, 8181.000000, 8168.000000
1590, 195277232.000000, 1727.750000, 8168.000000, 8180.000000, 8169.000000
1591, 195277392.000000, 2248.250000, 8168.000000, 8185.000000, 8174.000000
1592, 195277552.000000, 2706.000000, 8182.000000, 8212.000000, 8222.000000
1593, 195277712.000000, 2963.750000, 8195.000000, 8228.000000, 8253.000000
1594, 195277872.000000, 3036.000000, 8195.000000, 8199.000000, 8206.000000
1595, 195278032.000000, 2970.500000, 8175.000000, 8175.000000, 8165.000000
1596, 195278192.000000, 2838.500000, 8166.000000, 8172.000000, 8156.000000
1597, 195278352.000000, 2692.500000, 8166.000000, 8175.000000, 8159.000000
1598, 195278512.000000, 2552.500000, 8170.000000, 8168.000000, 8147.000000
1599, 195278672.000000, 2415.000000, 8265.000000, 8178.000000, 8218.000000
1600, 195278832.000000, 2282.500000, 8300.000000, 7845.000000, 7890.000000
1601, 195278992.000000, 2185.500000, 8133.000000, 8111.000000, 8053.000000
1602, 195279152.000000, 2147.250000, 8184.000000, 8215.000000, 8211.000000
1603, 195279312.000000, 2162.250000, 8187.000000, 8220.000000, 8216.000000
1604, 195279472.000000, 2194.000000, 8193.000000, 8218.000000, 8216.000000
1605, 195279632.000000, 2211.250000, 8196.000000, 8222.000000, 8220.000000
1606, 195279792.000000, 2202.000000, 8207.000000, 8231.000000, 8236.000000
1607, 195279952.000000, 2161.750000, 8212.000000, 8237.000000, 8245.000000
1608, 195280112.000000, 2091.000000, 8221.000000, 8236.000000, 8248.000000
1609, 195280272.000000, 1997.750000, 8231.000000, 8235.000000, 8252.000000
1610, 195280432.000000, 1897.000000, 8240.000000, 8238.000000, 8259.000000
1611, 195280592.000000, 1798.250000, 8249.000000, 8239.000000, 8266.000000
1612, 195280752.000000, 1706.750000, 8250.000000, 8233.000000, 8261.000000
1613, 195280912.000000, 1624.250000, 8231.000000, 8216.000000, 8237.000000
1614, 195281072.000000, 1556.000000, 8199.000000, 8204.000000, 8212.000000
1615, 195281232.000000, 1508.250000, 8172.000000, 8199.000000, 8195.000000
1616, 195281392.000000, 1477.500000, 8161.000000, 8199.000000, 8188.000000
1617, 195281552.000000, 1452.750000, 8158.000000, 8199.000000, 8186.000000
1618, 195281712.000000, 1432.750000, 8161.000000, 8195.000000, 8182.000000
1619, 195281872.000000, 1419.750000, 8166.000000, 8192.000000, 8182.000000
1620, 195282032.000000, 1402.750000, 8168.000000, 8193.000000, 8184.000000
1621, 195282192.000000, 1380.750000, 8172.000000, 8198.000000, 8192.000000
1622, 195282352.000000, 1342.500000, 8171.000000, 8197.000000, 8190.000000
1623, 195282512.000000, 1291.000000, 8171.000000, 8189.000000, 8180.000000
1624, 195282672.000000, 1262.000000, 8170.000000, 8183.000000, 8172.000000
1625, 195282832.000000, 1379.750000, 8171.000000, 8183.000000, 8174.000000
1626, 195282992.000000, 1727.500000, 8171.000000, 8187.000000, 8178.000000
1627, 195283152.000000, 2269.250000, 8171.000000, 8189.000000, 8180.000000
1628, 195283312.000000, 2796.250000, 8170.000000, 8183.000000, 8172.000000
1629, 195283472.000000, 3155.500000, 8172.000000, 8178.000000, 8168.000000
1630, 195283632.000000, 3295.750000, 8172.000000, 8181.000000, 8171.000000
1631, 195283792.000000, 3279.250000, 8187.000000, 8213.000000, 8225.000000
1632, 195283952.000000, 3180.000000, 8203.000000, 8233.000000, 8263.000000
1633, 195284112.000000, 3054.750000, 8200.000000, 8201.000000, 8211.000000
1634, 195284272.000000, 2933.750000, 8176.000000, 8173.000000, 8162.000000
1635, 195284432.000000, 2817.750000, 8170.000000, 8169.000000, 8154.000000
1636, 195284592.000000, 2690.000000, 8170.000000, 8174.000000, 8159.000000
1637, 195284752.000000, 2568.500000, 8175.000000, 8171.000000, 8151.000000
1638, 195284912.000000, 2492.750000, 8278.000000, 8170.000000, 8220.000000
1639, 195285072.000000, 2472.750000, 8278.000000, 7851.000000, 7881.000000
1640, 195285232.000000, 2489.750000, 8146.000000, 8127.000000, 8078.000000
1641, 195285392.000000, 2504.250000, 8185.000000, 8217.000000, 8214.000000
1642, 195285552.000000, 2497.000000, 8188.000000, 8226.000000, 8223.000000
1643, 195285712.000000, 2459.250000, 8191.000000, 8223.000000, 8220.000000
1644, 195285872.000000, 2383.750000, 8199.000000, 8222.000000, 8222.000000
1645, 195286032.000000, 2286.500000, 8207.000000, 8228.000000, 8233.000000
1646, 195286192.000000, 2172.250000, 8214.000000, 8236.000000, 8244.000000
1647, 195286352.000000, 2039.500000, 8222.000000, 8240.000000, 8253.000000
1648, 195286512.000000, 1918.500000, 8233.000000, 8239.000000, 8259.000000
1649, 195286672.000000, 1834.500000, 8240.000000, 8236.000000, 8257.000000
1650, 195286832.000000, 1765.250000, 8248.000000, 8234.000000, 8260.000000
1651, 195286992.000000, 1711.000000, 8249.000000, 8233.000000, 8262.000000
1652, 195287152.000000, 1667.750000, 8234.000000, 8221.000000, 8246.000000
1653, 195287312.000000, 1631.750000, 8201.000000, 8209.000000, 8220.000000
1654, 195287472.000000, 1601.000000, 8171.000000, 8197.000000, 8192.000000
1655, 195287632.000000, 1570.250000, 8162.000000, 8194.000000, 8183.000000
1656, 195287792.000000, 1541.000000, 8160.000000, 8198.000000, 8186.000000
1657, 195287952.000000, 1508.000000, 8163.000000, 8199.000000, 8189.000000
1658, 195288112.000000, 1468.500000, 8164.000000, 8195.000000, 8184.000000
1659, 195288272.000000, 1422.500000, 8168.000000, 8192.000000, 8183.000000
1660, 195288432.000000, 1363.500000, 8170.000000, 8193.000000, 8184.000000
1661, 195288592.000000, 1295.500000, 8172.000000, 8196.000000, 8188.000000
1662, 195288752.000000, 1295.250000, 8173.000000, 8193.000000, 8186.000000
1663, 195288912.000000, 1576.250000, 8171.000000, 8185.000000, 8176.000000
1664, 195289072.000000, 2070.750000, 8171.000000, 8179.000000, 8168.000000
1665, 195289232.000000, 2638.750000, 8172.000000, 8182.000000, 8172.000000
1666, 195289392.000000, 3082.000000, 8173.000000, 8187.000000, 8178.000000
1667, 195289552.000000, 3308.250000, 8172.000000, 8186.000000, 8176.000000
1668, 195289712.000000, 3345.250000, 8173.000000, 8182.000000, 8173.000000
1669, 195289872.000000, 3270.750000, 8174.000000, 8178.000000, 8169.000000
1670, 195290032.000000, 3149.750000, 8174.000000, 8182.000000, 8173.000000
1671, 195290192.000000, 3029.750000, 8175.000000, 8187.000000, 8179.000000
1672, 195290352.000000, 2917.250000, 8187.000000, 8208.000000, 8218.000000
1673, 195290512.000000, 2796.500000, 8199.000000, 8222.000000, 8246.000000
1674, 195290672.000000, 2670.250000, 8201.000000, 8197.000000, 8206.000000
1675, 195290832.000000, 2566.250000, 8181.000000, 8179.000000, 8173.000000
1676, 195290992.000000, 2514.750000, 8173.000000, 8176.000000, 8163.000000
1677, 195291152.000000, 2511.250000, 8172.000000, 8175.000000, 8161.000000
1678, 195291312.000000, 2528.250000, 8173.000000, 8168.000000, 8149.000000
1679, 195291472.000000, 2530.500000, 8271.000000, 8188.000000, 8228.000000
1680, 195291632.000000, 2502.250000, 8329.000000, 7869.000000, 7927.000000
1681, 195291792.000000, 2436.750000, 8136.000000, 8108.000000, 8052.000000
1682, 195291952.000000, 2339.750000, 8185.000000, 8213.000000, 8210.000000
1683, 195292112.000000, 2228.750000, 8187.000000, 8217.000000, 8213.000000
1684, 195292272.000000, 2118.000000, 8192.000000, 8217.000000, 8214.000000
1685, 195292432.000000, 2015.500000, 8198.000000, 8224.000000, 8225.000000
1686, 195292592.000000, 1928.000000, 8204.000000, 8232.000000, 8237.000000
1687, 195292752.000000, 1854.500000, 8213.000000, 8235.000000, 8244.000000
1688, 195292912.000000, 1792.000000, 8222.000000, 8232.000000, 8245.000000
1689, 195293072.000000, 1739.500000, 8230.000000, 8232.000000, 8248.000000
1690, 195293232.000000, 1698.750000, 8240.000000, 8238.000000, 8259.000000
1691, 195293392.000000, 1663.750000, 8247.000000, 8238.000000, 8264.000000
1692, 195293552.000000, 1632.000000, 8249.000000, 8232.000000, 8259.000000
1693, 195293712.000000, 1604.750000, 8237.000000, 8217.000000, 8240.000000
1694, 195293872.000000, 1574.000000, 8203.000000, 8207.000000, 8217.000000
1695, 195294032.000000, 1536.500000, 8172.000000, 8205.000000, 8201.000000
1696, 195294192.000000, 1492.500000, 8158.000000, 8205.000000, 8194.000000
1697, 195294352.000000, 1446.750000, 8154.000000, 8201.000000, 8187.000000
1698, 195294512.000000, 1404.250000, 8155.000000, 8196.000000, 8181.000000
1699, 195294672.000000, 1363.750000, 8159.000000, 8194.000000, 8181.000000
1700, 195294832.000000, 1319.500000, 8164.000000, 8200.000000, 8189.000000
1701, 195294992.000000, 1273.750000, 8167.000000, 8202.000000, 8193.000000
1702, 195295152.000000, 1219.250000, 8169.000000, 8198.000000, 8190.000000
1703, 195295312.000000, 1212.250000, 8169.000000, 8190.000000, 8180.000000
1704, 195295472.000000, 1367.500000, 8168.000000, 8185.000000, 8174.000000
1705, 195295632.000000, 1777.000000, 8167.000000, 8186.000000, 8175.000000
1706, 195295792.000000, 2324.500000, 8168.000000, 8189.000000, 8178.000000
1707, 195295952.000000, 2821.250000, 8168.000000, 8187.000000, 8176.000000
1708, 195296112.000000, 3120.000000, 8167.000000, 8180.000000, 8167.000000
1709, 195296272.000000, 3221.250000, 8167.000000, 8178.000000, 8165.000000
1710, 195296432.000000, 3172.500000, 8169.000000, 8182.000000, 8170.000000
1711, 195296592.000000, 3054.500000, 8170.000000, 8188.000000, 8177.000000
1712, 195296752.000000, 2919.250000, 8174.000000, 8193.000000, 8188.000000
1713, 195296912.000000, 2797.750000, 8181.000000, 8205.000000, 8213.000000
1714, 195297072.000000, 2677.000000, 8196.000000, 8205.000000, 8215.000000
1715, 195297232.000000, 2545.000000, 8186.000000, 8189.000000, 8188.000000
1716, 195297392.000000, 2428.250000, 8168.000000, 8179.000000, 8166.000000
1717, 195297552.000000, 2354.250000, 8169.000000, 8175.000000, 8161.000000
1718, 195297712.000000, 2333.750000, 8169.000000, 8171.000000, 8157.000000
1719, 195297872.000000, 2340.500000, 8195.000000, 8193.000000, 8188.000000
1720, 195298032.000000, 2354.250000, 8361.000000, 8052.000000, 8150.000000
1721, 195298192.000000, 2343.250000, 8097.000000, 7985.000000, 7933.000000
1722, 195298352.000000, 2301.000000, 8171.000000, 8178.000000, 8159.000000
1723, 195298512.000000, 2221.500000, 8184.000000, 8206.000000, 8200.000000
1724, 195298672.000000, 2114.750000, 8189.000000, 8211.000000, 8208.000000
1725, 195298832.000000, 1993.750000, 8196.000000, 8219.000000, 8219.000000
1726, 195298992.000000, 1875.500000, 8203.000000, 8226.000000, 8230.000000
1727, 195299152.000000, 1767.000000, 8212.000000, 8227.000000, 8235.000000
1728, 195299312.000000, 1672.000000, 8218.000000, 8224.000000, 8234.000000
1729, 195299472.000000, 1591.250000, 8229.000000, 8228.000000, 8242.000000
1730, 195299632.000000, 1529.000000, 8239.000000, 8235.000000, 8255.000000
1731, 195299792.000000, 1477.250000, 8250.000000, 8235.000000, 8259.000000
1732, 195299952.000000, 1436.500000, 8254.000000, 8224.000000, 8250.000000
1733, 195300112.000000, 1404.000000, 8252.000000, 8207.000000, 8232.000000
1734, 195300272.000000, 1379.000000, 8224.000000, 8199.000000, 8215.000000
1735, 195300432.000000, 1350.500000, 8185.000000, 8202.000000, 8206.000000
1736, 195300592.000000, 1319.000000, 8163.000000, 8202.000000, 8196.000000
1737, 195300752.000000, 1282.750000, 8153.000000, 8197.000000, 8184.000000
1738, 195300912.000000, 1247.250000, 8154.000000, 8191.000000, 8177.000000
1739, 195301072.000000, 1204.500000, 8158.000000, 8192.000000, 8179.000000
1740, 195301232.000000, 1155.250000, 8166.000000, 8198.000000, 8190.000000
1741, 195301392.000000, 1091.000000, 8170.000000, 8200.000000, 8193.000000
1742, 195301552.000000, 1020.250000, 8171.000000, 8196.000000, 8189.000000
1743, 195301712.000000, 952.250000, 8172.000000, 8187.000000, 8179.000000
1744, 195301872.000000, 941.250000, 8171.000000, 8184.000000, 8175.000000
1745, 195302032.000000, 1109.500000, 8169.000000, 8186.000000, 8176.000000
1746, 195302192.000000, 1498.500000, 8169.000000, 8188.000000, 8178.000000
1747, 195302352.000000, 2023.250000, 8168.000000, 8185.000000, 8174.000000
1748, 195302512.000000, 2483.250000, 8169.000000, 8178.000000, 8166.000000
1749, 195302672.000000, 2766.750000, 8169.000000, 8178.000000, 8166.000000
1750, 195302832.000000, 2851.250000, 8173.000000, 8184.000000, 8175.000000
1751, 195302992.000000, 2800.500000, 8173.000000, 8187.000000, 8178.000000
1752, 195303152.000000, 2681.250000, 8173.000000, 8183.000000, 8174.000000
1753, 195303312.000000, 2542.250000, 8181.000000, 8196.000000, 8200.000000
1754, 195303472.000000, 2405.750000, 8192.000000, 8215.000000, 8234.000000
1755, 195303632.000000, 2267.500000, 8200.000000, 8208.000000, 8218.000000
1756, 195303792.000000, 2129.000000, 8186.000000, 8188.000000, 8185.000000
1757, 195303952.000000, 2022.500000, 8171.000000, 8174.000000, 8161.000000
1758, 195304112.000000, 1980.000000, 8169.000000, 8167.000000, 8151.000000
1759, 195304272.000000, 1992.500000, 8170.000000, 8168.000000, 8151.000000
1760, 195304432.000000, 2031.000000, 8238.000000, 8205.000000, 8225.000000
1761, 195304592.000000, 2058.250000, 8365.000000, 7876.000000, 7962.000000
1762, 195304752.000000, 2060.000000, 8113.000000, 8058.000000, 7989.000000
1763, 195304912.000000, 2026.750000, 8184.000000, 8204.000000, 8200.000000
1764, 195305072.000000, 1962.500000, 8187.000000, 8218.000000, 8216.000000
1765, 195305232.000000, 1873.750000, 8194.000000, 8227.000000, 8229.000000
1766, 195305392.000000, 1768.750000, 8200.000000, 8231.000000, 8235.000000
1767, 195305552.000000, 1662.250000, 8206.000000, 8231.000000, 8237.000000
1768, 195305712.000000, 1572.250000, 8213.000000, 8229.000000, 8238.000000
1769, 195305872.000000, 1498.500000, 8222.000000, 8233.000000, 8246.000000
1770, 195306032.000000, 1438.500000, 8231.000000, 8244.000000, 8263.000000
1771, 195306192.000000, 1397.500000, 8241.000000, 8248.000000, 8272.000000
1772, 195306352.000000, 1366.500000, 8250.000000, 8241.000000, 8269.000000
1773, 195306512.000000, 1346.000000, 8254.000000, 8229.000000, 8259.000000
1774, 195306672.000000, 1329.250000, 8246.000000, 8219.000000, 8248.000000
1775, 195306832.000000, 1314.750000, 8213.000000, 8214.000000, 8229.000000
1776, 195306992.000000, 1301.500000, 8182.000000, 8207.000000, 8209.000000
1777, 195307152.000000, 1284.750000, 8164.000000, 8197.000000, 8188.000000
1778, 195307312.000000, 1257.750000, 8159.000000, 8189.000000, 8176.000000
1779, 195307472.000000, 1230.000000, 8161.000000, 8190.000000, 8177.000000
1780, 195307632.000000, 1200.250000, 8163.000000, 8197.000000, 8187.000000
1781, 195307792.000000, 1169.500000, 8167.000000, 8199.000000, 8190.000000
1782, 195307952.000000, 1131.250000, 8171.000000, 8194.000000, 8187.000000
1783, 195308112.000000, 1082.000000, 8172.000000, 8188.000000, 8180.000000
1784, 195308272.000000, 1042.250000, 8173.000000, 8187.000000, 8178.000000
1785, 195308432.000000, 1115.250000, 8174.000000, 8189.000000, 8182.000000
1786, 195308592.000000, 1413.000000, 8173.000000, 8189.000000, 8180.000000
1787, 195308752.000000, 1952.250000, 8174.000000, 8185.000000, 8176.000000
1788, 195308912.000000, 2547.000000, 8174.000000, 8179.000000, 8170.000000
1789, 195309072.000000, 3012.250000, 8173.000000, 8180.000000, 8169.000000
1790, 195309232.000000, 3252.750000, 8175.000000, 8184.000000, 8176.000000
1791, 195309392.000000, 3303.500000, 8175.000000, 8186.000000, 8178.000000
1792, 195309552.000000, 3235.000000, 8174.000000, 8182.000000, 8173.000000
1793, 195309712.000000, 3111.750000, 8175.000000, 8178.000000, 8168.000000
1794, 195309872.000000, 2982.500000, 8174.000000, 8181.000000, 8172.000000
1795, 195310032.000000, 2862.000000, 8188.000000, 8211.000000, 8223.000000
1796, 195310192.000000, 2736.000000, 8201.000000, 8219.000000, 8238.000000
1797, 195310352.000000, 2601.000000, 8198.000000, 8192.000000, 8197.000000
1798, 195310512.000000, 2485.750000, 8176.000000, 8171.000000, 8160.000000
1799, 195310672.000000, 2422.000000, 8172.000000, 8170.000000, 8156.000000
1800, 195310832.000000, 2408.000000, 8173.000000, 8176.000000, 8163.000000
1801, 195310992.000000, 2416.000000, 8179.000000, 8172.000000, 8153.000000
1802, 195311152.000000, 2420.500000, 8297.000000, 8143.000000, 8208.000000
1803, 195311312.000000, 2406.000000, 8227.000000, 7868.000000, 7870.000000
1804, 195311472.000000, 2358.500000, 8158.000000, 8149.000000, 8112.000000
1805, 195311632.000000, 2280.250000, 8186.000000, 8220.000000, 8219.000000
1806, 195311792.000000, 2175.250000, 8191.000000, 8228.000000, 8230.000000
1807, 195311952.000000, 2053.000000, 8196.000000, 8227.000000, 8229.000000
1808, 195312112.000000, 1925.500000, 8202.000000, 8224.000000, 8226.000000
1809, 195312272.000000, 1807.000000, 8208.000000, 8230.000000, 8236.000000
1810, 195312432.000000, 1703.500000, 8216.000000, 8238.000000, 8249.000000
1811, 195312592.000000, 1618.250000, 8224.000000, 8242.000000, 8258.000000
1812, 195312752.000000, 1551.000000, 8233.000000, 8240.000000, 8260.000000
1813, 195312912.000000, 1499.500000, 8244.000000, 8237.000000, 8261.000000
1814, 195313072.000000, 1460.250000, 8253.000000, 8236.000000, 8266.000000
1815, 195313232.000000, 1435.750000, 8255.000000, 8235.000000, 8268.000000
1816, 195313392.000000, 1414.250000, 8240.000000, 8223.000000, 8252.000000
1817, 195313552.000000, 1388.000000, 8203.000000, 8209.000000, 8221.000000
1818, 195313712.000000, 1354.750000, 8172.000000, 8196.000000, 8190.000000
1819, 195313872.000000, 1317.750000, 8162.000000, 8193.000000, 8182.000000
1820, 195314032.000000, 1273.500000, 8160.000000, 8196.000000, 8184.000000
1821, 195314192.000000, 1231.250000, 8160.000000, 8198.000000, 8186.000000
1822, 195314352.000000, 1192.000000, 8163.000000, 8194.000000, 8182.000000
1823, 195314512.000000, 1148.500000, 8168.000000, 8190.000000, 8181.000000
1824, 195314672.000000, 1102.000000, 8169.000000, 8191.000000, 8181.000000
1825, 195314832.000000, 1043.500000, 8171.000000, 8195.000000, 8186.000000
1826, 195314992.000000, 1016.500000, 8172.000000, 8193.000000, 8185.000000
1827, 195315152.000000, 1132.750000, 8170.000000, 8185.000000, 8174.000000
1828, 195315312.000000, 1511.000000, 8171.000000, 8180.000000, 8169.000000
1829, 195315472.000000, 2088.250000, 8171.000000, 8182.000000, 8171.000000
1830, 195315632.000000, 2671.500000, 8172.000000, 8187.000000, 8177.000000
1831, 195315792.000000, 3083.500000, 8172.000000, 8187.000000, 8177.000000
1832, 195315952.000000, 3282.250000, 8172.000000, 8181.000000, 8171.000000
1833, 195316112.000000, 3300.000000, 8173.000000, 8178.000000, 8167.000000
1834, 195316272.000000, 3215.500000, 8174.000000, 8181.000000, 8172.000000
1835, 195316432.000000, 3082.000000, 8176.000000, 8187.000000, 8178.000000
1836, 195316592.000000, 2947.000000, 8182.000000, 8200.000000, 8204.000000
1837, 195316752.000000, 2818.500000, 8190.000000, 8209.000000, 8221.000000
1838, 195316912.000000, 2681.000000, 8199.000000, 8199.000000, 8205.000000
1839, 195317072.000000, 2542.750000, 8188.000000, 8183.000000, 8180.000000
1840, 195317232.000000, 2431.000000, 8172.000000, 8178.000000, 8166.000000
1841, 195317392.000000, 2378.750000, 8171.000000, 8177.000000, 8164.000000
1842, 195317552.000000, 2370.500000, 8171.000000, 8173.000000, 8160.000000
1843, 195317712.000000, 2382.250000, 8225.000000, 8215.000000, 8228.000000
1844, 195317872.000000, 2388.000000, 8382.000000, 7947.000000, 8047.000000
1845, 195318032.000000, 2374.750000, 8107.000000, 8032.000000, 7967.000000
1846, 195318192.000000, 2327.250000, 8184.000000, 8203.000000, 8197.000000
1847, 195318352.000000, 2247.250000, 8188.000000, 8214.000000, 8211.000000
1848, 195318512.000000, 2137.000000, 8193.000000, 8215.000000, 8213.000000
1849, 195318672.000000, 2008.500000, 8199.000000, 8220.000000, 8220.000000
1850, 195318832.000000, 1876.750000, 8208.000000, 8229.000000, 8235.000000
1851, 195318992.000000, 1761.000000, 8213.000000, 8231.000000, 8240.000000
1852, 195319152.000000, 1663.500000, 8223.000000, 8228.000000, 8240.000000
1853, 195319312.000000, 1583.000000, 8230.000000, 8228.000000, 8242.000000
1854, 195319472.000000, 1517.750000, 8242.000000, 8234.000000, 8254.000000
1855, 195319632.000000, 1464.500000, 8251.000000, 8237.000000, 8263.000000
1856, 195319792.000000, 1419.500000, 8257.000000, 8230.000000, 8258.000000
1857, 195319952.000000, 1380.000000, 8251.000000, 8215.000000, 8241.000000
1858, 195320112.000000, 1343.250000, 8223.000000, 8203.000000, 8219.000000
1859, 195320272.000000, 1310.500000, 8184.000000, 8201.000000, 8201.000000
1860, 195320432.000000, 1274.750000, 8162.000000, 8200.000000, 8189.000000
1861, 195320592.000000, 1236.000000, 8156.000000, 8197.000000, 8184.000000
1862, 195320752.000000, 1199.250000, 8156.000000, 8191.000000, 8176.000000
1863, 195320912.000000, 1162.250000, 8160.000000, 8190.000000, 8176.000000
1864, 195321072.000000, 1124.000000, 8164.000000, 8194.000000, 8183.000000
1865, 195321232.000000, 1075.750000, 8169.000000, 8198.000000, 8190.000000
1866, 195321392.000000, 1018.250000, 8170.000000, 8194.000000, 8185.000000
1867, 195321552.000000, 948.500000, 8172.000000, 8187.000000, 8177.000000
1868, 195321712.000000, 915.750000, 8170.000000, 8182.000000, 8171.000000
1869, 195321872.000000, 1026.750000, 8171.000000, 8184.000000, 8175.000000
1870, 195322032.000000, 1392.500000, 8170.000000, 8186.000000, 8175.000000
1871, 195322192.000000, 1936.500000, 8171.000000, 8185.000000, 8176.000000
1872, 195322352.000000, 2473.500000, 8172.000000, 8179.000000, 8169.000000
1873, 195322512.000000, 2835.250000, 8172.000000, 8176.000000, 8166.000000
1874, 195322672.000000, 3001.000000, 8173.000000, 8182.000000, 8173.000000
1875, 195322832.000000, 2996.500000, 8184.000000, 8208.000000, 8216.000000
1876, 195322992.000000, 2888.500000, 8198.000000, 8219.000000, 8238.000000
1877, 195323152.000000, 2733.000000, 8195.000000, 8190.000000, 8193.000000
1878, 195323312.000000, 2567.250000, 8171.000000, 8169.000000, 8156.000000
1879, 195323472.000000, 2406.750000, 8170.000000, 8170.000000, 8155.000000
1880, 195323632.000000, 2247.500000, 8169.000000, 8176.000000, 8162.000000
1881, 195323792.000000, 2110.000000, 8181.000000, 8174.000000, 8156.000000
1882, 195323952.000000, 2025.500000, 8328.000000, 8152.000000, 8232.000000
1883, 195324112.000000, 2012.750000, 8144.000000, 7927.000000, 7902.000000
1884, 195324272.000000, 2040.250000, 8157.000000, 8147.000000, 8111.000000
1885, 195324432.000000, 2072.500000, 8185.000000, 8212.000000, 8207.000000
1886, 195324592.000000, 2086.000000, 8189.000000, 8218.000000, 8215.000000
1887, 195324752.000000, 2059.750000, 8195.000000, 8216.000000, 8215.000000
1888, 195324912.000000, 1991.500000, 8201.000000, 8217.000000, 8218.000000
1889, 195325072.000000, 1886.500000, 8210.000000, 8226.000000, 8233.000000
1890, 195325232.000000, 1766.250000, 8219.000000, 8234.000000, 8245.000000
1891, 195325392.000000, 1645.250000, 8226.000000, 8235.000000, 8249.000000
1892, 195325552.000000, 1530.000000, 8236.000000, 8233.000000, 8251.000000
1893, 195325712.000000, 1431.750000, 8250.000000, 8232.000000, 8256.000000
1894, 195325872.000000, 1341.500000, 8256.000000, 8229.000000, 8255.000000
1895, 195326032.000000, 1265.000000, 8258.000000, 8222.000000, 8251.000000
1896, 195326192.000000, 1200.750000, 8233.000000, 8208.000000, 8228.000000
1897, 195326352.000000, 1151.500000, 8193.000000, 8199.000000, 8203.000000
1898, 195326512.000000, 1110.750000, 8166.000000, 8195.000000, 8187.000000
1899, 195326672.000000, 1082.500000, 8157.000000, 8195.000000, 8183.000000
1900, 195326832.000000, 1057.500000, 8156.000000, 8199.000000, 8186.000000
1901, 195326992.000000, 1032.250000, 8158.000000, 8197.000000, 8184.000000
1902, 195327152.000000, 1000.500000, 8163.000000, 8192.000000, 8180.000000
1903, 195327312.000000, 960.500000, 8167.000000, 8190.000000, 8179.000000
1904, 195327472.000000, 911.250000, 8172.000000, 8194.000000, 8186.000000
1905, 195327632.000000, 852.000000, 8171.000000, 8196.000000, 8187.000000
1906, 195327792.000000, 797.250000, 8169.000000, 8192.000000, 8182.000000
1907, 195327952.000000, 801.750000, 8167.000000, 8183.000000, 8170.000000
1908, 195328112.000000, 987.000000, 8169.000000, 8180.000000, 8168.000000
1909, 195328272.000000, 1392.750000, 8169.000000, 8185.000000, 8173.000000
1910, 195328432.000000, 1932.250000, 8169.000000, 8188.000000, 8178.000000
1911, 195328592.000000, 2406.750000, 8171.000000, 8186.000000, 8177.000000
1912, 195328752.000000, 2711.500000, 8179.000000, 8196.000000, 8200.000000
1913, 195328912.000000, 2822.500000, 8187.000000, 8214.000000, 8230.000000
1914, 195329072.000000, 2798.000000, 8200.000000, 8214.000000, 8228.000000
1915, 195329232.000000, 2691.000000, 8186.000000, 8191.000000, 8190.000000
1916, 195329392.000000, 2551.750000, 8167.000000, 8175.000000, 8160.000000
1917, 195329552.000000, 2402.500000, 8167.000000, 8167.000000, 8150.000000
1918, 195329712.000000, 2244.000000, 8167.000000, 8166.000000, 8149.000000
1919, 195329872.000000, 2089.000000, 8228.000000, 8210.000000, 8223.000000
1920, 195330032.000000, 1965.250000, 8353.000000, 7886.000000, 7972.000000
1921, 195330192.000000, 1913.750000, 8101.000000, 8033.000000, 7960.000000
1922, 195330352.000000, 1923.000000, 8183.000000, 8202.000000, 8197.000000
1923, 195330512.000000, 1969.000000, 8188.000000, 8215.000000, 8212.000000
1924, 195330672.000000, 2012.250000, 8193.000000, 8225.000000, 8225.000000
1925, 195330832.000000, 2033.250000, 8197.000000, 8230.000000, 8232.000000
1926, 195330992.000000, 2010.750000, 8206.000000, 8230.000000, 8236.000000
1927, 195331152.000000, 1946.250000, 8213.000000, 8228.000000, 8237.000000
1928, 195331312.000000, 1849.500000, 8221.000000, 8233.000000, 8245.000000
1929, 195331472.000000, 1738.500000, 8230.000000, 8242.000000, 8260.000000
1930, 195331632.000000, 1626.000000, 8240.000000, 8248.000000, 8271.000000
1931, 195331792.000000, 1524.500000, 8249.000000, 8242.000000, 8269.000000
1932, 195331952.000000, 1435.250000, 8254.000000, 8230.000000, 8260.000000
1933, 195332112.000000, 1360.750000, 8247.000000, 8218.000000, 8246.000000
1934, 195332272.000000, 1302.250000, 8214.000000, 8214.000000, 8230.000000
1935, 195332432.000000, 1256.000000, 8180.000000, 8207.000000, 8208.000000
1936, 195332592.000000, 1218.500000, 8163.000000, 8197.000000, 8187.000000
1937, 195332752.000000, 1190.500000, 8157.000000, 8190.000000, 8176.000000
1938, 195332912.000000, 1169.750000, 8158.000000, 8190.000000, 8175.000000
1939, 195333072.000000, 1153.500000, 8162.000000, 8197.000000, 8186.000000
1940, 195333232.000000, 1140.250000, 8166.000000, 8200.000000, 8192.000000
1941, 195333392.000000, 1123.250000, 8167.000000, 8195.000000, 8184.000000
1942, 195333552.000000, 1091.750000, 8170.000000, 8188.000000, 8179.000000
1943, 195333712.000000, 1042.000000, 8170.000000, 8186.000000, 8175.000000
1944, 195333872.000000, 1014.500000, 8171.000000, 8189.000000, 8180.000000
1945, 195334032.000000, 1138.500000, 8169.000000, 8190.000000, 8180.000000
1946, 195334192.000000, 1502.750000, 8171.000000, 8185.000000, 8176.000000
1947, 195334352.000000, 2079.000000, 8171.000000, 8179.000000, 8168.000000
1948, 195334512.000000, 2660.250000, 8172.000000, 8180.000000, 8170.000000
1949, 195334672.000000, 3086.000000, 8174.000000, 8187.000000, 8180.000000
1950, 195334832.000000, 3288.750000, 8187.000000, 8216.000000, 8230.000000
1951, 195334992.000000, 3316.500000, 8204.000000, 8229.000000, 8258.000000
1952, 195335152.000000, 3234.750000, 8197.000000, 8195.000000, 8203.000000
1953, 195335312.000000, 3103.750000, 8171.000000, 8171.000000, 8158.000000
1954, 195335472.000000, 2962.250000, 8169.000000, 8173.000000, 8157.000000
1955, 195335632.000000, 2817.000000, 8168.000000, 8175.000000, 8160.000000
1956, 195335792.000000, 2665.250000, 8176.000000, 8164.000000, 8139.000000
1957, 195335952.000000, 2519.000000, 8308.000000, 8101.000000, 8173.000000
1958, 195336112.000000, 2419.750000, 8159.000000, 7880.000000, 7847.000000
1959, 195336272.000000, 2381.500000, 8163.000000, 8165.000000, 8135.000000
1960, 195336432.000000, 2393.250000, 8184.000000, 8219.000000, 8215.000000
1961, 195336592.000000, 2420.000000, 8188.000000, 8223.000000, 8220.000000
1962, 195336752.000000, 2440.250000, 8194.000000, 8219.000000, 8216.000000
1963, 195336912.000000, 2429.750000, 8201.000000, 8223.000000, 8224.000000
1964, 195337072.000000, 2377.750000, 8208.000000, 8232.000000, 8238.000000
1965, 195337232.000000, 2292.750000, 8216.000000, 8237.000000, 8248.000000
1966, 195337392.000000, 2181.750000, 8222.000000, 8236.000000, 8249.000000
1967, 195337552.000000, 2055.500000, 8233.000000, 8235.000000, 8253.000000
1968, 195337712.000000, 1933.000000, 8244.000000, 8238.000000, 8262.000000
1969, 195337872.000000, 1818.500000, 8252.000000, 8238.000000, 8267.000000
1970, 195338032.000000, 1719.250000, 8251.000000, 8232.000000, 8262.000000
1971, 195338192.000000, 1641.000000, 8231.000000, 8216.000000, 8239.000000
1972, 195338352.000000, 1587.750000, 8195.000000, 8203.000000, 8210.000000
1973, 195338512.000000, 1548.000000, 8167.000000, 8198.000000, 8189.000000
1974, 195338672.000000, 1518.750000, 8156.000000, 8199.000000, 8186.000000
1975, 195338832.000000, 1493.750000, 8157.000000, 8198.000000, 8184.000000
1976, 195338992.000000, 1472.250000, 8158.000000, 8196.000000, 8181.000000
1977, 195339152.000000, 1448.750000, 8162.000000, 8192.000000, 8179.000000
1978, 195339312.000000, 1419.500000, 8166.000000, 8193.000000, 8183.000000
1979, 195339472.000000, 1378.250000, 8167.000000, 8196.000000, 8185.000000
1980, 195339632.000000, 1323.000000, 8168.000000, 8196.000000, 8187.000000
1981, 195339792.000000, 1269.250000, 8167.000000, 8190.000000, 8179.000000
1982, 195339952.000000, 1281.250000, 8169.000000, 8183.000000, 8171.000000
1983, 195340112.000000, 1492.000000, 8168.000000, 8183.000000, 8172.000000
1984, 195340272.000000, 1942.000000, 8168.000000, 8188.000000, 8177.000000
1985, 195340432.000000, 2513.500000, 8168.000000, 8189.000000, 8178.000000
1986, 195340592.000000, 3013.750000, 8168.000000, 8184.000000, 8173.000000
1987, 195340752.000000, 3321.750000, 8177.000000, 8195.000000, 8196.000000
1988, 195340912.000000, 3431.750000, 8186.000000, 8213.000000, 8228.000000
1989, 195341072.000000, 3407.000000, 8202.000000, 8220.000000, 8236.000000
1990, 195341232.000000, 3302.500000, 8183.000000, 8193.000000, 8190.000000
1991, 195341392.000000, 3165.750000, 8166.000000, 8174.000000, 8158.000000
1992, 195341552.000000, 3025.000000, 8165.000000, 8168.000000, 8151.000000
1993, 195341712.000000, 2872.000000, 8167.000000, 8170.000000, 8153.000000
1994, 195341872.000000, 2716.750000, 8214.000000, 8215.000000, 8221.000000
1995, 195342032.000000, 2589.500000, 8371.000000, 7943.000000, 8039.000000
1996, 195342192.000000, 2523.750000, 8096.000000, 8017.000000, 7944.000000
1997, 195342352.000000, 2512.250000, 8179.000000, 8193.000000, 8182.000000
1998, 195342512.000000, 2529.750000, 8184.000000, 8212.000000, 8206.000000
1999, 195342672.000000, 2544.500000, 8189.000000, 8223.000000, 8220.000000
2000, 195342832.000000, 2541.250000, 8196.000000, 8226.000000, 8226.000000
2001, 195342992.000000, 2501.750000, 8200.000000, 8224.000000, 8226.000000
2002, 195343152.000000, 2424.250000, 8209.000000, 8223.000000, 8229.000000
2003, 195343312.000000, 2319.000000, 8220.000000, 8228.000000, 8238.000000
2004, 195343472.000000, 2194.750000, 8229.000000, 8237.000000, 8253.000000
2005, 195343632.000000, 2066.500000, 8240.000000, 8238.000000, 8259.000000
2006, 195343792.000000, 1944.750000, 8248.000000, 8230.000000, 8254.000000
2007, 195343952.000000, 1840.500000, 8254.000000, 8220.000000, 8246.000000
2008, 195344112.000000, 1753.750000, 8248.000000, 8213.000000, 8239.000000
2009, 195344272.000000, 1686.250000, 8215.000000, 8213.000000, 8227.000000
2010, 195344432.000000, 1632.250000, 8179.000000, 8207.000000, 8207.000000
2011, 195344592.000000, 1585.750000, 8160.000000, 8196.000000, 8184.000000
2012, 195344752.000000, 1546.500000, 8154.000000, 8190.000000, 8174.000000
2013, 195344912.000000, 1516.000000, 8155.000000, 8192.000000, 8177.000000
2014, 195345072.000000, 1486.000000, 8161.000000, 8199.000000, 8188.000000
2015, 195345232.000000, 1454.250000, 8166.000000, 8199.000000, 8191.000000
2016, 195345392.000000, 1415.250000, 8169.000000, 8193.000000, 8185.000000
2017, 195345552.000000, 1364.000000, 8170.000000, 8187.000000, 8178.000000
2018, 195345712.000000, 1299.750000, 8170.000000, 8187.000000, 8178.000000
2019, 195345872.000000, 1242.000000, 8170.000000, 8190.000000, 8181.000000
2020, 195346032.000000, 1271.750000, 8170.000000, 8189.000000, 8180.000000
2021, 195346192.000000, 1496.250000, 8169.000000, 8182.000000, 8172.000000
2022, 195346352.000000, 1950.750000, 8168.000000, 8177.000000, 8166.000000
2023, 195346512.000000, 2484.250000, 8172.000000, 8186.000000, 8180.000000
2024, 195346672.000000, 2927.750000, 8181.000000, 8209.000000, 8219.000000
2025, 195346832.000000, 3175.250000, 8198.000000, 8222.000000, 8241.000000
2026, 195346992.000000, 3245.750000, 8188.000000, 8187.000000, 8187.000000
2027, 195347152.000000, 3185.000000, 8165.000000, 8166.000000, 8149.000000
2028, 195347312.000000, 3058.000000, 8165.000000, 8167.000000, 8150.000000
2029, 195347472.000000, 2909.500000, 8166.000000, 8172.000000, 8156.000000
2030, 195347632.000000, 2753.750000, 8189.000000, 8189.000000, 8180.000000
2031, 195347792.000000, 2588.000000, 8349.000000, 8072.000000, 8164.000000
2032, 195347952.000000, 2423.500000, 8091.000000, 7955.000000, 7901.000000
2033, 195348112.000000, 2306.000000, 8166.000000, 8165.000000, 8141.000000
2034, 195348272.000000, 2259.500000, 8180.000000, 8209.000000, 8202.000000
2035, 195348432.000000, 2272.500000, 8188.000000, 8214.000000, 8209.000000
2036, 195348592.000000, 2308.500000, 8194.000000, 8212.000000, 8209.000000
2037, 195348752.000000, 2335.500000, 8202.000000, 8213.000000, 8213.000000
2038, 195348912.000000, 2326.500000, 8210.000000, 8222.000000, 8227.000000
2039, 195349072.000000, 2269.250000, 8219.000000, 8229.000000, 8240.000000
2040, 195349232.000000, 2169.500000, 8229.000000, 8233.000000, 8247.000000
2041, 195349392.000000, 2039.250000, 8239.000000, 8230.000000, 8248.000000
2042, 195349552.000000, 1902.500000, 8251.000000, 8223.000000, 8245.000000
2043, 195349712.000000, 1771.500000, 8259.000000, 8219.000000, 8245.000000
2044, 195349872.000000, 1654.750000, 8256.000000, 8212.000000, 8238.000000
2045, 195350032.000000, 1553.000000, 8223.000000, 8205.000000, 8221.000000
2046, 195350192.000000, 1474.000000, 8181.000000, 8200.000000, 8200.000000
2047, 195350352.000000, 1412.750000, 8162.000000, 8193.000000, 8184.000000
2048, 195350512.000000, 1367.000000, 8155.000000, 8194.000000, 8181.000000
2049, 195350672.000000, 1333.000000, 8155.000000, 8199.000000, 8186.000000
2050, 195350832.000000, 1302.250000, 8159.000000, 8200.000000, 8189.000000
2051, 195350992.000000, 1270.250000, 8165.000000, 8195.000000, 8186.000000
2052, 195351152.000000, 1229.500000, 8169.000000, 8191.000000, 8183.000000
2053, 195351312.000000, 1177.750000, 8171.000000, 8193.000000, 8186.000000
2054, 195351472.000000, 1112.750000, 8171.000000, 8196.000000, 8189.000000
2055, 195351632.000000, 1041.000000, 8170.000000, 8191.000000, 8182.000000
2056, 195351792.000000, 1003.500000, 8168.000000, 8184.000000, 8173.000000
2057, 195351952.000000, 1105.000000, 8168.000000, 8180.000000, 8169.000000
2058, 195352112.000000, 1408.500000, 8170.000000, 8183.000000, 8172.000000
2059, 195352272.000000, 1877.750000, 8174.000000, 8192.000000, 8187.000000
2060, 195352432.000000, 2343.250000, 8183.000000, 8214.000000, 8225.000000
2061, 195352592.000000, 2678.750000, 8199.000000, 8224.000000, 8248.000000
2062, 195352752.000000, 2829.000000, 8193.000000, 8192.000000, 8196.000000
2063, 195352912.000000, 2832.750000, 8168.000000, 8172.000000, 8159.000000
2064, 195353072.000000, 2741.000000, 8167.000000, 8174.000000, 8159.000000
2065, 195353232.000000, 2597.500000, 8167.000000, 8173.000000, 8158.000000
2066, 195353392.000000, 2436.750000, 8179.000000, 8168.000000, 8147.000000
2067, 195353552.000000, 2264.250000, 8318.000000, 8072.000000, 8151.000000
2068, 195353712.000000, 2095.000000, 8111.000000, 7906.000000, 7855.000000
2069, 195353872.000000, 1964.250000, 8166.000000, 8172.000000, 8148.000000
2070, 195354032.000000, 1906.750000, 8183.000000, 8215.000000, 8210.000000
2071, 195354192.000000, 1914.750000, 8186.000000, 8217.000000, 8212.000000
2072, 195354352.000000, 1957.500000, 8194.000000, 8218.000000, 8215.000000
2073, 195354512.000000, 1995.000000, 8200.000000, 8225.000000, 8227.000000
2074, 195354672.000000, 2011.000000, 8208.000000, 8233.000000, 8239.000000
2075, 195354832.000000, 1984.500000, 8216.000000, 8236.000000, 8247.000000
2076, 195354992.000000, 1912.500000, 8225.000000, 8234.000000, 8249.000000
2077, 195355152.000000, 1815.000000, 8236.000000, 8237.000000, 8257.000000
2078, 195355312.000000, 1703.250000, 8248.000000, 8240.000000, 8266.000000
2079, 195355472.000000, 1594.500000, 8256.000000, 8237.000000, 8267.000000
2080, 195355632.000000, 1494.500000, 8253.000000, 8224.000000, 8254.000000
2081, 195355792.000000, 1407.250000, 8228.000000, 8208.000000, 8229.000000
2082, 195355952.000000, 1336.500000, 8189.000000, 8200.000000, 8205.000000
2083, 195356112.000000, 1283.500000, 8167.000000, 8198.000000, 8191.000000
2084, 195356272.000000, 1241.750000, 8160.000000, 8198.000000, 8188.000000
2085, 195356432.000000, 1208.500000, 8158.000000, 8196.000000, 8183.000000
2086, 195356592.000000, 1185.250000, 8160.000000, 8191.000000, 8179.000000
2087, 195356752.000000, 1166.000000, 8165.000000, 8191.000000, 8182.000000
2088, 195356912.000000, 1147.750000, 8169.000000, 8195.000000, 8187.000000
2089, 195357072.000000, 1125.000000, 8171.000000, 8197.000000, 8190.000000
2090, 195357232.000000, 1090.000000, 8172.000000, 8192.000000, 8186.000000
2091, 195357392.000000, 1045.000000, 8171.000000, 8185.000000, 8176.000000
2092, 195357552.000000, 1041.500000, 8171.000000, 8181.000000, 8172.000000
2093, 195357712.000000, 1183.750000, 8170.000000, 8185.000000, 8174.000000
2094, 195357872.000000, 1568.000000, 8172.000000, 8188.000000, 8180.000000
2095, 195358032.000000, 2099.750000, 8171.000000, 8186.000000, 8177.000000
2096, 195358192.000000, 2609.250000, 8172.000000, 8180.000000, 8170.000000
2097, 195358352.000000, 2946.000000, 8186.000000, 8206.000000, 8217.000000
2098, 195358512.000000, 3094.000000, 8201.000000, 8231.000000, 8260.000000
2099, 195358672.000000, 3089.000000, 8199.000000, 8205.000000, 8215.000000
2100, 195358832.000000, 2995.250000, 8172.000000, 8178.000000, 8166.000000
2101, 195358992.000000, 2869.000000, 8168.000000, 8168.000000, 8151.000000
2102, 195359152.000000, 2739.000000, 8168.000000, 8165.000000, 8148.000000
2103, 195359312.000000, 2605.750000, 8176.000000, 8165.000000, 8142.000000
2104, 195359472.000000, 2462.250000, 8288.000000, 8148.000000, 8207.000000
2105, 195359632.000000, 2335.000000, 8227.000000, 7856.000000, 7860.000000
2106, 195359792.000000, 2262.500000, 8154.000000, 8141.000000, 8101.000000
2107, 195359952.000000, 2247.750000, 8185.000000, 8210.000000, 8205.000000
2108, 195360112.000000, 2260.250000, 8188.000000, 8222.000000, 8217.000000
2109, 195360272.000000, 2275.250000, 8196.000000, 8228.000000, 8228.000000
2110, 195360432.000000, 2266.750000, 8200.000000, 8228.000000, 8230.000000
2111, 195360592.000000, 2228.750000, 8207.000000, 8225.000000, 8230.000000
2112, 195360752.000000, 2156.250000, 8214.000000, 8228.000000, 8236.000000
2113, 195360912.000000, 2057.000000, 8223.000000, 8237.000000, 8249.000000
2114, 195361072.000000, 1942.750000, 8234.000000, 8244.000000, 8263.000000
2115, 195361232.000000, 1824.500000, 8245.000000, 8241.000000, 8265.000000
2116, 195361392.000000, 1716.250000, 8253.000000, 8231.000000, 8257.000000
2117, 195361552.000000, 1620.500000, 8254.000000, 8223.000000, 8253.000000
2118, 195361712.000000, 1541.250000, 8234.000000, 8218.000000, 8241.000000
2119, 195361872.000000, 1480.000000, 8198.000000, 8213.000000, 8222.000000
2120, 195362032.000000, 1437.500000, 8170.000000, 8200.000000, 8193.000000
2121, 195362192.000000, 1408.750000, 8160.000000, 8191.000000, 8177.000000
2122, 195362352.000000, 1387.000000, 8158.000000, 8189.000000, 8174.000000
2123, 195362512.000000, 1372.250000, 8161.000000, 8195.000000, 8182.000000
2124, 195362672.000000, 1353.250000, 8164.000000, 8199.000000, 8188.000000
2125, 195362832.000000, 1327.750000, 8168.000000, 8196.000000, 8187.000000
2126, 195362992.000000, 1290.250000, 8169.000000, 8190.000000, 8180.000000
2127, 195363152.000000, 1240.000000, 8172.000000, 8187.000000, 8179.000000
2128, 195363312.000000, 1182.500000, 8171.000000, 8190.000000, 8181.000000
2129, 195363472.000000, 1163.000000, 8172.000000, 8190.000000, 8182.000000
2130, 195363632.000000, 1278.500000, 8172.000000, 8186.000000, 8176.000000
2131, 195363792.000000, 1632.500000, 8172.000000, 8179.000000, 8169.000000
2132, 195363952.000000, 2167.750000, 8172.000000, 8179.000000, 8169.000000
2133, 195364112.000000, 2704.750000, 8174.000000, 8184.000000, 8175.000000
2134, 195364272.000000, 3083.250000, 8175.000000, 8187.000000, 8179.000000
2135, 195364432.000000, 3261.750000, 8173.000000, 8184.000000, 8173.000000
2136, 195364592.000000, 3279.000000, 8174.000000, 8178.000000, 8167.000000
2137, 195364752.000000, 3199.750000, 8183.000000, 8197.000000, 8202.000000
2138, 195364912.000000, 3081.000000, 8193.000000, 8220.000000, 8240.000000
2139, 195365072.000000, 2962.250000, 8203.000000, 8213.000000, 8227.000000
2140, 195365232.000000, 2839.000000, 8185.000000, 8186.000000, 8181.000000
2141, 195365392.000000, 2699.500000, 8171.000000, 8169.000000, 8154.000000
2142, 195365552.000000, 2561.000000, 8170.000000, 8168.000000, 8151.000000
2143, 195365712.000000, 2461.500000, 8170.000000, 8174.000000, 8157.000000
2144, 195365872.000000, 2416.500000, 8234.000000, 8206.000000, 8221.000000
2145, 195366032.000000, 2410.500000, 8376.000000, 7873.000000, 7963.000000
2146, 195366192.000000, 2414.000000, 8108.000000, 8045.000000, 7970.000000
2147, 195366352.000000, 2402.000000, 8185.000000, 8204.000000, 8199.000000
2148, 195366512.000000, 2356.750000, 8187.000000, 8224.000000, 8222.000000
2149, 195366672.000000, 2285.750000, 8193.000000, 8230.000000, 8230.000000
2150, 195366832.000000, 2183.000000, 8198.000000, 8227.000000, 8228.000000
2151, 195366992.000000, 2065.750000, 8206.000000, 8225.000000, 8229.000000
2152, 195367152.000000, 1942.500000, 8213.000000, 8229.000000, 8236.000000
2153, 195367312.000000, 1826.250000, 8222.000000, 8238.000000, 8251.000000
2154, 195367472.000000, 1723.500000, 8230.000000, 8243.000000, 8261.000000
2155, 195367632.000000, 1640.750000, 8241.000000, 8241.000000, 8263.000000
2156, 195367792.000000, 1576.750000, 8249.000000, 8234.000000, 8259.000000
2157, 195367952.000000, 1527.500000, 8253.000000, 8228.000000, 8254.000000
2158, 195368112.000000, 1490.000000, 8247.000000, 8225.000000, 8251.000000
2159, 195368272.000000, 1458.750000, 8218.000000, 8219.000000, 8237.000000
2160, 195368432.000000, 1436.250000, 8182.000000, 8206.000000, 8206.000000
2161, 195368592.000000, 1411.750000, 8163.000000, 8194.000000, 8182.000000
2162, 195368752.000000, 1387.000000, 8159.000000, 8192.000000, 8179.000000
2163, 195368912.000000, 1352.750000, 8161.000000, 8198.000000, 8185.000000
2164, 195369072.000000, 1318.750000, 8164.000000, 8200.000000, 8189.000000
2165, 195369232.000000, 1273.000000, 8167.000000, 8196.000000, 8185.000000
2166, 195369392.000000, 1226.250000, 8168.000000, 8190.000000, 8181.000000
2167, 195369552.000000, 1173.750000, 8171.000000, 8189.000000, 8180.000000
2168, 195369712.000000, 1117.500000, 8172.000000, 8192.000000, 8184.000000
2169, 195369872.000000, 1097.500000, 8171.000000, 8192.000000, 8183.000000
2170, 195370032.000000, 1268.750000, 8171.000000, 8186.000000, 8177.000000
2171, 195370192.000000, 1771.250000, 8171.000000, 8180.000000, 8171.000000
2172, 195370352.000000, 2348.000000, 8171.000000, 8180.000000, 8169.000000
2173, 195370512.000000, 2846.750000, 8171.000000, 8185.000000, 8176.000000
2174, 195370672.000000, 3160.500000, 8173.000000, 8186.000000, 8177.000000
2175, 195370832.000000, 3268.250000, 8172.000000, 8181.000000, 8171.000000
2176, 195370992.000000, 3211.500000, 8172.000000, 8178.000000, 8168.000000
2177, 195371152.000000, 3059.500000, 8180.000000, 8191.000000, 8192.000000
2178, 195371312.000000, 2900.750000, 8187.000000, 8214.000000, 8228.000000
2179, 195371472.000000, 2761.500000, 8201.000000, 8211.000000, 8222.000000
2180, 195371632.000000, 2603.500000, 8187.000000, 8184.000000, 8182.000000
2181, 195371792.000000, 2466.250000, 8168.000000, 8168.000000, 8153.000000
2182, 195371952.000000, 2366.250000, 8169.000000, 8168.000000, 8152.000000
2183, 195372112.000000, 2321.500000, 8170.000000, 8175.000000, 8160.000000
2184, 195372272.000000, 2314.250000, 8221.000000, 8220.000000, 8232.000000
2185, 195372432.000000, 2305.500000, 8375.000000, 7983.000000, 8084.000000
2186, 195372592.000000, 2280.750000, 8102.000000, 8007.000000, 7946.000000
2187, 195372752.000000, 2225.250000, 8180.000000, 8187.000000, 8176.000000
2188, 195372912.000000, 2134.000000, 8187.000000, 8214.000000, 8210.000000
2189, 195373072.000000, 2022.750000, 8191.000000, 8220.000000, 8217.000000
2190, 195373232.000000, 1897.500000, 8197.000000, 8218.000000, 8218.000000
2191, 195373392.000000, 1773.750000, 8205.000000, 8217.000000, 8219.000000
2192, 195373552.000000, 1654.500000, 8213.000000, 8223.000000, 8230.000000
2193, 195373712.000000, 1545.750000, 8221.000000, 8231.000000, 8243.000000
2194, 195373872.000000, 1447.500000, 8231.000000, 8234.000000, 8249.000000
2195, 195374032.000000, 1367.500000, 8241.000000, 8231.000000, 8249.000000
2196, 195374192.000000, 1307.500000, 8251.000000, 8222.000000, 8244.000000
2197, 195374352.000000, 1258.750000, 8258.000000, 8217.000000, 8242.000000
2198, 195374512.000000, 1219.500000, 8252.000000, 8212.000000, 8237.000000
2199, 195374672.000000, 1190.500000, 8218.000000, 8208.000000, 8224.000000
2200, 195374832.000000, 1162.250000, 8181.000000, 8203.000000, 8203.000000
2201, 195374992.000000, 1128.500000, 8160.000000, 8192.000000, 8182.000000
2202, 195375152.000000, 1091.000000, 8154.000000, 8193.000000, 8179.000000
2203, 195375312.000000, 1046.250000, 8155.000000, 8198.000000, 8185.000000
2204, 195375472.000000, 992.750000, 8161.000000, 8200.000000, 8189.000000
2205, 195375632.000000, 935.500000, 8167.000000, 8196.000000, 8187.000000
2206, 195375792.000000, 871.250000, 8171.000000, 8191.000000, 8184.000000
2207, 195375952.000000, 806.250000, 8173.000000, 8192.000000, 8185.000000
2208, 195376112.000000, 746.500000, 8173.000000, 8195.000000, 8188.000000
2209, 195376272.000000, 768.250000, 8171.000000, 8192.000000, 8185.000000
2210, 195376432.000000, 963.000000, 8169.000000, 8185.000000, 8175.000000
2211, 195376592.000000, 1357.000000, 8169.000000, 8179.000000, 8169.000000
2212, 195376752.000000, 1828.500000, 8170.000000, 8182.000000, 8171.000000
2213, 195376912.000000, 2222.250000, 8170.000000, 8186.000000, 8177.000000
2214, 195377072.000000, 2437.000000, 8172.000000, 8187.000000, 8179.000000
2215, 195377232.000000, 2486.750000, 8172.000000, 8182.000000, 8174.000000
2216, 195377392.000000, 2421.750000, 8174.000000, 8178.000000, 8169.000000
2217, 195377552.000000, 2301.750000, 8182.000000, 8199.000000, 8205.000000
2218, 195377712.000000, 2167.500000, 8192.000000, 8222.000000, 8241.000000
2219, 195377872.000000, 2030.000000, 8201.000000, 8210.000000, 8221.000000
2220, 195378032.000000, 1885.750000, 8185.000000, 8183.000000, 8180.000000
2221, 195378192.000000, 1747.250000, 8171.000000, 8169.000000, 8156.000000
2222, 195378352.000000, 1648.750000, 8170.000000, 8172.000000, 8157.000000
2223, 195378512.000000, 1614.750000, 8170.000000, 8177.000000, 8162.000000
2224, 195378672.000000, 1626.500000, 8239.000000, 8211.000000, 8233.000000
2225, 195378832.000000, 1653.500000, 8359.000000, 7876.000000, 7958.000000
2226, 195378992.000000, 1667.000000, 8112.000000, 8052.000000, 7984.000000
2227, 195379152.000000, 1647.750000, 8184.000000, 8207.000000, 8203.000000
2228, 195379312.000000, 1591.000000, 8187.000000, 8225.000000, 8223.000000
2229, 195379472.000000, 1508.000000, 8194.000000, 8229.000000, 8231.000000
2230, 195379632.000000, 1404.500000, 8198.000000, 8225.000000, 8226.000000
2231, 195379792.000000, 1301.500000, 8205.000000, 8226.000000, 8230.000000
2232, 195379952.000000, 1201.500000, 8213.000000, 8232.000000, 8241.000000
2233, 195380112.000000, 1115.500000, 8224.000000, 8241.000000, 8257.000000
2234, 195380272.000000, 1046.250000, 8232.000000, 8244.000000, 8262.000000
2235, 195380432.000000, 991.000000, 8242.000000, 8240.000000, 8264.000000
2236, 195380592.000000, 946.000000, 8252.000000, 8234.000000, 8261.000000
2237, 195380752.000000, 912.250000, 8256.000000, 8230.000000, 8260.000000
2238, 195380912.000000, 888.750000, 8248.000000, 8223.000000, 8253.000000
2239, 195381072.000000, 875.000000, 8212.000000, 8214.000000, 8230.000000
2240, 195381232.000000, 864.250000, 8180.000000, 8201.000000, 8202.000000
2241, 195381392.000000, 850.750000, 8163.000000, 8191.000000, 8181.000000
2242, 195381552.000000, 836.000000, 8157.000000, 8193.000000, 8179.000000
2243, 195381712.000000, 813.250000, 8160.000000, 8198.000000, 8186.000000
2244, 195381872.000000, 783.250000, 8164.000000, 8199.000000, 8190.000000
2245, 195382032.000000, 746.250000, 8167.000000, 8194.000000, 8185.000000
2246, 195382192.000000, 710.500000, 8169.000000, 8190.000000, 8180.000000
2247, 195382352.000000, 672.250000, 8173.000000, 8193.000000, 8186.000000
2248, 195382512.000000, 647.750000, 8173.000000, 8195.000000, 8188.000000
2249, 195382672.000000, 721.750000, 8172.000000, 8191.000000, 8183.000000
2250, 195382832.000000, 982.500000, 8172.000000, 8183.000000, 8173.000000
2251, 195382992.000000, 1430.000000, 8172.000000, 8180.000000, 8170.000000
2252, 195383152.000000, 1908.000000, 8171.000000, 8183.000000, 8172.000000
2253, 195383312.000000, 2266.500000, 8171.000000, 8187.000000, 8178.000000
2254, 195383472.000000, 2432.750000, 8173.000000, 8186.000000, 8177.000000
2255, 195383632.000000, 2452.000000, 8172.000000, 8181.000000, 8171.000000
2256, 195383792.000000, 2379.500000, 8175.000000, 8178.000000, 8170.000000
2257, 195383952.000000, 2269.000000, 8175.000000, 8181.000000, 8173.000000
2258, 195384112.000000, 2165.750000, 8183.000000, 8203.000000, 8208.000000
2259, 195384272.000000, 2069.500000, 8193.000000, 8219.000000, 8237.000000
2260, 195384432.000000, 1971.250000, 8201.000000, 8204.000000, 8213.000000
2261, 195384592.000000, 1871.250000, 8187.000000, 8181.000000, 8177.000000
2262, 195384752.000000, 1799.500000, 8171.000000, 8174.000000, 8161.000000
2263, 195384912.000000, 1777.500000, 8169.000000, 8178.000000, 8164.000000
2264, 195385072.000000, 1791.750000, 8170.000000, 8177.000000, 8162.000000
2265, 195385232.000000, 1815.250000, 8222.000000, 8203.000000, 8212.000000
2266, 195385392.000000, 1827.750000, 8368.000000, 7885.000000, 7977.000000
2267, 195385552.000000, 1814.750000, 8100.000000, 8031.000000, 7957.000000
2268, 195385712.000000, 1770.500000, 8186.000000, 8214.000000, 8213.000000
2269, 195385872.000000, 1707.500000, 8186.000000, 8226.000000, 8225.000000
2270, 195386032.000000, 1629.000000, 8190.000000, 8224.000000, 8222.000000
2271, 195386192.000000, 1547.750000, 8199.000000, 8224.000000, 8226.000000
2272, 195386352.000000, 1468.750000, 8206.000000, 8231.000000, 8237.000000
2273, 195386512.000000, 1397.500000, 8212.000000, 8238.000000, 8248.000000
2274, 195386672.000000, 1337.500000, 8218.000000, 8240.000000, 8252.000000
2275, 195386832.000000, 1287.250000, 8228.000000, 8239.000000, 8256.000000
2276, 195386992.000000, 1245.500000, 8239.000000, 8239.000000, 8261.000000
2277, 195387152.000000, 1220.000000, 8250.000000, 8241.000000, 8269.000000
2278, 195387312.000000, 1202.500000, 8256.000000, 8240.000000, 8272.000000
2279, 195387472.000000, 1188.750000, 8250.000000, 8228.000000, 8260.000000
2280, 195387632.000000, 1179.000000, 8218.000000, 8212.000000, 8230.000000
2281, 195387792.000000, 1164.500000, 8183.000000, 8201.000000, 8202.000000
2282, 195387952.000000, 1146.000000, 8165.000000, 8199.000000, 8190.000000
2283, 195388112.000000, 1123.250000, 8158.000000, 8199.000000, 8186.000000
2284, 195388272.000000, 1094.250000, 8157.000000, 8197.000000, 8183.000000
2285, 195388432.000000, 1066.250000, 8161.000000, 8193.000000, 8180.000000
2286, 195388592.000000, 1040.250000, 8166.000000, 8192.000000, 8182.000000
2287, 195388752.000000, 1014.000000, 8168.000000, 8196.000000, 8187.000000
2288, 195388912.000000, 979.750000, 8171.000000, 8198.000000, 8191.000000
2289, 195389072.000000, 951.000000, 8172.000000, 8194.000000, 8186.000000
2290, 195389232.000000, 994.750000, 8173.000000, 8186.000000, 8177.000000
2291, 195389392.000000, 1211.250000, 8170.000000, 8182.000000, 8171.000000
2292, 195389552.000000, 1620.500000, 8173.000000, 8186.000000, 8177.000000
2293, 195389712.000000, 2084.250000, 8173.000000, 8188.000000, 8179.000000
2294, 195389872.000000, 2437.500000, 8172.000000, 8186.000000, 8176.000000
2295, 195390032.000000, 2613.000000, 8172.000000, 8180.000000, 8168.000000
2296, 195390192.000000, 2636.500000, 8171.000000, 8179.000000, 8168.000000
2297, 195390352.000000, 2561.500000, 8173.000000, 8184.000000, 8173.000000
2298, 195390512.000000, 2450.500000, 8175.000000, 8188.000000, 8180.000000
2299, 195390672.000000, 2338.750000, 8179.000000, 8197.000000, 8197.000000
2300, 195390832.000000, 2241.250000, 8186.000000, 8210.000000, 8223.000000
2301, 195390992.000000, 2149.750000, 8200.000000, 8207.000000, 8219.000000
2302, 195391152.000000, 2057.000000, 8191.000000, 8189.000000, 8189.000000
2303, 195391312.000000, 1986.500000, 8172.000000, 8180.000000, 8168.000000
2304, 195391472.000000, 1958.000000, 8169.000000, 8176.000000, 8162.000000
2305, 195391632.000000, 1969.750000, 8169.000000, 8171.000000, 8155.000000
2306, 195391792.000000, 1995.750000, 8200.000000, 8199.000000, 8194.000000
2307, 195391952.000000, 2014.000000, 8368.000000, 7971.000000, 8069.000000
2308, 195392112.000000, 2012.250000, 8091.000000, 7990.000000, 7920.000000
2309, 195392272.000000, 1984.500000, 8179.000000, 8200.000000, 8191.000000
2310, 195392432.000000, 1930.250000, 8183.000000, 8215.000000, 8210.000000
2311, 195392592.000000, 1855.500000, 8189.000000, 8219.000000, 8216.000000
2312, 195392752.000000, 1770.500000, 8194.000000, 8226.000000, 8226.000000
2313, 195392912.000000, 1690.500000, 8202.000000, 8233.000000, 8237.000000
2314, 195393072.000000, 1616.250000, 8209.000000, 8233.000000, 8241.000000
2315, 195393232.000000, 1553.250000, 8217.000000, 8230.000000, 8240.000000
2316, 195393392.000000, 1498.000000, 8226.000000, 8232.000000, 8246.000000
2317, 195393552.000000, 1455.750000, 8238.000000, 8240.000000, 8260.000000
2318, 195393712.000000, 1426.500000, 8247.000000, 8240.000000, 8264.000000
2319, 195393872.000000, 1409.000000, 8253.000000, 8233.000000, 8259.000000
2320, 195394032.000000, 1399.000000, 8250.000000, 8219.000000, 8245.000000
2321, 195394192.000000, 1390.500000, 8223.000000, 8208.000000, 8224.000000
2322, 195394352.000000, 1380.500000, 8186.000000, 8208.000000, 8211.000000
2323, 195394512.000000, 1360.500000, 8163.000000, 8204.000000, 8194.000000
2324, 195394672.000000, 1333.000000, 8155.000000, 8197.000000, 8182.000000
2325, 195394832.000000, 1303.250000, 8154.000000, 8191.000000, 8175.000000
2326, 195394992.000000, 1274.250000, 8159.000000, 8190.000000, 8177.000000
2327, 195395152.000000, 1242.500000, 8164.000000, 8196.000000, 8185.000000
2328, 195395312.000000, 1209.250000, 8165.000000, 8200.000000, 8191.000000
2329, 195395472.000000, 1171.750000, 8169.000000, 8193.000000, 8185.000000
2330, 195395632.000000, 1130.000000, 8170.000000, 8186.000000, 8175.000000
2331, 195395792.000000, 1113.750000, 8169.000000, 8183.000000, 8173.000000
2332, 195395952.000000, 1226.500000, 8169.000000, 8185.000000, 8175.000000
2333, 195396112.000000, 1519.000000, 8168.000000, 8186.000000, 8175.000000
2334, 195396272.000000, 1946.750000, 8168.000000, 8182.000000, 8171.000000
2335, 195396432.000000, 2333.250000, 8167.000000, 8177.000000, 8164.000000
2336, 195396592.000000, 2572.000000, 8168.000000, 8177.000000, 8164.000000
2337, 195396752.000000, 2642.750000, 8170.000000, 8182.000000, 8171.000000
2338, 195396912.000000, 2599.000000, 8179.000000, 8201.000000, 8205.000000
2339, 195397072.000000, 2492.000000, 8190.000000, 8217.000000, 8233.000000
2340, 195397232.000000, 2372.750000, 8196.000000, 8197.000000, 8203.000000
2341, 195397392.000000, 2261.250000, 8178.000000, 8176.000000, 8168.000000
2342, 195397552.000000, 2154.750000, 8169.000000, 8172.000000, 8158.000000
2343, 195397712.000000, 2044.250000, 8169.000000, 8175.000000, 8161.000000
2344, 195397872.000000, 1944.750000, 8168.000000, 8171.000000, 8154.000000
2345, 195398032.000000, 1890.500000, 8258.000000, 8219.000000, 8254.000000
2346, 195398192.000000, 1886.250000, 8344.000000, 7927.000000, 8003.000000
2347, 195398352.000000, 1915.250000, 8120.000000, 8068.000000, 8009.000000
2348, 195398512.000000, 1944.500000, 8182.000000, 8203.000000, 8196.000000
2349, 195398672.000000, 1958.500000, 8186.000000, 8211.000000, 8206.000000
2350, 195398832.000000, 1940.250000, 8191.000000, 8210.000000, 8205.000000
2351, 195398992.000000, 1889.000000, 8198.000000, 8213.000000, 8212.000000
2352, 195399152.000000, 1813.000000, 8206.000000, 8223.000000, 8227.000000
2353, 195399312.000000, 1726.000000, 8215.000000, 8229.000000, 8237.000000
2354, 195399472.000000, 1636.000000, 8224.000000, 8228.000000, 8240.000000
2355, 195399632.000000, 1549.250000, 8234.000000, 8226.000000, 8241.000000
2356, 195399792.000000, 1474.250000, 8244.000000, 8229.000000, 8247.000000
2357, 195399952.000000, 1410.750000, 8256.000000, 8228.000000, 8252.000000
2358, 195400112.000000, 1363.250000, 8259.000000, 8222.000000, 8248.000000
2359, 195400272.000000, 1329.250000, 8248.000000, 8206.000000, 8230.000000
2360, 195400432.000000, 1310.250000, 8208.000000, 8197.000000, 8205.000000
2361, 195400592.000000, 1299.000000, 8175.000000, 8197.000000, 8193.000000
2362, 195400752.000000, 1290.000000, 8158.000000, 8198.000000, 8187.000000
2363, 195400912.000000, 1277.750000, 8153.000000, 8199.000000, 8186.000000
2364, 195401072.000000, 1259.250000, 8156.000000, 8196.000000, 8183.000000
2365, 195401232.000000, 1234.000000, 8161.000000, 8191.000000, 8178.000000
2366, 195401392.000000, 1200.750000, 8166.000000, 8192.000000, 8182.000000
2367, 195401552.000000, 1159.500000, 8170.000000, 8197.000000, 8190.000000
2368, 195401712.000000, 1112.000000, 8171.000000, 8196.000000, 8189.000000
2369, 195401872.000000, 1062.500000, 8170.000000, 8191.000000, 8182.000000
2370, 195402032.000000, 1040.000000, 8168.000000, 8183.000000, 8172.000000
2371, 195402192.000000, 1119.750000, 8168.000000, 8182.000000, 8171.000000
2372, 195402352.000000, 1378.000000, 8169.000000, 8186.000000, 8176.000000
2373, 195402512.000000, 1762.250000, 8169.000000, 8187.000000, 8177.000000
2374, 195402672.000000, 2142.000000, 8170.000000, 8183.000000, 8172.000000
2375, 195402832.000000, 2393.500000, 8175.000000, 8190.000000, 8188.000000
2376, 195402992.000000, 2492.750000, 8185.000000, 8210.000000, 8224.000000
2377, 195403152.000000, 2468.000000, 8200.000000, 8219.000000, 8235.000000
2378, 195403312.000000, 2376.250000, 8188.000000, 8193.000000, 8193.000000
2379, 195403472.000000, 2256.750000, 8167.000000, 8172.000000, 8157.000000
2380, 195403632.000000, 2133.250000, 8165.000000, 8166.000000, 8149.000000
2381, 195403792.000000, 2015.500000, 8168.000000, 8167.000000, 8152.000000
2382, 195403952.000000, 1902.000000, 8204.000000, 8210.000000, 8211.000000
2383, 195404112.000000, 1813.000000, 8345.000000, 7962.000000, 8051.000000
2384, 195404272.000000, 1773.750000, 8086.000000, 7981.000000, 7910.000000
2385, 195404432.000000, 1789.750000, 8178.000000, 8188.000000, 8176.000000
2386, 195404592.000000, 1833.500000, 8185.000000, 8211.000000, 8206.000000
2387, 195404752.000000, 1876.500000, 8190.000000, 8223.000000, 8221.000000
2388, 195404912.000000, 1899.750000, 8196.000000, 8226.000000, 8228.000000
2389, 195405072.000000, 1896.250000, 8200.000000, 8225.000000, 8227.000000
2390, 195405232.000000, 1856.000000, 8210.000000, 8224.000000, 8231.000000
2391, 195405392.000000, 1793.750000, 8218.000000, 8231.000000, 8243.000000
2392, 195405552.000000, 1718.500000, 8228.000000, 8240.000000, 8257.000000
2393, 195405712.000000, 1639.750000, 8240.000000, 8244.000000, 8267.000000
2394, 195405872.000000, 1569.000000, 8247.000000, 8238.000000, 8262.000000
2395, 195406032.000000, 1506.500000, 8254.000000, 8228.000000, 8256.000000
2396, 195406192.000000, 1453.000000, 8250.000000, 8217.000000, 8245.000000
2397, 195406352.000000, 1409.250000, 8219.000000, 8212.000000, 8229.000000
2398, 195406512.000000, 1376.750000, 8184.000000, 8207.000000, 8211.000000
2399, 195406672.000000, 1352.000000, 8162.000000, 8198.000000, 8189.000000
2400, 195406832.000000, 1335.250000, 8153.000000, 8190.000000, 8175.000000
2401, 195406992.000000, 1325.000000, 8156.000000, 8191.000000, 8178.000000
2402, 195407152.000000, 1319.250000, 8160.000000, 8197.000000, 8185.000000
2403, 195407312.000000, 1315.250000, 8165.000000, 8199.000000, 8190.000000
2404, 195407472.000000, 1304.500000, 8167.000000, 8194.000000, 8185.000000
2405, 195407632.000000, 1278.500000, 8168.000000, 8187.000000, 8178.000000
2406, 195407792.000000, 1238.500000, 8170.000000, 8188.000000, 8179.000000
2407, 195407952.000000, 1207.750000, 8170.000000, 8191.000000, 8182.000000
2408, 195408112.000000, 1268.250000, 8169.000000, 8190.000000, 8180.000000
2409, 195408272.000000, 1535.500000, 8168.000000, 8184.000000, 8173.000000
2410, 195408432.000000, 1963.250000, 8167.000000, 8179.000000, 8166.000000
2411, 195408592.000000, 2414.000000, 8169.000000, 8180.000000, 8168.000000
2412, 195408752.000000, 2729.500000, 8179.000000, 8206.000000, 8212.000000
2413, 195408912.000000, 2879.000000, 8189.000000, 8225.000000, 8246.000000
2414, 195409072.000000, 2886.000000, 8200.000000, 8209.000000, 8221.000000
2415, 195409232.000000, 2810.500000, 8179.000000, 8178.000000, 8171.000000
2416, 195409392.000000, 2698.000000, 8166.000000, 8169.000000, 8153.000000
2417, 195409552.000000, 2580.750000, 8166.000000, 8173.000000, 8157.000000
2418, 195409712.000000, 2466.000000, 8167.000000, 8173.000000, 8156.000000
2419, 195409872.000000, 2345.000000, 8242.000000, 8196.000000, 8218.000000
2420, 195410032.000000, 2234.000000, 8350.000000, 7844.000000, 7920.000000
2421, 195410192.000000, 2163.000000, 8115.000000, 8065.000000, 7995.000000
2422, 195410352.000000, 2156.500000, 8185.000000, 8212.000000, 8209.000000
2423, 195410512.000000, 2194.000000, 8186.000000, 8223.000000, 8220.000000
2424, 195410672.000000, 2244.250000, 8193.000000, 8223.000000, 8221.000000
2425, 195410832.000000, 2278.750000, 8197.000000, 8220.000000, 8220.000000
2426, 195410992.000000, 2282.000000, 8206.000000, 8226.000000, 8230.000000
2427, 195411152.000000, 2250.500000, 8214.000000, 8235.000000, 8243.000000
2428, 195411312.000000, 2182.000000, 8223.000000, 8239.000000, 8253.000000
2429, 195411472.000000, 2093.750000, 8229.000000, 8237.000000, 8253.000000
2430, 195411632.000000, 1997.750000, 8240.000000, 8237.000000, 8258.000000
2431, 195411792.000000, 1904.500000, 8249.000000, 8237.000000, 8264.000000
2432, 195411952.000000, 1824.500000, 8252.000000, 8234.000000, 8263.000000
2433, 195412112.000000, 1757.250000, 8242.000000, 8223.000000, 8251.000000
2434, 195412272.000000, 1706.500000, 8208.000000, 8209.000000, 8221.000000
2435, 195412432.000000, 1673.250000, 8177.000000, 8196.000000, 8193.000000
2436, 195412592.000000, 1646.500000, 8162.000000, 8194.000000, 8183.000000
2437, 195412752.000000, 1627.750000, 8160.000000, 8198.000000, 8186.000000
2438, 195412912.000000, 1613.500000, 8160.000000, 8197.000000, 8185.000000
2439, 195413072.000000, 1600.250000, 8163.000000, 8194.000000, 8182.000000
2440, 195413232.000000, 1584.500000, 8166.000000, 8190.000000, 8180.000000
2441, 195413392.000000, 1560.250000, 8168.000000, 8192.000000, 8183.000000
2442, 195413552.000000, 1527.750000, 8170.000000, 8196.000000, 8187.000000
2443, 195413712.000000, 1483.000000, 8170.000000, 8193.000000, 8184.000000
2444, 195413872.000000, 1475.500000, 8170.000000, 8186.000000, 8175.000000
2445, 195414032.000000, 1602.000000, 8169.000000, 8180.000000, 8168.000000
2446, 195414192.000000, 1950.250000, 8172.000000, 8182.000000, 8172.000000
2447, 195414352.000000, 2434.000000, 8170.000000, 8187.000000, 8176.000000
2448, 195414512.000000, 2897.500000, 8179.000000, 8200.000000, 8202.000000
2449, 195414672.000000, 3196.500000, 8187.000000, 8212.000000, 8226.000000
2450, 195414832.000000, 3318.000000, 8206.000000, 8215.000000, 8235.000000
2451, 195414992.000000, 3300.500000, 8188.000000, 8187.000000, 8184.000000
2452, 195415152.000000, 3202.500000, 8167.000000, 8176.000000, 8159.000000
2453, 195415312.000000, 3080.500000, 8167.000000, 8173.000000, 8156.000000
2454, 195415472.000000, 2957.250000, 8167.000000, 8167.000000, 8148.000000
2455, 195415632.000000, 2837.750000, 8200.000000, 8192.000000, 8185.000000
2456, 195415792.000000, 2714.500000, 8358.000000, 7928.000000, 8020.000000
2457, 195415952.000000, 2606.750000, 8084.000000, 7986.000000, 7905.000000
2458, 195416112.000000, 2550.000000, 8182.000000, 8201.000000, 8192.000000
2459, 195416272.000000, 2547.750000, 8184.000000, 8215.000000, 8209.000000
2460, 195416432.000000, 2573.000000, 8190.000000, 8217.000000, 8213.000000
2461, 195416592.000000, 2603.000000, 8197.000000, 8223.000000, 8223.000000
2462, 195416752.000000, 2614.750000, 8204.000000, 8230.000000, 8233.000000
2463, 195416912.000000, 2592.500000, 8211.000000, 8233.000000, 8239.000000
2464, 195417072.000000, 2534.250000, 8218.000000, 8231.000000, 8241.000000
2465, 195417232.000000, 2446.250000, 8227.000000, 8232.000000, 8246.000000
2466, 195417392.000000, 2343.750000, 8239.000000, 8239.000000, 8259.000000
2467, 195417552.000000, 2238.750000, 8247.000000, 8241.000000, 8265.000000
2468, 195417712.000000, 2138.000000, 8253.000000, 8233.000000, 8261.000000
2469, 195417872.000000, 2045.500000, 8247.000000, 8218.000000, 8244.000000
2470, 195418032.000000, 1967.250000, 8216.000000, 8208.000000, 8223.000000
2471, 195418192.000000, 1906.000000, 8179.000000, 8205.000000, 8202.000000
2472, 195418352.000000, 1861.750000, 8163.000000, 8203.000000, 8193.000000
2473, 195418512.000000, 1829.500000, 8156.000000, 8199.000000, 8186.000000
2474, 195418672.000000, 1807.750000, 8157.000000, 8193.000000, 8179.000000
2475, 195418832.000000, 1794.000000, 8161.000000, 8192.000000, 8179.000000
2476, 195418992.000000, 1781.500000, 8167.000000, 8197.000000, 8188.000000
2477, 195419152.000000, 1762.500000, 8168.000000, 8199.000000, 8190.000000
2478, 195419312.000000, 1730.000000, 8168.000000, 8197.000000, 8188.000000
2479, 195419472.000000, 1679.250000, 8169.000000, 8187.000000, 8177.000000
2480, 195419632.000000, 1633.750000, 8168.000000, 8183.000000, 8172.000000
2481, 195419792.000000, 1679.750000, 8168.000000, 8186.000000, 8175.000000
2482, 195419952.000000, 1900.250000, 8168.000000, 8189.000000, 8178.000000
2483, 195420112.000000, 2311.500000, 8168.000000, 8187.000000, 8176.000000
2484, 195420272.000000, 2775.500000, 8177.000000, 8201.000000, 8204.000000
2485, 195420432.000000, 3140.250000, 8189.000000, 8219.000000, 8238.000000
2486, 195420592.000000, 3327.250000, 8195.000000, 8206.000000, 8213.000000
2487, 195420752.000000, 3360.500000, 8172.000000, 8185.000000, 8175.000000
2488, 195420912.000000, 3291.500000, 8164.000000, 8175.000000, 8158.000000
2489, 195421072.000000, 3175.750000, 8164.000000, 8167.000000, 8148.000000
2490, 195421232.000000, 3050.750000, 8167.000000, 8164.000000, 8143.000000
2491, 195421392.000000, 2922.500000, 8263.000000, 8216.000000, 8254.000000
2492, 195421552.000000, 2786.500000, 8323.000000, 7918.000000, 7982.000000
2493, 195421712.000000, 2658.500000, 8123.000000, 8087.000000, 8026.000000
2494, 195421872.000000, 2573.500000, 8180.000000, 8198.000000, 8189.000000
2495, 195422032.000000, 2544.000000, 8183.000000, 8207.000000, 8198.000000
2496, 195422192.000000, 2555.750000, 8189.000000, 8216.000000, 8211.000000
2497, 195422352.000000, 2574.750000, 8197.000000, 8222.000000, 8222.000000
2498, 195422512.000000, 2578.250000, 8203.000000, 8224.000000, 8226.000000
2499, 195422672.000000, 2550.750000, 8213.000000, 8222.000000, 8227.000000
2500, 195422832.000000, 2491.500000, 8221.000000, 8223.000000, 8233.000000
2501, 195422992.000000, 2401.500000, 8233.000000, 8232.000000, 8248.000000
2502, 195423152.000000, 2293.000000, 8245.000000, 8234.000000, 8254.000000
2503, 195423312.000000, 2178.000000, 8254.000000, 8225.000000, 8249.000000
2504, 195423472.000000, 2063.000000, 8255.000000, 8211.000000, 8234.000000
2505, 195423632.000000, 1958.250000, 8239.000000, 8202.000000, 8222.000000
2506, 195423792.000000, 1872.500000, 8197.000000, 8206.000000, 8212.000000
2507, 195423952.000000, 1802.000000, 8170.000000, 8205.000000, 8200.000000
2508, 195424112.000000, 1748.750000, 8154.000000, 8198.000000, 8184.000000
2509, 195424272.000000, 1706.250000, 8151.000000, 8191.000000, 8175.000000
2510, 195424432.000000, 1673.000000, 8156.000000, 8191.000000, 8178.000000
2511, 195424592.000000, 1641.750000, 8161.000000, 8198.000000, 8187.000000
2512, 195424752.000000, 1606.750000, 8166.000000, 8201.000000, 8193.000000
2513, 195424912.000000, 1560.500000, 8168.000000, 8196.000000, 8187.000000
2514, 195425072.000000, 1498.750000, 8169.000000, 8189.000000, 8179.000000
2515, 195425232.000000, 1426.250000, 8169.000000, 8186.000000, 8176.000000
2516, 195425392.000000, 1362.750000, 8168.000000, 8187.000000, 8176.000000
2517, 195425552.000000, 1372.750000, 8167.000000, 8190.000000, 8179.000000
2518, 195425712.000000, 1549.750000, 8169.000000, 8193.000000, 8185.000000
2519, 195425872.000000, 1886.750000, 8177.000000, 8206.000000, 8213.000000
2520, 195426032.000000, 2275.750000, 8196.000000, 8219.000000, 8237.000000
2521, 195426192.000000, 2572.750000, 8185.000000, 8194.000000, 8194.000000
2522, 195426352.000000, 2721.000000, 8163.000000, 8176.000000, 8160.000000
2523, 195426512.000000, 2733.000000, 8161.000000, 8171.000000, 8152.000000
2524, 195426672.000000, 2652.500000, 8162.000000, 8166.000000, 8147.000000
2525, 195426832.000000, 2534.000000, 8187.000000, 8184.000000, 8170.000000
2526, 195426992.000000, 2400.500000, 8336.000000, 8038.000000, 8125.000000
2527, 195427152.000000, 2259.000000, 8082.000000, 7953.000000, 7889.000000
2528, 195427312.000000, 2110.500000, 8168.000000, 8178.000000, 8157.000000
2529, 195427472.000000, 1989.750000, 8181.000000, 8206.000000, 8198.000000
2530, 195427632.000000, 1924.500000, 8185.000000, 8213.000000, 8206.000000
2531, 195427792.000000, 1919.000000, 8191.000000, 8221.000000, 8216.000000
2532, 195427952.000000, 1945.000000, 8200.000000, 8226.000000, 8228.000000
2533, 195428112.000000, 1974.750000, 8209.000000, 8228.000000, 8234.000000
2534, 195428272.000000, 1979.750000, 8216.000000, 8226.000000, 8233.000000
2535, 195428432.000000, 1948.500000, 8226.000000, 8230.000000, 8242.000000
2536, 195428592.000000, 1881.000000, 8238.000000, 8238.000000, 8256.000000
2537, 195428752.000000, 1785.750000, 8249.000000, 8237.000000, 8260.000000
2538, 195428912.000000, 1682.250000, 8255.000000, 8225.000000, 8250.000000
2539, 195429072.000000, 1580.250000, 8249.000000, 8209.000000, 8232.000000
2540, 195429232.000000, 1493.000000, 8215.000000, 8205.000000, 8219.000000
2541, 195429392.000000, 1418.750000, 8179.000000, 8205.000000, 8205.000000
2542, 195429552.000000, 1361.250000, 8161.000000, 8202.000000, 8193.000000
2543, 195429712.000000, 1313.750000, 8153.000000, 8195.000000, 8180.000000
2544, 195429872.000000, 1273.750000, 8156.000000, 8190.000000, 8177.000000
2545, 195430032.000000, 1242.750000, 8161.000000, 8192.000000, 8181.000000
2546, 195430192.000000, 1217.500000, 8166.000000, 8198.000000, 8190.000000
2547, 195430352.000000, 1191.000000, 8170.000000, 8199.000000, 8192.000000
2548, 195430512.000000, 1158.500000, 8173.000000, 8193.000000, 8186.000000
2549, 195430672.000000, 1118.750000, 8171.000000, 8186.000000, 8177.000000
2550, 195430832.000000, 1077.750000, 8169.000000, 8184.000000, 8174.000000
2551, 195430992.000000, 1074.000000, 8170.000000, 8188.000000, 8179.000000
2552, 195431152.000000, 1174.750000, 8169.000000, 8188.000000, 8178.000000
2553, 195431312.000000, 1445.250000, 8175.000000, 8196.000000, 8196.000000
2554, 195431472.000000, 1804.500000, 8183.000000, 8210.000000, 8221.000000
2555, 195431632.000000, 2124.250000, 8201.000000, 8217.000000, 8236.000000
2556, 195431792.000000, 2309.750000, 8185.000000, 8191.000000, 8191.000000
2557, 195431952.000000, 2358.750000, 8163.000000, 8177.000000, 8161.000000
2558, 195432112.000000, 2310.000000, 8164.000000, 8170.000000, 8153.000000
2559, 195432272.000000, 2216.750000, 8164.000000, 8166.000000, 8147.000000
2560, 195432432.000000, 2115.000000, 8198.000000, 8196.000000, 8191.000000
2561, 195432592.000000, 2011.500000, 8343.000000, 7939.000000, 8027.000000
2562, 195432752.000000, 1904.750000, 8081.000000, 7977.000000, 7900.000000
2563, 195432912.000000, 1804.500000, 8176.000000, 8196.000000, 8185.000000
2564, 195433072.000000, 1740.500000, 8183.000000, 8212.000000, 8207.000000
2565, 195433232.000000, 1722.250000, 8189.000000, 8218.000000, 8215.000000
2566, 195433392.000000, 1742.250000, 8194.000000, 8226.000000, 8226.000000
2567, 195433552.000000, 1770.000000, 8201.000000, 8231.000000, 8234.000000
2568, 195433712.000000, 1785.250000, 8210.000000, 8230.000000, 8237.000000
2569, 195433872.000000, 1774.250000, 8217.000000, 8229.000000, 8239.000000
2570, 195434032.000000, 1732.500000, 8228.000000, 8235.000000, 8250.000000
2571, 195434192.000000, 1667.750000, 8239.000000, 8242.000000, 8264.000000
2572, 195434352.000000, 1592.500000, 8252.000000, 8240.000000, 8267.000000
2573, 195434512.000000, 1517.750000, 8254.000000, 8228.000000, 8256.000000
2574, 195434672.000000, 1448.500000, 8248.000000, 8213.000000, 8239.000000
2575, 195434832.000000, 1390.000000, 8213.000000, 8209.000000, 8224.000000
2576, 195434992.000000, 1345.000000, 8178.000000, 8207.000000, 8207.000000
2577, 195435152.000000, 1310.250000, 8162.000000, 8202.000000, 8193.000000
2578, 195435312.000000, 1284.250000, 8157.000000, 8193.000000, 8179.000000
2579, 195435472.000000, 1263.250000, 8158.000000, 8189.000000, 8174.000000
2580, 195435632.000000, 1248.250000, 8162.000000, 8194.000000, 8183.000000
2581, 195435792.000000, 1237.750000, 8166.000000, 8201.000000, 8193.000000
2582, 195435952.000000, 1222.500000, 8168.000000, 8201.000000, 8194.000000
2583, 195436112.000000, 1201.000000, 8169.000000, 8194.000000, 8186.000000
2584, 195436272.000000, 1167.500000, 8171.000000, 8187.000000, 8180.000000
2585, 195436432.000000, 1141.000000, 8170.000000, 8187.000000, 8178.000000
2586, 195436592.000000, 1169.250000, 8170.000000, 8191.000000, 8182.000000
2587, 195436752.000000, 1335.500000, 8167.000000, 8190.000000, 8179.000000
2588, 195436912.000000, 1654.500000, 8169.000000, 8184.000000, 8174.000000
2589, 195437072.000000, 2020.500000, 8169.000000, 8180.000000, 8168.000000
2590, 195437232.000000, 2297.500000, 8182.000000, 8207.000000, 8217.000000
2591, 195437392.000000, 2426.000000, 8195.000000, 8231.000000, 8256.000000
2592, 195437552.000000, 2431.000000, 8196.000000, 8208.000000, 8216.000000
2593, 195437712.000000, 2361.000000, 8172.000000, 8179.000000, 8167.000000
2594, 195437872.000000, 2271.750000, 8164.000000, 8167.000000, 8148.000000
2595, 195438032.000000, 2190.500000, 8166.000000, 8169.000000, 8151.000000
2596, 195438192.000000, 2117.250000, 8170.000000, 8171.000000, 8152.000000
2597, 195438352.000000, 2039.750000, 8267.000000, 8186.000000, 8227.000000
2598, 195438512.000000, 1961.250000, 8308.000000, 7845.000000, 7895.000000
2599, 195438672.000000, 1906.250000, 8137.000000, 8107.000000, 8050.000000
2600, 195438832.000000, 1894.500000, 8182.000000, 8209.000000, 8202.000000
2601, 195438992.000000, 1912.000000, 8186.000000, 8224.000000, 8219.000000
2602, 195439152.000000, 1928.750000, 8192.000000, 8227.000000, 8226.000000
2603, 195439312.000000, 1930.750000, 8197.000000, 8224.000000, 8224.000000
2604, 195439472.000000, 1908.250000, 8205.000000, 8224.000000, 8226.000000
2605, 195439632.000000, 1865.500000, 8213.000000, 8231.000000, 8238.000000
2606, 195439792.000000, 1803.750000, 8222.000000, 8239.000000, 8252.000000
2607, 195439952.000000, 1735.000000, 8231.000000, 8242.000000, 8259.000000
2608, 195440112.000000, 1667.500000, 8242.000000, 8237.000000, 8259.000000
2609, 195440272.000000, 1605.250000, 8253.000000, 8229.000000, 8255.000000
2610, 195440432.000000, 1551.000000, 8254.000000, 8226.000000, 8254.000000
2611, 195440592.000000, 1505.750000, 8236.000000, 8221.000000, 8245.000000
2612, 195440752.000000, 1467.500000, 8197.000000, 8214.000000, 8224.000000
2613, 195440912.000000, 1443.250000, 8169.000000, 8200.000000, 8194.000000
2614, 195441072.000000, 1427.500000, 8158.000000, 8191.000000, 8176.000000
2615, 195441232.000000, 1412.750000, 8159.000000, 8192.000000, 8179.000000
2616, 195441392.000000, 1398.500000, 8160.000000, 8198.000000, 8186.000000
2617, 195441552.000000, 1382.250000, 8162.000000, 8198.000000, 8187.000000
2618, 195441712.000000, 1362.500000, 8166.000000, 8193.000000, 8183.000000
2619, 195441872.000000, 1337.250000, 8170.000000, 8190.000000, 8181.000000
2620, 195442032.000000, 1304.750000, 8172.000000, 8191.000000, 8183.000000
2621, 195442192.000000, 1267.000000, 8172.000000, 8194.000000, 8186.000000
2622, 195442352.000000, 1250.750000, 8171.000000, 8191.000000, 8182.000000
2623, 195442512.000000, 1332.500000, 8170.000000, 8183.000000, 8172.000000
2624, 195442672.000000, 1568.000000, 8169.000000, 8179.000000, 8167.000000
2625, 195442832.000000, 1922.750000, 8170.000000, 8182.000000, 8171.000000
2626, 195442992.000000, 2253.750000, 8171.000000, 8186.000000, 8177.000000
2627, 195443152.000000, 2455.000000, 8173.000000, 8186.000000, 8177.000000
2628, 195443312.000000, 2508.750000, 8172.000000, 8180.000000, 8170.000000
2629, 195443472.000000, 2467.250000, 8174.000000, 8182.000000, 8175.000000
2630, 195443632.000000, 2382.750000, 8185.000000, 8208.000000, 8218.000000
2631, 195443792.000000, 2300.750000, 8201.000000, 8225.000000, 8248.000000
2632, 195443952.000000, 2235.000000, 8196.000000, 8199.000000, 8205.000000
2633, 195444112.000000, 2171.250000, 8170.000000, 8173.000000, 8160.000000
2634, 195444272.000000, 2102.000000, 8169.000000, 8167.000000, 8151.000000
2635, 195444432.000000, 2037.000000, 8170.000000, 8171.000000, 8156.000000
2636, 195444592.000000, 2002.750000, 8179.000000, 8175.000000, 8154.000000
2637, 195444752.000000, 2007.000000, 8338.000000, 8089.000000, 8175.000000
2638, 195444912.000000, 2031.500000, 8126.000000, 7914.000000, 7869.000000
2639, 195445072.000000, 2048.000000, 8166.000000, 8163.000000, 8135.000000
2640, 195445232.000000, 2049.000000, 8182.000000, 8214.000000, 8207.000000
2641, 195445392.000000, 2024.250000, 8187.000000, 8224.000000, 8220.000000
2642, 195445552.000000, 1976.000000, 8194.000000, 8225.000000, 8225.000000
2643, 195445712.000000, 1912.250000, 8198.000000, 8222.000000, 8221.000000
2644, 195445872.000000, 1843.750000, 8207.000000, 8223.000000, 8228.000000
2645, 195446032.000000, 1783.250000, 8215.000000, 8231.000000, 8241.000000
2646, 195446192.000000, 1731.500000, 8225.000000, 8238.000000, 8253.000000
2647, 195446352.000000, 1690.250000, 8237.000000, 8238.000000, 8257.000000
2648, 195446512.000000, 1657.750000, 8247.000000, 8231.000000, 8253.000000
2649, 195446672.000000, 1635.250000, 8255.000000, 8223.000000, 8248.000000
2650, 195446832.000000, 1617.000000, 8256.000000, 8220.000000, 8246.000000
2651, 195446992.000000, 1595.000000, 8230.000000, 8218.000000, 8238.000000
2652, 195447152.000000, 1575.000000, 8191.000000, 8210.000000, 8216.000000
2653, 195447312.000000, 1554.750000, 8164.000000, 8198.000000, 8189.000000
2654, 195447472.000000, 1533.000000, 8156.000000, 8191.000000, 8178.000000
2655, 195447632.000000, 1511.000000, 8155.000000, 8194.000000, 8179.000000
2656, 195447792.000000, 1489.250000, 8157.000000, 8200.000000, 8186.000000
2657, 195447952.000000, 1467.500000, 8160.000000, 8198.000000, 8186.000000
2658, 195448112.000000, 1440.000000, 8165.000000, 8193.000000, 8184.000000
2659, 195448272.000000, 1405.250000, 8169.000000, 8189.000000, 8179.000000
2660, 195448432.000000, 1365.250000, 8170.000000, 8191.000000, 8182.000000
2661, 195448592.000000, 1326.250000, 8171.000000, 8192.000000, 8185.000000
2662, 195448752.000000, 1318.500000, 8170.000000, 8188.000000, 8179.000000
2663, 195448912.000000, 1422.750000, 8168.000000, 8180.000000, 8169.000000
2664, 195449072.000000, 1687.750000, 8168.000000, 8178.000000, 8167.000000
2665, 195449232.000000, 2044.500000, 8168.000000, 8182.000000, 8171.000000
2666, 195449392.000000, 2348.750000, 8169.000000, 8186.000000, 8176.000000
2667, 195449552.000000, 2501.250000, 8168.000000, 8183.000000, 8172.000000
2668, 195449712.000000, 2511.500000, 8168.000000, 8179.000000, 8168.000000
2669, 195449872.000000, 2442.750000, 8178.000000, 8195.000000, 8197.000000
2670, 195450032.000000, 2346.750000, 8190.000000, 8217.000000, 8235.000000
2671, 195450192.000000, 2257.500000, 8192.000000, 8204.000000, 8209.000000
2672, 195450352.000000, 2186.000000, 8176.000000, 8182.000000, 8175.000000
2673, 195450512.000000, 2117.000000, 8167.000000, 8169.000000, 8154.000000
2674, 195450672.000000, 2042.500000, 8168.000000, 8167.000000, 8152.000000
2675, 195450832.000000, 1977.000000, 8171.000000, 8172.000000, 8157.000000
2676, 195450992.000000, 1945.250000, 8263.000000, 8224.000000, 8262.000000
2677, 195451152.000000, 1952.500000, 8338.000000, 7922.000000, 7994.000000
2678, 195451312.000000, 1973.250000, 8125.000000, 8074.000000, 8017.000000
2679, 195451472.000000, 1977.750000, 8182.000000, 8196.000000, 8189.000000
2680, 195451632.000000, 1951.750000, 8187.000000, 8214.000000, 8212.000000
2681, 195451792.000000, 1898.000000, 8193.000000, 8222.000000, 8222.000000
2682, 195451952.000000, 1817.250000, 8198.000000, 8222.000000, 8223.000000
2683, 195452112.000000, 1715.000000, 8207.000000, 8220.000000, 8225.000000
2684, 195452272.000000, 1636.250000, 8214.000000, 8224.000000, 8232.000000
2685, 195452432.000000, 1579.000000, 8224.000000, 8231.000000, 8245.000000
2686, 195452592.000000, 1534.000000, 8234.000000, 8238.000000, 8257.000000
2687, 195452752.000000, 1497.750000, 8247.000000, 8235.000000, 8257.000000
2688, 195452912.000000, 1466.750000, 8257.000000, 8223.000000, 8249.000000
2689, 195453072.000000, 1441.500000, 8261.000000, 8213.000000, 8240.000000
2690, 195453232.000000, 1417.750000, 8247.000000, 8207.000000, 8231.000000
2691, 195453392.000000, 1397.000000, 8205.000000, 8210.000000, 8222.000000
2692, 195453552.000000, 1372.250000, 8171.000000, 8204.000000, 8201.000000
2693, 195453712.000000, 1347.250000, 8157.000000, 8192.000000, 8180.000000
2694, 195453872.000000, 1320.500000, 8153.000000, 8191.000000, 8178.000000
2695, 195454032.000000, 1289.250000, 8155.000000, 8198.000000, 8185.000000
2696, 195454192.000000, 1251.750000, 8160.000000, 8202.000000, 8192.000000
2697, 195454352.000000, 1210.750000, 8166.000000, 8199.000000, 8191.000000
2698, 195454512.000000, 1165.750000, 8169.000000, 8192.000000, 8184.000000
2699, 195454672.000000, 1122.000000, 8173.000000, 8189.000000, 8182.000000
2700, 195454832.000000, 1099.250000, 8171.000000, 8192.000000, 8185.000000
2701, 195454992.000000, 1163.750000, 8169.000000, 8192.000000, 8184.000000
2702, 195455152.000000, 1390.750000, 8168.000000, 8187.000000, 8178.000000
2703, 195455312.000000, 1727.500000, 8169.000000, 8180.000000, 8170.000000
2704, 195455472.000000, 2054.250000, 8169.000000, 8180.000000, 8170.000000
2705, 195455632.000000, 2245.750000, 8167.000000, 8186.000000, 8175.000000
2706, 195455792.000000, 2294.750000, 8168.000000, 8187.000000, 8178.000000
2707, 195455952.000000, 2240.000000, 8168.000000, 8184.000000, 8173.000000
2708, 195456112.000000, 2139.750000, 8179.000000, 8200.000000, 8206.000000
2709, 195456272.000000, 2038.000000, 8192.000000, 8220.000000, 8241.000000
2710, 195456432.000000, 1954.000000, 8195.000000, 8205.000000, 8212.000000
2711, 195456592.000000, 1878.250000, 8175.000000, 8186.000000, 8178.000000
2712, 195456752.000000, 1803.250000, 8166.000000, 8173.000000, 8157.000000
2713, 195456912.000000, 1743.750000, 8167.000000, 8167.000000, 8150.000000
2714, 195457072.000000, 1720.500000, 8170.000000, 8166.000000, 8147.000000
2715, 195457232.000000, 1736.500000, 8261.000000, 8190.000000, 8227.000000
2716, 195457392.000000, 1772.500000, 8319.000000, 7858.000000, 7914.000000
2717, 195457552.000000, 1798.250000, 8131.000000, 8101.000000, 8044.000000
2718, 195457712.000000, 1799.000000, 8183.000000, 8207.000000, 8202.000000
2719, 195457872.000000, 1771.750000, 8186.000000, 8218.000000, 8215.000000
2720, 195458032.000000, 1723.500000, 8193.000000, 8228.000000, 8228.000000
2721, 195458192.000000, 1660.750000, 8200.000000, 8232.000000, 8236.000000
2722, 195458352.000000, 1596.500000, 8204.000000, 8231.000000, 8236.000000
2723, 195458512.000000, 1538.000000, 8213.000000, 8230.000000, 8239.000000
2724, 195458672.000000, 1489.500000, 8221.000000, 8236.000000, 8250.000000
2725, 195458832.000000, 1454.500000, 8234.000000, 8245.000000, 8266.000000
2726, 195458992.000000, 1422.000000, 8247.000000, 8247.000000, 8273.000000
2727, 195459152.000000, 1395.750000, 8255.000000, 8238.000000, 8267.000000
2728, 195459312.000000, 1375.000000, 8261.000000, 8225.000000, 8256.000000
2729, 195459472.000000, 1357.750000, 8247.000000, 8215.000000, 8243.000000
2730, 195459632.000000, 1342.500000, 8205.000000, 8213.000000, 8225.000000
2731, 195459792.000000, 1331.750000, 8173.000000, 8207.000000, 8204.000000
2732, 195459952.000000, 1320.000000, 8161.000000, 8195.000000, 8184.000000
2733, 195460112.000000, 1305.250000, 8157.000000, 8188.000000, 8174.000000
2734, 195460272.000000, 1286.000000, 8159.000000, 8190.000000, 8177.000000
2735, 195460432.000000, 1265.750000, 8162.000000, 8197.000000, 8186.000000
2736, 195460592.000000, 1242.500000, 8166.000000, 8200.000000, 8192.000000
2737, 195460752.000000, 1211.750000, 8169.000000, 8194.000000, 8186.000000
2738, 195460912.000000, 1178.000000, 8172.000000, 8188.000000, 8180.000000
2739, 195461072.000000, 1170.500000, 8172.000000, 8187.000000, 8179.000000
2740, 195461232.000000, 1274.000000, 8172.000000, 8190.000000, 8182.000000
2741, 195461392.000000, 1544.000000, 8173.000000, 8189.000000, 8182.000000
2742, 195461552.000000, 1943.500000, 8173.000000, 8183.000000, 8174.000000
2743, 195461712.000000, 2298.000000, 8173.000000, 8178.000000, 8169.000000
2744, 195461872.000000, 2507.750000, 8174.000000, 8179.000000, 8170.000000
2745, 195462032.000000, 2555.250000, 8173.000000, 8185.000000, 8176.000000
2746, 195462192.000000, 2504.750000, 8173.000000, 8186.000000, 8177.000000
2747, 195462352.000000, 2411.500000, 8173.000000, 8182.000000, 8171.000000
2748, 195462512.000000, 2322.250000, 8176.000000, 8177.000000, 8168.000000
2749, 195462672.000000, 2251.000000, 8181.000000, 8191.000000, 8191.000000
2750, 195462832.000000, 2191.000000, 8190.000000, 8218.000000, 8234.000000
2751, 195462992.000000, 2127.750000, 8203.000000, 8216.000000, 8232.000000
2752, 195463152.000000, 2060.000000, 8194.000000, 8189.000000, 8191.000000
2753, 195463312.000000, 2020.000000, 8173.000000, 8170.000000, 8157.000000
2754, 195463472.000000, 2016.000000, 8171.000000, 8171.000000, 8158.000000
2755, 195463632.000000, 2031.750000, 8171.000000, 8177.000000, 8164.000000
2756, 195463792.000000, 2048.500000, 8197.000000, 8200.000000, 8193.000000
2757, 195463952.000000, 2056.750000, 8354.000000, 7940.000000, 8029.000000
2758, 195464112.000000, 2045.750000, 8087.000000, 7970.000000, 7893.000000
2759, 195464272.000000, 2019.250000, 8183.000000, 8198.000000, 8191.000000
2760, 195464432.000000, 1978.500000, 8186.000000, 8225.000000, 8224.000000
2761, 195464592.000000, 1927.500000, 8192.000000, 8230.000000, 8231.000000
2762, 195464752.000000, 1871.750000, 8197.000000, 8228.000000, 8230.000000
2763, 195464912.000000, 1813.500000, 8203.000000, 8227.000000, 8231.000000
2764, 195465072.000000, 1760.250000, 8210.000000, 8232.000000, 8239.000000
2765, 195465232.000000, 1711.500000, 8219.000000, 8241.000000, 8254.000000
2766, 195465392.000000, 1669.750000, 8229.000000, 8244.000000, 8262.000000
2767, 195465552.000000, 1634.250000, 8239.000000, 8241.000000, 8263.000000
2768, 195465712.000000, 1597.500000, 8250.000000, 8237.000000, 8263.000000
2769, 195465872.000000, 1564.500000, 8259.000000, 8235.000000, 8267.000000
2770, 195466032.000000, 1529.500000, 8257.000000, 8232.000000, 8266.000000
2771, 195466192.000000, 1493.500000, 8228.000000, 8220.000000, 8243.000000
2772, 195466352.000000, 1459.250000, 8188.000000, 8206.000000, 8210.000000
2773, 195466512.000000, 1424.500000, 8165.000000, 8194.000000, 8185.000000
2774, 195466672.000000, 1389.500000, 8159.000000, 8193.000000, 8180.000000
2775, 195466832.000000, 1354.250000, 8157.000000, 8198.000000, 8184.000000
2776, 195466992.000000, 1321.750000, 8159.000000, 8198.000000, 8185.000000
2777, 195467152.000000, 1297.750000, 8163.000000, 8193.000000, 8181.000000
2778, 195467312.000000, 1277.250000, 8165.000000, 8190.000000, 8179.000000
2779, 195467472.000000, 1254.500000, 8168.000000, 8192.000000, 8183.000000
2780, 195467632.000000, 1234.250000, 8172.000000, 8195.000000, 8187.000000
2781, 195467792.000000, 1279.750000, 8172.000000, 8192.000000, 8184.000000
2782, 195467952.000000, 1501.500000, 8170.000000, 8184.000000, 8173.000000
2783, 195468112.000000, 1899.500000, 8172.000000, 8179.000000, 8169.000000
2784, 195468272.000000, 2339.000000, 8172.000000, 8182.000000, 8172.000000
2785, 195468432.000000, 2644.500000, 8173.000000, 8187.000000, 8178.000000
2786, 195468592.000000, 2776.000000, 8173.000000, 8186.000000, 8177.000000
2787, 195468752.000000, 2767.750000, 8174.000000, 8180.000000, 8171.000000
2788, 195468912.000000, 2686.750000, 8173.000000, 8178.000000, 8167.000000
2789, 195469072.000000, 2585.750000, 8174.000000, 8182.000000, 8173.000000
2790, 195469232.000000, 2502.250000, 8175.000000, 8187.000000, 8179.000000
2791, 195469392.000000, 2443.750000, 8183.000000, 8204.000000, 8209.000000
2792, 195469552.000000, 2388.000000, 8191.000000, 8210.000000, 8226.000000
2793, 195469712.000000, 2320.250000, 8200.000000, 8197.000000, 8203.000000
2794, 195469872.000000, 2260.000000, 8186.000000, 8183.000000, 8180.000000
2795, 195470032.000000, 2228.000000, 8172.000000, 8180.000000, 8168.000000
2796, 195470192.000000, 2227.500000, 8171.000000, 8178.000000, 8165.000000
2797, 195470352.000000, 2237.000000, 8171.000000, 8172.000000, 8157.000000
2798, 195470512.000000, 2242.750000, 8245.000000, 8197.000000, 8219.000000
2799, 195470672.000000, 2234.000000, 8376.000000, 7880.000000, 7966.000000
2800, 195470832.000000, 2210.000000, 8117.000000, 8070.000000, 8003.000000
2801, 195470992.000000, 2164.750000, 8186.000000, 8214.000000, 8213.000000
2802, 195471152.000000, 2105.750000, 8188.000000, 8220.000000, 8220.000000
2803, 195471312.000000, 2034.250000, 8193.000000, 8222.000000, 8222.000000
2804, 195471472.000000, 1960.000000, 8198.000000, 8228.000000, 8231.000000
2805, 195471632.000000, 1890.500000, 8204.000000, 8234.000000, 8239.000000
2806, 195471792.000000, 1829.750000, 8211.000000, 8236.000000, 8244.000000
2807, 195471952.000000, 1775.000000, 8220.000000, 8233.000000, 8245.000000
2808, 195472112.000000, 1731.750000, 8231.000000, 8234.000000, 8251.000000
2809, 195472272.000000, 1698.500000, 8242.000000, 8241.000000, 8265.000000
2810, 195472432.000000, 1675.250000, 8253.000000, 8242.000000, 8270.000000
2811, 195472592.000000, 1655.250000, 8257.000000, 8234.000000, 8264.000000
2812, 195472752.000000, 1636.000000, 8250.000000, 8220.000000, 8246.000000
2813, 195472912.000000, 1616.500000, 8216.000000, 8208.000000, 8223.000000
2814, 195473072.000000, 1589.000000, 8179.000000, 8206.000000, 8206.000000
2815, 195473232.000000, 1555.000000, 8160.000000, 8203.000000, 8193.000000
2816, 195473392.000000, 1515.750000, 8153.000000, 8198.000000, 8183.000000
2817, 195473552.000000, 1474.000000, 8154.000000, 8193.000000, 8177.000000
2818, 195473712.000000, 1436.500000, 8156.000000, 8191.000000, 8176.000000
2819, 195473872.000000, 1402.250000, 8162.000000, 8196.000000, 8185.000000
2820, 195474032.000000, 1364.000000, 8166.000000, 8199.000000, 8189.000000
2821, 195474192.000000, 1320.250000, 8166.000000, 8195.000000, 8185.000000
2822, 195474352.000000, 1277.250000, 8168.000000, 8187.000000, 8178.000000
2823, 195474512.000000, 1304.000000, 8168.000000, 8184.000000, 8173.000000
2824, 195474672.000000, 1487.250000, 8168.000000, 8186.000000, 8175.000000
2825, 195474832.000000, 1863.750000, 8168.000000, 8189.000000, 8178.000000
2826, 195474992.000000, 2290.250000, 8168.000000, 8185.000000, 8174.000000
2827, 195475152.000000, 2606.750000, 8169.000000, 8178.000000, 8166.000000
2828, 195475312.000000, 2736.000000, 8171.000000, 8178.000000, 8167.000000
2829, 195475472.000000, 2725.500000, 8173.000000, 8183.000000, 8174.000000
2830, 195475632.000000, 2629.500000, 8178.000000, 8195.000000, 8193.000000
2831, 195475792.000000, 2505.500000, 8184.000000, 8211.000000, 8221.000000
2832, 195475952.000000, 2389.500000, 8197.000000, 8205.000000, 8215.000000
2833, 195476112.000000, 2289.750000, 8188.000000, 8182.000000, 8179.000000
2834, 195476272.000000, 2193.750000, 8171.000000, 8173.000000, 8160.000000
2835, 195476432.000000, 2093.750000, 8169.000000, 8176.000000, 8162.000000
2836, 195476592.000000, 2015.250000, 8168.000000, 8174.000000, 8159.000000
2837, 195476752.000000, 1981.250000, 8212.000000, 8209.000000, 8215.000000
2838, 195476912.000000, 1990.000000, 8364.000000, 8003.000000, 8101.000000
2839, 195477072.000000, 2017.250000, 8098.000000, 8003.000000, 7944.000000
2840, 195477232.000000, 2035.750000, 8177.000000, 8190.000000, 8177.000000
2841, 195477392.000000, 2026.750000, 8185.000000, 8212.000000, 8207.000000
2842, 195477552.000000, 1987.500000, 8192.000000, 8211.000000, 8208.000000
2843, 195477712.000000, 1919.250000, 8197.000000, 8214.000000, 8214.000000
2844, 195477872.000000, 1833.250000, 8204.000000, 8222.000000, 8225.000000
2845, 195478032.000000, 1738.500000, 8212.000000, 8231.000000, 8239.000000
2846, 195478192.000000, 1646.750000, 8219.000000, 8231.000000, 8242.000000
2847, 195478352.000000, 1563.500000, 8230.000000, 8229.000000, 8245.000000
2848, 195478512.000000, 1491.000000, 8243.000000, 8231.000000, 8252.000000
2849, 195478672.000000, 1431.750000, 8255.000000, 8232.000000, 8257.000000
2850, 195478832.000000, 1384.250000, 8262.000000, 8227.000000, 8255.000000
2851, 195478992.000000, 1345.500000, 8257.000000, 8211.000000, 8239.000000
2852, 195479152.000000, 1311.250000, 8219.000000, 8199.000000, 8214.000000
2853, 195479312.000000, 1281.000000, 8181.000000, 8197.000000, 8197.000000
2854, 195479472.000000, 1252.750000, 8160.000000, 8199.000000, 8189.000000
2855, 195479632.000000, 1224.750000, 8153.000000, 8199.000000, 8186.000000
2856, 195479792.000000, 1199.750000, 8153.000000, 8195.000000, 8180.000000
2857, 195479952.000000, 1171.000000, 8156.000000, 8191.000000, 8176.000000
2858, 195480112.000000, 1137.750000, 8163.000000, 8192.000000, 8180.000000
2859, 195480272.000000, 1095.000000, 8167.000000, 8197.000000, 8188.000000
2860, 195480432.000000, 1040.750000, 8171.000000, 8197.000000, 8190.000000
2861, 195480592.000000, 979.750000, 8170.000000, 8191.000000, 8182.000000
2862, 195480752.000000, 927.750000, 8167.000000, 8183.000000, 8170.000000
2863, 195480912.000000, 963.000000, 8168.000000, 8182.000000, 8171.000000
2864, 195481072.000000, 1161.500000, 8169.000000, 8186.000000, 8176.000000
2865, 195481232.000000, 1514.500000, 8170.000000, 8188.000000, 8179.000000
2866, 195481392.000000, 1872.250000, 8167.000000, 8183.000000, 8170.000000
2867, 195481552.000000, 2108.250000, 8169.000000, 8178.000000, 8166.000000
2868, 195481712.000000, 2187.750000, 8180.000000, 8201.000000, 8208.000000
2869, 195481872.000000, 2152.500000, 8193.000000, 8227.000000, 8249.000000
2870, 195482032.000000, 2052.250000, 8198.000000, 8208.000000, 8217.000000
2871, 195482192.000000, 1936.250000, 8175.000000, 8181.000000, 8173.000000
2872, 195482352.000000, 1825.500000, 8165.000000, 8166.000000, 8149.000000
2873, 195482512.000000, 1722.000000, 8167.000000, 8167.000000, 8150.000000
2874, 195482672.000000, 1623.500000, 8172.000000, 8170.000000, 8152.000000
2875, 195482832.000000, 1541.750000, 8266.000000, 8195.000000, 8237.000000
2876, 195482992.000000, 1504.500000, 8302.000000, 7861.000000, 7909.000000
2877, 195483152.000000, 1514.250000, 8130.000000, 8099.000000, 8041.000000
2878, 195483312.000000, 1551.750000, 8184.000000, 8207.000000, 8203.000000
2879, 195483472.000000, 1590.500000, 8187.000000, 8221.000000, 8219.000000
2880, 195483632.000000, 1609.000000, 8193.000000, 8227.000000, 8227.000000
2881, 195483792.000000, 1598.250000, 8199.000000, 8225.000000, 8227.000000
2882, 195483952.000000, 1559.750000, 8204.000000, 8224.000000, 8227.000000
2883, 195484112.000000, 1505.000000, 8214.000000, 8229.000000, 8237.000000
2884, 195484272.000000, 1441.500000, 8223.000000, 8240.000000, 8254.000000
2885, 195484432.000000, 1376.750000, 8233.000000, 8245.000000, 8265.000000
2886, 195484592.000000, 1316.750000, 8244.000000, 8241.000000, 8265.000000
2887, 195484752.000000, 1266.750000, 8255.000000, 8233.000000, 8262.000000
2888, 195484912.000000, 1223.250000, 8258.000000, 8226.000000, 8257.000000
2889, 195485072.000000, 1185.750000, 8243.000000, 8220.000000, 8247.000000
2890, 195485232.000000, 1158.250000, 8203.000000, 8213.000000, 8225.000000
2891, 195485392.000000, 1135.000000, 8172.000000, 8200.000000, 8196.000000
2892, 195485552.000000, 1115.000000, 8159.000000, 8191.000000, 8180.000000
2893, 195485712.000000, 1097.000000, 8157.000000, 8191.000000, 8177.000000
2894, 195485872.000000, 1078.500000, 8159.000000, 8198.000000, 8187.000000
2895, 195486032.000000, 1062.000000, 8163.000000, 8200.000000, 8190.000000
2896, 195486192.000000, 1043.750000, 8166.000000, 8195.000000, 8185.000000
2897, 195486352.000000, 1021.250000, 8168.000000, 8190.000000, 8181.000000
2898, 195486512.000000, 990.750000, 8170.000000, 8190.000000, 8181.000000
2899, 195486672.000000, 954.500000, 8173.000000, 8193.000000, 8186.000000
2900, 195486832.000000, 961.000000, 8170.000000, 8191.000000, 8182.000000
2901, 195486992.000000, 1099.500000, 8168.000000, 8184.000000, 8173.000000
2902, 195487152.000000, 1428.750000, 8170.000000, 8179.000000, 8168.000000
2903, 195487312.000000, 1833.250000, 8170.000000, 8181.000000, 8170.000000
2904, 195487472.000000, 2160.750000, 8170.000000, 8186.000000, 8175.000000
2905, 195487632.000000, 2313.250000, 8183.000000, 8213.000000, 8224.000000
2906, 195487792.000000, 2324.750000, 8195.000000, 8228.000000, 8253.000000
2907, 195487952.000000, 2251.250000, 8198.000000, 8200.000000, 8209.000000
2908, 195488112.000000, 2148.250000, 8175.000000, 8177.000000, 8167.000000
2909, 195488272.000000, 2050.000000, 8167.000000, 8174.000000, 8157.000000
2910, 195488432.000000, 1962.500000, 8166.000000, 8173.000000, 8155.000000
2911, 195488592.000000, 1882.250000, 8171.000000, 8165.000000, 8144.000000
2912, 195488752.000000, 1804.750000, 8268.000000, 8171.000000, 8213.000000
2913, 195488912.000000, 1746.250000, 8290.000000, 7846.000000, 7884.000000
2914, 195489072.000000, 1727.250000, 8139.000000, 8122.000000, 8068.000000
2915, 195489232.000000, 1746.500000, 8184.000000, 8216.000000, 8212.000000
2916, 195489392.000000, 1782.500000, 8186.000000, 8219.000000, 8214.000000
2917, 195489552.000000, 1812.750000, 8193.000000, 8218.000000, 8214.000000
2918, 195489712.000000, 1821.000000, 8199.000000, 8224.000000, 8224.000000
2919, 195489872.000000, 1806.000000, 8207.000000, 8232.000000, 8237.000000
2920, 195490032.000000, 1767.750000, 8215.000000, 8235.000000, 8245.000000
2921, 195490192.000000, 1711.000000, 8222.000000, 8234.000000, 8247.000000
2922, 195490352.000000, 1649.500000, 8233.000000, 8234.000000, 8252.000000
2923, 195490512.000000, 1584.000000, 8244.000000, 8239.000000, 8261.000000
2924, 195490672.000000, 1524.000000, 8254.000000, 8240.000000, 8270.000000
2925, 195490832.000000, 1471.250000, 8256.000000, 8232.000000, 8262.000000
2926, 195490992.000000, 1428.000000, 8240.000000, 8215.000000, 8240.000000
2927, 195491152.000000, 1394.500000, 8201.000000, 8204.000000, 8213.000000
2928, 195491312.000000, 1371.250000, 8172.000000, 8200.000000, 8194.000000
2929, 195491472.000000, 1354.750000, 8160.000000, 8200.000000, 8188.000000
2930, 195491632.000000, 1344.000000, 8159.000000, 8196.000000, 8183.000000
2931, 195491792.000000, 1336.000000, 8159.000000, 8192.000000, 8179.000000
2932, 195491952.000000, 1324.250000, 8164.000000, 8190.000000, 8177.000000
2933, 195492112.000000, 1312.500000, 8166.000000, 8193.000000, 8181.000000
2934, 195492272.000000, 1295.000000, 8169.000000, 8197.000000, 8187.000000
2935, 195492432.000000, 1266.250000, 8170.000000, 8194.000000, 8185.000000
2936, 195492592.000000, 1228.750000, 8169.000000, 8186.000000, 8174.000000
2937, 195492752.000000, 1238.000000, 8169.000000, 8181.000000, 8169.000000
2938, 195492912.000000, 1385.000000, 8171.000000, 8184.000000, 8173.000000
2939, 195493072.000000, 1716.250000, 8171.000000, 8189.000000, 8178.000000
2940, 195493232.000000, 2120.250000, 8171.000000, 8187.000000, 8176.000000
2941, 195493392.000000, 2444.250000, 8172.000000, 8182.000000, 8172.000000
2942, 195493552.000000, 2595.500000, 8186.000000, 8208.000000, 8219.000000
2943, 195493712.000000, 2606.250000, 8202.000000, 8231.000000, 8259.000000
2944, 195493872.000000, 2536.000000, 8199.000000, 8206.000000, 8216.000000
2945, 195494032.000000, 2434.750000, 8169.000000, 8179.000000, 8165.000000
2946, 195494192.000000, 2335.500000, 8167.000000, 8169.000000, 8150.000000
2947, 195494352.000000, 2253.250000, 8166.000000, 8166.000000, 8146.000000
2948, 195494512.000000, 2173.000000, 8177.000000, 8165.000000, 8140.000000
2949, 195494672.000000, 2094.750000, 8313.000000, 8113.000000, 8187.000000
2950, 195494832.000000, 2033.000000, 8149.000000, 7892.000000, 7855.000000
2951, 195494992.000000, 2011.500000, 8164.000000, 8161.000000, 8130.000000
2952, 195495152.000000, 2028.250000, 8184.000000, 8210.000000, 8204.000000
2953, 195495312.000000, 2066.250000, 8188.000000, 8221.000000, 8216.000000
2954, 195495472.000000, 2101.500000, 8193.000000, 8228.000000, 8226.000000
2955, 195495632.000000, 2116.000000, 8199.000000, 8230.000000, 8230.000000
2956, 195495792.000000, 2101.500000, 8207.000000, 8227.000000, 8232.000000
2957, 195495952.000000, 2062.500000, 8214.000000, 8229.000000, 8237.000000
2958, 195496112.000000, 1999.000000, 8223.000000, 8238.000000, 8250.000000
2959, 195496272.000000, 1923.250000, 8234.000000, 8245.000000, 8264.000000
2960, 195496432.000000, 1847.250000, 8244.000000, 8242.000000, 8266.000000
2961, 195496592.000000, 1777.750000, 8250.000000, 8230.000000, 8256.000000
2962, 195496752.000000, 1722.000000, 8252.000000, 8222.000000, 8251.000000
2963, 195496912.000000, 1680.750000, 8229.000000, 8216.000000, 8236.000000
2964, 195497072.000000, 1652.250000, 8192.000000, 8214.000000, 8221.000000
2965, 195497232.000000, 1635.500000, 8167.000000, 8205.000000, 8198.000000
2966, 195497392.000000, 1621.250000, 8157.000000, 8194.000000, 8180.000000
2967, 195497552.000000, 1610.000000, 8159.000000, 8192.000000, 8179.000000
2968, 195497712.000000, 1600.750000, 8160.000000, 8199.000000, 8187.000000
2969, 195497872.000000, 1591.750000, 8166.000000, 8203.000000, 8195.000000
2970, 195498032.000000, 1576.000000, 8167.000000, 8200.000000, 8191.000000
2971, 195498192.000000, 1553.250000, 8167.000000, 8192.000000, 8181.000000
2972, 195498352.000000, 1519.250000, 8167.000000, 8189.000000, 8178.000000
2973, 195498512.000000, 1480.250000, 8167.000000, 8192.000000, 8181.000000
2974, 195498672.000000, 1496.750000, 8167.000000, 8192.000000, 8181.000000
2975, 195498832.000000, 1657.750000, 8167.000000, 8189.000000, 8178.000000
2976, 195498992.000000, 1993.750000, 8165.000000, 8183.000000, 8170.000000
2977, 195499152.000000, 2398.250000, 8166.000000, 8184.000000, 8172.000000
2978, 195499312.000000, 2719.000000, 8179.000000, 8211.000000, 8219.000000
2979, 195499472.000000, 2874.000000, 8196.000000, 8234.000000, 8258.000000
2980, 195499632.000000, 2885.250000, 8190.000000, 8203.000000, 8207.000000
2981, 195499792.000000, 2809.750000, 8163.000000, 8172.000000, 8154.000000
2982, 195499952.000000, 2701.250000, 8162.000000, 8168.000000, 8149.000000
2983, 195500112.000000, 2593.000000, 8163.000000, 8172.000000, 8154.000000
2984, 195500272.000000, 2497.250000, 8174.000000, 8176.000000, 8155.000000
2985, 195500432.000000, 2407.250000, 8338.000000, 8140.000000, 8226.000000
2986, 195500592.000000, 2327.000000, 8113.000000, 7932.000000, 7889.000000
2987, 195500752.000000, 2283.500000, 8158.000000, 8151.000000, 8116.000000
2988, 195500912.000000, 2288.750000, 8180.000000, 8208.000000, 8199.000000
2989, 195501072.000000, 2328.750000, 8185.000000, 8217.000000, 8210.000000
2990, 195501232.000000, 2376.500000, 8191.000000, 8217.000000, 8212.000000
2991, 195501392.000000, 2403.250000, 8198.000000, 8214.000000, 8213.000000
2992, 195501552.000000, 2398.250000, 8207.000000, 8219.000000, 8222.000000
2993, 195501712.000000, 2362.000000, 8216.000000, 8228.000000, 8237.000000
2994, 195501872.000000, 2302.750000, 8224.000000, 8234.000000, 8246.000000
2995, 195502032.000000, 2230.500000, 8237.000000, 8233.000000, 8250.000000
2996, 195502192.000000, 2157.250000, 8248.000000, 8225.000000, 8245.000000
2997, 195502352.000000, 2084.000000, 8258.000000, 8217.000000, 8242.000000
2998, 195502512.000000, 2014.750000, 8255.000000, 8214.000000, 8239.000000
2999, 195502672.000000, 1956.000000, 8225.000000, 8212.000000, 8229.000000
3000, 195502832.000000, 1910.250000, 8185.000000, 8206.000000, 8208.000000
3001, 195502992.000000, 1876.250000, 8160.000000, 8195.000000, 8185.000000
3002, 195503152.000000, 1849.500000, 8152.000000, 8192.000000, 8177.000000
3003, 195503312.000000, 1827.000000, 8154.000000, 8197.000000, 8183.000000
3004, 195503472.000000, 1804.500000, 8158.000000, 8201.000000, 8190.000000
3005, 195503632.000000, 1781.500000, 8163.000000, 8198.000000, 8188.000000
3006, 195503792.000000, 1755.000000, 8167.000000, 8191.000000, 8182.000000
3007, 195503952.000000, 1719.000000, 8170.000000, 8190.000000, 8181.000000
3008, 195504112.000000, 1674.000000, 8171.000000, 8192.000000, 8185.000000
3009, 195504272.000000, 1623.500000, 8167.000000, 8192.000000, 8183.000000
3010, 195504432.000000, 1601.750000, 8167.000000, 8186.000000, 8175.000000
3011, 195504592.000000, 1685.250000, 8166.000000, 8180.000000, 8168.000000
3012, 195504752.000000, 1939.250000, 8172.000000, 8196.000000, 8196.000000
3013, 195504912.000000, 2298.750000, 8184.000000, 8220.000000, 8236.000000
3014, 195505072.000000, 2624.000000, 8197.000000, 8216.000000, 8230.000000
3015, 195505232.000000, 2816.000000, 8175.000000, 8185.000000, 8177.000000
3016, 195505392.000000, 2865.250000, 8162.000000, 8167.000000, 8150.000000
3017, 195505552.000000, 2812.000000, 8162.000000, 8166.000000, 8147.000000
3018, 195505712.000000, 2711.000000, 8163.000000, 8171.000000, 8153.000000
3019, 195505872.000000, 2596.750000, 8236.000000, 8226.000000, 8248.000000
3020, 195506032.000000, 2483.500000, 8353.000000, 7924.000000, 8010.000000
3021, 195506192.000000, 2372.000000, 8104.000000, 8032.000000, 7965.000000
3022, 195506352.000000, 2266.750000, 8180.000000, 8193.000000, 8184.000000
3023, 195506512.000000, 2200.750000, 8183.000000, 8213.000000, 8208.000000
3024, 195506672.000000, 2192.250000, 8187.000000, 8220.000000, 8216.000000
3025, 195506832.000000, 2231.250000, 8194.000000, 8218.000000, 8215.000000
3026, 195506992.000000, 2284.250000, 8201.000000, 8217.000000, 8218.000000
3027, 195507152.000000, 2323.250000, 8210.000000, 8224.000000, 8229.000000
3028, 195507312.000000, 2326.250000, 8220.000000, 8233.000000, 8245.000000
3029, 195507472.000000, 2291.000000, 8230.000000, 8237.000000, 8253.000000
3030, 195507632.000000, 2221.000000, 8240.000000, 8234.000000, 8253.000000
3031, 195507792.000000, 2129.750000, 8251.000000, 8224.000000, 8246.000000
3032, 195507952.000000, 2039.000000, 8256.000000, 8217.000000, 8241.000000
3033, 195508112.000000, 1955.500000, 8243.000000, 8213.000000, 8236.000000
3034, 195508272.000000, 1886.250000, 8199.000000, 8210.000000, 8218.000000
3035, 195508432.000000, 1833.750000, 8167.000000, 8201.000000, 8194.000000
3036, 195508592.000000, 1796.250000, 8155.000000, 8191.000000, 8178.000000
3037, 195508752.000000, 1773.250000, 8152.000000, 8192.000000, 8177.000000
3038, 195508912.000000, 1757.250000, 8155.000000, 8198.000000, 8185.000000
3039, 195509072.000000, 1747.250000, 8161.000000, 8201.000000, 8190.000000
3040, 195509232.000000, 1735.750000, 8165.000000, 8196.000000, 8187.000000
3041, 195509392.000000, 1707.750000, 8169.000000, 8190.000000, 8182.000000
3042, 195509552.000000, 1669.500000, 8172.000000, 8190.000000, 8182.000000
3043, 195509712.000000, 1621.000000, 8170.000000, 8193.000000, 8184.000000
3044, 195509872.000000, 1580.750000, 8170.000000, 8191.000000, 8182.000000
3045, 195510032.000000, 1603.250000, 8167.000000, 8185.000000, 8174.000000
3046, 195510192.000000, 1782.750000, 8166.000000, 8180.000000, 8168.000000
3047, 195510352.000000, 2119.750000, 8167.000000, 8182.000000, 8169.000000
3048, 195510512.000000, 2512.500000, 8179.000000, 8209.000000, 8217.000000
3049, 195510672.000000, 2808.750000, 8193.000000, 8230.000000, 8254.000000
3050, 195510832.000000, 2958.750000, 8192.000000, 8203.000000, 8210.000000
3051, 195510992.000000, 2973.750000, 8174.000000, 8174.000000, 8165.000000
3052, 195511152.000000, 2905.000000, 8165.000000, 8168.000000, 8151.000000
3053, 195511312.000000, 2807.500000, 8166.000000, 8174.000000, 8158.000000
3054, 195511472.000000, 2703.250000, 8169.000000, 8172.000000, 8154.000000
3055, 195511632.000000, 2601.500000, 8264.000000, 8190.000000, 8229.000000
3056, 195511792.000000, 2499.000000, 8303.000000, 7853.000000, 7900.000000
3057, 195511952.000000, 2419.000000, 8129.000000, 8100.000000, 8041.000000
3058, 195512112.000000, 2383.000000, 8180.000000, 8213.000000, 8206.000000
3059, 195512272.000000, 2400.250000, 8183.000000, 8222.000000, 8217.000000
3060, 195512432.000000, 2448.000000, 8190.000000, 8220.000000, 8216.000000
3061, 195512592.000000, 2494.500000, 8195.000000, 8219.000000, 8218.000000
3062, 195512752.000000, 2516.250000, 8202.000000, 8227.000000, 8229.000000
3063, 195512912.000000, 2500.250000, 8213.000000, 8236.000000, 8245.000000
3064, 195513072.000000, 2453.000000, 8220.000000, 8239.000000, 8251.000000
3065, 195513232.000000, 2376.750000, 8232.000000, 8237.000000, 8253.000000
3066, 195513392.000000, 2291.500000, 8244.000000, 8234.000000, 8256.000000
3067, 195513552.000000, 2207.000000, 8256.000000, 8233.000000, 8261.000000
3068, 195513712.000000, 2131.250000, 8259.000000, 8229.000000, 8259.000000
3069, 195513872.000000, 2067.250000, 8239.000000, 8219.000000, 8243.000000
3070, 195514032.000000, 2015.500000, 8199.000000, 8207.000000, 8215.000000
3071, 195514192.000000, 1974.750000, 8169.000000, 8196.000000, 8190.000000
3072, 195514352.000000, 1948.250000, 8157.000000, 8195.000000, 8181.000000
3073, 195514512.000000, 1923.750000, 8157.000000, 8197.000000, 8185.000000
3074, 195514672.000000, 1904.000000, 8157.000000, 8198.000000, 8184.000000
3075, 195514832.000000, 1885.250000, 8162.000000, 8194.000000, 8183.000000
3076, 195514992.000000, 1864.250000, 8166.000000, 8191.000000, 8181.000000
3077, 195515152.000000, 1833.750000, 8170.000000, 8194.000000, 8185.000000
