2052, 197138632.000000, 1900.875000, 8194.500000, 8226.000000, 8226.500000
2053, 197138792.000000, 1846.750000, 8201.500000, 8224.000000, 8226.500000
2054, 197138952.000000, 1771.750000, 8209.000000, 8225.000000, 8231.000000
2055, 197139112.000000, 1683.500000, 8215.500000, 8234.500000, 8245.000000
2056, 197139272.000000, 1593.625000, 8224.000000, 8241.000000, 8257.000000
2057, 197139432.000000, 1511.625000, 8233.000000, 8241.000000, 8261.000000
2058, 197139592.000000, 1441.000000, 8241.000000, 8236.000000, 8259.500000
2059, 197139752.000000, 1383.875000, 8248.500000, 8229.500000, 8256.500000
2060, 197139912.000000, 1339.250000, 8247.000000, 8227.000000, 8255.000000
2061, 197140072.000000, 1307.500000, 8230.000000, 8219.000000, 8242.500000
2062, 197140232.000000, 1280.875000, 8195.000000, 8209.500000, 8217.500000
2063, 197140392.000000, 1259.375000, 8170.500000, 8197.000000, 8191.000000
2064, 197140552.000000, 1237.875000, 8161.500000, 8192.000000, 8181.000000
2065, 197140712.000000, 1216.000000, 8159.500000, 8196.500000, 8185.000000
2066, 197140872.000000, 1196.000000, 8163.000000, 8201.000000, 8191.000000
2067, 197141032.000000, 1173.750000, 8166.500000, 8196.500000, 8187.000000
2068, 197141192.000000, 1150.625000, 8168.000000, 8191.500000, 8182.500000
2069, 197141352.000000, 1118.625000, 8170.500000, 8191.000000, 8183.000000
2070, 197141512.000000, 1075.750000, 8172.000000, 8193.500000, 8185.500000
2071, 197141672.000000, 1037.125000, 8173.000000, 8193.500000, 8186.500000
2072, 197141832.000000, 1077.625000, 8172.500000, 8187.500000, 8178.000000
2073, 197141992.000000, 1297.500000, 8171.000000, 8181.500000, 8171.000000
2074, 197142152.000000, 1694.625000, 8172.000000, 8182.000000, 8172.000000
2075, 197142312.000000, 2126.500000, 8170.500000, 8185.000000, 8175.000000
2076, 197142472.000000, 2440.000000, 8173.000000, 8188.500000, 8179.500000
2077, 197142632.000000, 2577.500000, 8176.500000, 8189.000000, 8184.000000
2078, 197142792.000000, 2589.000000, 8187.500000, 8209.000000, 8223.000000
2079, 197142952.000000, 2508.000000, 8203.000000, 8225.000000, 8252.000000
2080, 197143112.000000, 2393.000000, 8198.000000, 8200.000000, 8207.000000
2081, 197143272.000000, 2276.875000, 8170.000000, 8179.000000, 8166.000000
2082, 197143432.000000, 2169.000000, 8168.500000, 8172.000000, 8157.500000
2083, 197143592.000000, 2069.625000, 8169.000000, 8167.500000, 8151.500000
2084, 197143752.000000, 1972.750000, 8186.500000, 8178.500000, 8161.500000
2085, 197143912.000000, 1904.500000, 8343.500000, 8016.500000, 8105.500000
2086, 197144072.000000, 1875.000000, 8085.500000, 7943.500000, 7872.000000
2087, 197144232.000000, 1881.750000, 8175.000000, 8187.500000, 8171.500000
2088, 197144392.000000, 1899.875000, 8182.500000, 8212.500000, 8205.500000
2089, 197144552.000000, 1913.250000, 8188.000000, 8220.500000, 8215.500000
2090, 197144712.000000, 1900.750000, 8194.500000, 8226.500000, 8225.500000
2091, 197144872.000000, 1863.875000, 8199.000000, 8231.000000, 8232.500000
2092, 197145032.000000, 1800.125000, 8207.500000, 8229.500000, 8235.000000
2093, 197145192.000000, 1717.125000, 8215.500000, 8228.500000, 8237.000000
2094, 197145352.000000, 1628.375000, 8224.500000, 8233.500000, 8248.000000
2095, 197145512.000000, 1538.750000, 8234.500000, 8240.500000, 8260.000000
2096, 197145672.000000, 1457.125000, 8243.500000, 8240.000000, 8263.500000
2097, 197145832.000000, 1384.750000, 8250.000000, 8229.000000, 8255.000000
2098, 197145992.000000, 1323.375000, 8246.000000, 8216.000000, 8241.000000
2099, 197146152.000000, 1278.000000, 8222.000000, 8210.500000, 8227.500000
2100, 197146312.000000, 1247.000000, 8186.000000, 8210.000000, 8213.000000
2101, 197146472.000000, 1227.000000, 8166.000000, 8204.500000, 8196.500000
2102, 197146632.000000, 1211.250000, 8158.500000, 8196.500000, 8184.500000
2103, 197146792.000000, 1196.250000, 8158.000000, 8191.500000, 8176.500000
2104, 197146952.000000, 1180.125000, 8161.500000, 8195.500000, 8183.500000
2105, 197147112.000000, 1162.625000, 8166.500000, 8200.000000, 8190.500000
2106, 197147272.000000, 1143.125000, 8169.000000, 8199.500000, 8191.500000
2107, 197147432.000000, 1123.750000, 8170.000000, 8194.500000, 8185.500000
2108, 197147592.000000, 1095.250000, 8171.000000, 8187.500000, 8178.500000
2109, 197147752.000000, 1066.000000, 8169.500000, 8186.000000, 8175.500000
2110, 197147912.000000, 1085.750000, 8169.000000, 8189.500000, 8179.500000
2111, 197148072.000000, 1264.125000, 8170.000000, 8189.000000, 8178.000000
2112, 197148232.000000, 1605.750000, 8170.000000, 8184.000000, 8173.000000
2113, 197148392.000000, 2013.875000, 8170.500000, 8178.500000, 8167.500000
2114, 197148552.000000, 2329.500000, 8178.500000, 8197.500000, 8199.500000
2115, 197148712.000000, 2498.750000, 8188.000000, 8220.000000, 8235.500000
2116, 197148872.000000, 2532.375000, 8201.000000, 8217.500000, 8230.500000
2117, 197149032.000000, 2477.000000, 8182.500000, 8184.500000, 8179.500000
2118, 197149192.000000, 2384.875000, 8167.500000, 8168.000000, 8152.000000
2119, 197149352.000000, 2284.000000, 8165.000000, 8168.500000, 8151.500000
2120, 197149512.000000, 2182.750000, 8167.000000, 8173.000000, 8157.500000
2121, 197149672.000000, 2074.875000, 8241.500000, 8224.500000, 8249.500000
2122, 197149832.000000, 1966.125000, 8357.000000, 7948.000000, 8037.000000
2123, 197149992.000000, 1884.625000, 8107.000000, 8037.500000, 7973.000000
2124, 197150152.000000, 1848.750000, 8180.500000, 8192.000000, 8183.500000
2125, 197150312.000000, 1853.125000, 8184.000000, 8211.000000, 8205.000000
2126, 197150472.000000, 1873.000000, 8190.500000, 8215.500000, 8212.000000
2127, 197150632.000000, 1890.125000, 8196.500000, 8213.500000, 8211.000000
2128, 197150792.000000, 1887.875000, 8203.500000, 8213.500000, 8214.000000
2129, 197150952.000000, 1860.250000, 8213.500000, 8220.500000, 8227.500000
2130, 197151112.000000, 1808.875000, 8223.000000, 8228.000000, 8239.500000
2131, 197151272.000000, 1741.250000, 8233.000000, 8231.000000, 8247.000000
2132, 197151432.000000, 1665.125000, 8242.000000, 8225.500000, 8244.000000
2133, 197151592.000000, 1585.625000, 8251.500000, 8218.500000, 8240.000000
2134, 197151752.000000, 1509.375000, 8255.500000, 8212.000000, 8235.500000
2135, 197151912.000000, 1439.750000, 8246.000000, 8205.500000, 8227.500000
2136, 197152072.000000, 1380.750000, 8208.000000, 8206.000000, 8216.500000
2137, 197152232.000000, 1341.250000, 8177.000000, 8198.500000, 8196.000000
2138, 197152392.000000, 1312.875000, 8161.000000, 8193.000000, 8182.000000
2139, 197152552.000000, 1296.500000, 8155.500000, 8194.000000, 8180.000000
2140, 197152712.000000, 1283.375000, 8158.000000, 8199.000000, 8186.000000
2141, 197152872.000000, 1271.875000, 8162.500000, 8199.000000, 8188.500000
2142, 197153032.000000, 1255.000000, 8168.000000, 8194.000000, 8185.000000
2143, 197153192.000000, 1232.750000, 8171.500000, 8190.500000, 8182.000000
2144, 197153352.000000, 1203.250000, 8171.000000, 8192.000000, 8183.000000
2145, 197153512.000000, 1163.750000, 8171.000000, 8193.500000, 8185.000000
2146, 197153672.000000, 1120.500000, 8169.500000, 8191.000000, 8181.500000
2147, 197153832.000000, 1126.000000, 8168.500000, 8183.000000, 8172.500000
2148, 197153992.000000, 1262.125000, 8167.000000, 8180.000000, 8167.000000
2149, 197154152.000000, 1556.875000, 8168.000000, 8185.000000, 8175.000000
2150, 197154312.000000, 1912.000000, 8178.000000, 8209.500000, 8215.500000
2151, 197154472.000000, 2194.750000, 8193.500000, 8228.500000, 8250.500000
2152, 197154632.000000, 2346.000000, 8191.500000, 8198.000000, 8202.500000
2153, 197154792.000000, 2369.375000, 8169.500000, 8170.500000, 8158.500000
2154, 197154952.000000, 2303.000000, 8162.000000, 8169.500000, 8152.500000
2155, 197155112.000000, 2193.000000, 8164.000000, 8172.500000, 8155.500000
2156, 197155272.000000, 2071.000000, 8176.000000, 8170.000000, 8151.500000
2157, 197155432.000000, 1949.375000, 8310.000000, 8184.000000, 8254.000000
2158, 197155592.000000, 1830.375000, 8170.000000, 7912.500000, 7905.000000
2159, 197155752.000000, 1726.875000, 8143.500000, 8127.000000, 8083.000000
2160, 197155912.000000, 1665.875000, 8180.000000, 8206.000000, 8199.000000
2161, 197156072.000000, 1657.500000, 8185.000000, 8213.000000, 8207.500000
2162, 197156232.000000, 1684.875000, 8191.000000, 8211.000000, 8207.500000
2163, 197156392.000000, 1721.750000, 8198.500000, 8212.500000, 8212.000000
2164, 197156552.000000, 1745.250000, 8205.000000, 8222.000000, 8226.000000
2165, 197156712.000000, 1738.000000, 8214.500000, 8230.000000, 8239.000000
2166, 197156872.000000, 1701.375000, 8223.000000, 8232.000000, 8244.000000
2167, 197157032.000000, 1642.750000, 8233.000000, 8230.500000, 8247.000000
2168, 197157192.000000, 1571.250000, 8244.000000, 8228.000000, 8249.500000
2169, 197157352.000000, 1497.250000, 8252.500000, 8224.500000, 8250.000000
2170, 197157512.000000, 1424.750000, 8250.000000, 8217.000000, 8242.500000
2171, 197157672.000000, 1360.375000, 8228.000000, 8205.500000, 8224.500000
2172, 197157832.000000, 1306.750000, 8189.000000, 8197.000000, 8201.000000
2173, 197157992.000000, 1264.000000, 8165.000000, 8192.500000, 8184.000000
2174, 197158152.000000, 1232.625000, 8155.500000, 8192.500000, 8179.500000
2175, 197158312.000000, 1209.000000, 8157.000000, 8196.500000, 8185.500000
2176, 197158472.000000, 1192.375000, 8160.000000, 8196.000000, 8185.000000
2177, 197158632.000000, 1177.625000, 8164.500000, 8192.500000, 8182.500000
2178, 197158792.000000, 1158.875000, 8169.000000, 8191.500000, 8183.500000
2179, 197158952.000000, 1131.250000, 8171.000000, 8194.500000, 8187.500000
2180, 197159112.000000, 1093.750000, 8171.000000, 8197.000000, 8190.000000
2181, 197159272.000000, 1046.125000, 8172.500000, 8191.500000, 8185.000000
2182, 197159432.000000, 1019.250000, 8169.500000, 8184.500000, 8174.000000
2183, 197159592.000000, 1088.875000, 8170.500000, 8181.500000, 8171.500000
2184, 197159752.000000, 1318.625000, 8172.500000, 8191.000000, 8185.500000
2185, 197159912.000000, 1673.125000, 8185.000000, 8217.500000, 8231.500000
2186, 197160072.000000, 2010.625000, 8202.000000, 8232.500000, 8259.500000
2187, 197160232.000000, 2222.375000, 8193.500000, 8196.000000, 8201.000000
2188, 197160392.000000, 2289.500000, 8165.500000, 8170.000000, 8155.500000
2189, 197160552.000000, 2246.000000, 8164.500000, 8171.000000, 8155.000000
2190, 197160712.000000, 2146.125000, 8164.500000, 8173.500000, 8157.500000
2191, 197160872.000000, 2028.625000, 8181.500000, 8174.000000, 8156.000000
2192, 197161032.000000, 1915.875000, 8307.000000, 8027.500000, 8101.500000
2193, 197161192.000000, 1815.625000, 8108.000000, 7881.000000, 7822.000000
2194, 197161352.000000, 1727.125000, 8170.000000, 8179.000000, 8159.500000
2195, 197161512.000000, 1665.625000, 8183.000000, 8221.500000, 8218.500000
2196, 197161672.000000, 1650.500000, 8189.000000, 8225.000000, 8224.000000
2197, 197161832.000000, 1671.750000, 8192.500000, 8223.000000, 8221.500000
2198, 197161992.000000, 1713.000000, 8200.500000, 8225.000000, 8227.500000
2199, 197162152.000000, 1747.875000, 8209.500000, 8233.000000, 8241.500000
2200, 197162312.000000, 1758.625000, 8217.000000, 8239.500000, 8251.500000
2201, 197162472.000000, 1742.750000, 8224.000000, 8240.500000, 8256.500000
2202, 197162632.000000, 1702.625000, 8234.000000, 8240.500000, 8260.500000
2203, 197162792.000000, 1651.250000, 8244.500000, 8238.500000, 8263.500000
2204, 197162952.000000, 1597.375000, 8249.000000, 8238.000000, 8267.000000
2205, 197163112.000000, 1546.500000, 8245.000000, 8230.500000, 8259.000000
2206, 197163272.000000, 1496.750000, 8220.000000, 8215.500000, 8234.000000
2207, 197163432.000000, 1456.250000, 8186.000000, 8201.500000, 8203.500000
2208, 197163592.000000, 1426.625000, 8166.000000, 8194.000000, 8184.000000
2209, 197163752.000000, 1402.000000, 8160.500000, 8194.500000, 8182.000000
2210, 197163912.000000, 1383.125000, 8160.500000, 8196.500000, 8184.000000
2211, 197164072.000000, 1367.250000, 8163.000000, 8195.500000, 8184.500000
2212, 197164232.000000, 1352.375000, 8168.000000, 8192.000000, 8183.000000
2213, 197164392.000000, 1338.875000, 8169.000000, 8190.500000, 8181.500000
2214, 197164552.000000, 1326.000000, 8172.000000, 8195.500000, 8189.500000
2215, 197164712.000000, 1303.750000, 8172.000000, 8195.500000, 8187.500000
2216, 197164872.000000, 1285.250000, 8172.500000, 8189.500000, 8182.000000
2217, 197165032.000000, 1319.625000, 8171.000000, 8182.000000, 8173.000000
2218, 197165192.000000, 1502.625000, 8170.000000, 8182.000000, 8171.000000
2219, 197165352.000000, 1846.750000, 8171.500000, 8186.500000, 8178.000000
2220, 197165512.000000, 2250.125000, 8174.500000, 8190.000000, 8183.500000
2221, 197165672.000000, 2557.000000, 8188.000000, 8213.000000, 8227.000000
2222, 197165832.000000, 2716.625000, 8202.000000, 8226.500000, 8253.500000
2223, 197165992.000000, 2728.875000, 8197.500000, 8196.000000, 8204.500000
2224, 197166152.000000, 2659.125000, 8169.000000, 8176.000000, 8163.000000
2225, 197166312.000000, 2560.000000, 8168.000000, 8174.500000, 8159.500000
2226, 197166472.000000, 2465.875000, 8168.500000, 8170.000000, 8154.500000
2227, 197166632.000000, 2386.625000, 8180.500000, 8167.000000, 8145.000000
2228, 197166792.000000, 2309.875000, 8322.000000, 8036.000000, 8115.500000
2229, 197166952.000000, 2231.875000, 8113.000000, 7901.000000, 7843.500000
2230, 197167112.000000, 2174.375000, 8169.500000, 8182.500000, 8160.000000
2231, 197167272.000000, 2154.125000, 8184.000000, 8217.500000, 8212.500000
2232, 197167432.000000, 2159.500000, 8188.500000, 8217.500000, 8213.500000
2233, 197167592.000000, 2171.125000, 8194.500000, 8222.500000, 8220.500000
2234, 197167752.000000, 2179.000000, 8200.500000, 8229.500000, 8231.000000
2235, 197167912.000000, 2171.000000, 8209.000000, 8235.000000, 8241.500000
2236, 197168072.000000, 2138.875000, 8217.000000, 8235.000000, 8246.500000
2237, 197168232.000000, 2088.625000, 8227.000000, 8233.500000, 8249.500000
2238, 197168392.000000, 2023.625000, 8234.500000, 8236.500000, 8256.000000
2239, 197168552.000000, 1955.125000, 8246.500000, 8241.000000, 8266.500000
2240, 197168712.000000, 1889.750000, 8250.000000, 8236.000000, 8264.000000
2241, 197168872.000000, 1828.625000, 8248.000000, 8223.500000, 8251.000000
2242, 197169032.000000, 1776.875000, 8223.000000, 8210.000000, 8228.500000
2243, 197169192.000000, 1735.625000, 8191.000000, 8204.500000, 8209.000000
2244, 197169352.000000, 1700.250000, 8171.000000, 8202.000000, 8195.500000
2245, 197169512.000000, 1667.500000, 8166.000000, 8198.000000, 8188.000000
2246, 197169672.000000, 1638.750000, 8164.500000, 8194.000000, 8183.000000
2247, 197169832.000000, 1616.000000, 8166.500000, 8190.500000, 8179.000000
2248, 197169992.000000, 1596.000000, 8169.500000, 8193.500000, 8184.000000
2249, 197170152.000000, 1576.000000, 8173.000000, 8197.500000, 8190.500000
2250, 197170312.000000, 1552.625000, 8174.000000, 8197.500000, 8190.500000
2251, 197170472.000000, 1523.500000, 8176.500000, 8190.500000, 8183.500000
2252, 197170632.000000, 1494.625000, 8175.500000, 8183.500000, 8174.000000
2253, 197170792.000000, 1522.125000, 8174.000000, 8183.000000, 8174.000000
2254, 197170952.000000, 1676.875000, 8174.000000, 8186.500000, 8177.500000
2255, 197171112.000000, 2000.500000, 8172.500000, 8187.000000, 8177.500000
2256, 197171272.000000, 2379.250000, 8171.000000, 8183.500000, 8172.000000
2257, 197171432.000000, 2683.250000, 8171.500000, 8178.000000, 8165.500000
2258, 197171592.000000, 2840.625000, 8181.500000, 8200.000000, 8204.000000
2259, 197171752.000000, 2868.375000, 8189.000000, 8222.500000, 8241.500000
2260, 197171912.000000, 2812.750000, 8200.500000, 8218.000000, 8230.500000
2261, 197172072.000000, 2720.000000, 8181.500000, 8185.000000, 8179.000000
2262, 197172232.000000, 2626.625000, 8167.000000, 8168.500000, 8149.500000
2263, 197172392.000000, 2542.375000, 8166.000000, 8170.500000, 8150.500000
2264, 197172552.000000, 2453.500000, 8167.500000, 8174.000000, 8153.000000
2265, 197172712.000000, 2366.375000, 8248.000000, 8205.500000, 8229.500000
2266, 197172872.000000, 2302.000000, 8352.500000, 7874.500000, 7949.500000
2267, 197173032.000000, 2276.750000, 8115.000000, 8070.000000, 7999.000000
2268, 197173192.000000, 2288.250000, 8180.000000, 8205.000000, 8196.000000
2269, 197173352.000000, 2309.750000, 8180.500000, 8220.500000, 8212.000000
2270, 197173512.000000, 2316.500000, 8189.000000, 8224.500000, 8220.000000
2271, 197173672.000000, 2295.250000, 8194.000000, 8221.500000, 8218.500000
2272, 197173832.000000, 2241.750000, 8203.500000, 8221.000000, 8223.500000
2273, 197173992.000000, 2171.625000, 8211.000000, 8227.500000, 8233.500000
2274, 197174152.000000, 2086.875000, 8219.500000, 8235.000000, 8246.500000
2275, 197174312.000000, 2005.000000, 8231.500000, 8235.000000, 8252.500000
2276, 197174472.000000, 1928.500000, 8238.000000, 8228.000000, 8247.000000
2277, 197174632.000000, 1860.750000, 8247.500000, 8218.500000, 8242.500000
2278, 197174792.000000, 1799.250000, 8251.000000, 8213.000000, 8241.000000
2279, 197174952.000000, 1748.750000, 8240.000000, 8209.500000, 8234.500000
2280, 197175112.000000, 1713.750000, 8206.500000, 8207.000000, 8220.000000
2281, 197175272.000000, 1693.625000, 8178.500000, 8199.000000, 8199.000000
2282, 197175432.000000, 1683.000000, 8164.000000, 8190.500000, 8181.500000
2283, 197175592.000000, 1685.625000, 8162.000000, 8192.000000, 8181.500000
2284, 197175752.000000, 1687.000000, 8164.000000, 8197.000000, 8188.000000
2285, 197175912.000000, 1683.125000, 8167.500000, 8198.000000, 8191.000000
2286, 197176072.000000, 1669.875000, 8171.000000, 8193.500000, 8188.500000
2287, 197176232.000000, 1643.125000, 8174.000000, 8189.000000, 8184.000000
2288, 197176392.000000, 1609.750000, 8175.500000, 8189.500000, 8184.000000
2289, 197176552.000000, 1562.500000, 8176.000000, 8192.000000, 8187.000000
2290, 197176712.000000, 1517.750000, 8174.500000, 8188.500000, 8182.000000
2291, 197176872.000000, 1536.875000, 8173.500000, 8182.500000, 8174.500000
2292, 197177032.000000, 1714.125000, 8174.000000, 8178.000000, 8169.000000
2293, 197177192.000000, 2072.750000, 8172.500000, 8181.500000, 8172.000000
2294, 197177352.000000, 2481.750000, 8174.000000, 8184.500000, 8176.000000
2295, 197177512.000000, 2791.750000, 8175.000000, 8184.500000, 8176.500000
2296, 197177672.000000, 2952.750000, 8175.000000, 8178.500000, 8169.500000
2297, 197177832.000000, 2972.750000, 8183.000000, 8196.000000, 8201.000000
2298, 197177992.000000, 2901.750000, 8192.500000, 8216.500000, 8236.500000
2299, 197178152.000000, 2789.000000, 8205.500000, 8214.000000, 8230.000000
2300, 197178312.000000, 2667.000000, 8185.500000, 8188.500000, 8185.500000
2301, 197178472.000000, 2544.750000, 8171.500000, 8170.000000, 8155.500000
2302, 197178632.000000, 2421.250000, 8169.000000, 8167.500000, 8150.500000
2303, 197178792.000000, 2314.875000, 8170.000000, 8169.000000, 8151.500000
2304, 197178952.000000, 2254.750000, 8252.500000, 8202.500000, 8231.000000
2305, 197179112.000000, 2246.500000, 8354.500000, 7874.500000, 7952.000000
2306, 197179272.000000, 2270.875000, 8122.000000, 8074.000000, 8006.000000
2307, 197179432.000000, 2304.500000, 8185.000000, 8203.000000, 8197.500000
2308, 197179592.000000, 2326.250000, 8187.000000, 8218.000000, 8214.000000
2309, 197179752.000000, 2321.250000, 8193.000000, 8225.000000, 8223.000000
2310, 197179912.000000, 2287.125000, 8200.000000, 8227.000000, 8229.000000
2311, 197180072.000000, 2222.875000, 8205.500000, 8224.500000, 8227.500000
2312, 197180232.000000, 2142.875000, 8214.000000, 8225.500000, 8233.000000
2313, 197180392.000000, 2061.000000, 8221.000000, 8235.000000, 8246.500000
2314, 197180552.000000, 1982.125000, 8229.000000, 8241.500000, 8257.000000
2315, 197180712.000000, 1907.500000, 8238.000000, 8239.500000, 8259.500000
2316, 197180872.000000, 1846.500000, 8244.500000, 8229.500000, 8252.500000
2317, 197181032.000000, 1803.250000, 8245.500000, 8219.000000, 8243.500000
2318, 197181192.000000, 1777.000000, 8237.000000, 8212.500000, 8235.500000
2319, 197181352.000000, 1760.875000, 8205.000000, 8212.500000, 8225.000000
2320, 197181512.000000, 1746.250000, 8178.500000, 8205.000000, 8204.000000
2321, 197181672.000000, 1730.000000, 8166.500000, 8195.500000, 8186.000000
2322, 197181832.000000, 1706.625000, 8162.500000, 8192.000000, 8179.500000
2323, 197181992.000000, 1672.500000, 8163.500000, 8198.000000, 8186.500000
2324, 197182152.000000, 1627.125000, 8168.000000, 8202.500000, 8195.500000
2325, 197182312.000000, 1586.875000, 8168.500000, 8200.500000, 8192.000000
2326, 197182472.000000, 1543.750000, 8171.000000, 8194.000000, 8185.500000
2327, 197182632.000000, 1496.500000, 8172.500000, 8189.500000, 8180.000000
2328, 197182792.000000, 1445.125000, 8173.000000, 8192.000000, 8183.000000
2329, 197182952.000000, 1457.500000, 8173.000000, 8193.000000, 8184.000000
2330, 197183112.000000, 1747.625000, 8173.000000, 8187.500000, 8178.500000
2331, 197183272.000000, 2201.875000, 8172.500000, 8183.500000, 8173.000000
2332, 197183432.000000, 2543.750000, 8170.000000, 8180.500000, 8167.500000
2333, 197183592.000000, 2734.375000, 8171.000000, 8184.000000, 8173.000000
2334, 197183752.000000, 2784.500000, 8172.000000, 8188.500000, 8178.500000
2335, 197183912.000000, 2732.250000, 8173.000000, 8185.500000, 8176.500000
2336, 197184072.000000, 2639.000000, 8175.000000, 8183.000000, 8175.000000
2337, 197184232.000000, 2543.500000, 8187.000000, 8207.000000, 8218.000000
2338, 197184392.000000, 2459.000000, 8201.000000, 8222.500000, 8243.500000
2339, 197184552.000000, 2374.500000, 8195.500000, 8202.000000, 8205.500000
2340, 197184712.000000, 2280.750000, 8168.000000, 8181.000000, 8166.000000
2341, 197184872.000000, 2208.625000, 8167.500000, 8171.000000, 8155.000000
2342, 197185032.000000, 2170.625000, 8168.000000, 8170.000000, 8153.000000
2343, 197185192.000000, 2173.125000, 8180.500000, 8175.500000, 8156.000000
2344, 197185352.000000, 2193.000000, 8353.000000, 8086.500000, 8182.500000
2345, 197185512.000000, 2207.875000, 8107.500000, 7947.000000, 7891.000000
2346, 197185672.000000, 2200.750000, 8174.000000, 8173.500000, 8153.500000
2347, 197185832.000000, 2165.125000, 8185.500000, 8208.500000, 8203.500000
2348, 197185992.000000, 2106.375000, 8190.500000, 8218.000000, 8214.500000
2349, 197186152.000000, 2031.625000, 8198.000000, 8224.000000, 8225.000000
2350, 197186312.000000, 1953.250000, 8204.000000, 8222.500000, 8225.500000
2351, 197186472.000000, 1880.500000, 8212.000000, 8222.000000, 8228.500000
2352, 197186632.000000, 1811.750000, 8218.500000, 8223.000000, 8232.000000
2353, 197186792.000000, 1749.625000, 8231.000000, 8229.500000, 8246.500000
2354, 197186952.000000, 1697.625000, 8236.000000, 8235.000000, 8255.000000
2355, 197187112.000000, 1654.625000, 8243.500000, 8228.500000, 8252.000000
2356, 197187272.000000, 1621.750000, 8246.500000, 8215.500000, 8239.000000
2357, 197187432.000000, 1600.000000, 8245.000000, 8207.500000, 8233.500000
2358, 197187592.000000, 1586.625000, 8224.500000, 8206.000000, 8225.500000
2359, 197187752.000000, 1581.375000, 8191.000000, 8208.000000, 8213.500000
2360, 197187912.000000, 1577.875000, 8168.500000, 8200.000000, 8193.500000
2361, 197188072.000000, 1574.125000, 8162.000000, 8192.500000, 8181.500000
2362, 197188232.000000, 1563.375000, 8161.500000, 8191.500000, 8178.500000
2363, 197188392.000000, 1549.625000, 8163.500000, 8198.500000, 8188.500000
2364, 197188552.000000, 1529.625000, 8170.000000, 8200.500000, 8193.500000
2365, 197188712.000000, 1496.625000, 8170.500000, 8198.500000, 8190.500000
2366, 197188872.000000, 1453.375000, 8172.500000, 8190.500000, 8182.000000
2367, 197189032.000000, 1404.375000, 8173.500000, 8189.500000, 8181.500000
2368, 197189192.000000, 1411.625000, 8172.000000, 8193.500000, 8185.500000
2369, 197189352.000000, 1562.125000, 8171.000000, 8193.500000, 8184.500000
2370, 197189512.000000, 1883.375000, 8172.000000, 8188.000000, 8179.000000
2371, 197189672.000000, 2263.125000, 8170.500000, 8183.000000, 8171.000000
2372, 197189832.000000, 2553.500000, 8169.500000, 8183.500000, 8172.000000
2373, 197189992.000000, 2681.000000, 8170.500000, 8187.500000, 8177.500000
2374, 197190152.000000, 2677.250000, 8173.000000, 8188.500000, 8179.500000
2375, 197190312.000000, 2580.625000, 8172.500000, 8186.000000, 8175.500000
2376, 197190472.000000, 2457.875000, 8177.500000, 8188.500000, 8183.500000
2377, 197190632.000000, 2343.125000, 8186.500000, 8209.500000, 8222.000000
2378, 197190792.000000, 2244.250000, 8203.000000, 8219.500000, 8236.500000
2379, 197190952.000000, 2149.875000, 8193.500000, 8197.000000, 8197.000000
2380, 197191112.000000, 2061.375000, 8169.000000, 8178.500000, 8162.500000
2381, 197191272.000000, 2004.625000, 8167.000000, 8172.500000, 8153.500000
2382, 197191432.000000, 1990.500000, 8164.500000, 8173.500000, 8152.500000
2383, 197191592.000000, 2008.875000, 8203.000000, 8208.500000, 8204.000000
2384, 197191752.000000, 2038.250000, 8401.000000, 8003.000000, 8112.500000
2385, 197191912.000000, 2055.250000, 8089.500000, 8007.000000, 7929.000000
2386, 197192072.000000, 2045.875000, 8175.000000, 8191.000000, 8173.000000
2387, 197192232.000000, 2015.000000, 8177.500000, 8211.500000, 8198.000000
2388, 197192392.000000, 1964.000000, 8183.500000, 8220.500000, 8210.000000
2389, 197192552.000000, 1900.125000, 8189.500000, 8225.000000, 8218.500000
2390, 197192712.000000, 1830.625000, 8198.000000, 8224.500000, 8221.500000
2391, 197192872.000000, 1766.000000, 8202.000000, 8223.500000, 8223.000000
2392, 197193032.000000, 1715.750000, 8211.500000, 8228.500000, 8233.500000
2393, 197193192.000000, 1680.750000, 8220.000000, 8236.500000, 8246.500000
2394, 197193352.000000, 1656.750000, 8228.500000, 8238.500000, 8253.000000
2395, 197193512.000000, 1631.125000, 8236.000000, 8232.000000, 8251.000000
2396, 197193672.000000, 1598.875000, 8242.000000, 8219.500000, 8240.000000
2397, 197193832.000000, 1554.750000, 8236.500000, 8212.000000, 8233.000000
2398, 197193992.000000, 1507.625000, 8212.500000, 8209.000000, 8224.500000
2399, 197194152.000000, 1461.750000, 8180.000000, 8205.000000, 8207.000000
2400, 197194312.000000, 1421.625000, 8162.500000, 8194.000000, 8185.500000
2401, 197194472.000000, 1399.875000, 8158.000000, 8188.500000, 8175.500000
2402, 197194632.000000, 1395.250000, 8159.000000, 8189.500000, 8177.000000
2403, 197194792.000000, 1399.625000, 8163.000000, 8194.500000, 8184.500000
2404, 197194952.000000, 1396.500000, 8166.500000, 8197.500000, 8190.000000
2405, 197195112.000000, 1380.375000, 8169.000000, 8193.500000, 8185.500000
2406, 197195272.000000, 1357.500000, 8170.500000, 8187.000000, 8179.000000
2407, 197195432.000000, 1330.375000, 8171.500000, 8186.000000, 8177.500000
2408, 197195592.000000, 1341.000000, 8170.500000, 8188.000000, 8180.000000
2409, 197195752.000000, 1477.375000, 8169.500000, 8187.000000, 8177.500000
2410, 197195912.000000, 1796.250000, 8168.500000, 8180.500000, 8170.000000
2411, 197196072.000000, 2207.625000, 8171.000000, 8175.500000, 8164.500000
2412, 197196232.000000, 2550.000000, 8170.000000, 8179.000000, 8168.000000
2413, 197196392.000000, 2721.750000, 8170.500000, 8183.500000, 8173.500000
2414, 197196552.000000, 2749.625000, 8180.500000, 8204.000000, 8209.500000
2415, 197196712.000000, 2681.500000, 8190.000000, 8218.000000, 8236.500000
2416, 197196872.000000, 2575.375000, 8199.500000, 8204.500000, 8215.500000
2417, 197197032.000000, 2459.000000, 8181.000000, 8181.500000, 8175.500000
2418, 197197192.000000, 2334.375000, 8166.000000, 8174.000000, 8158.000000
2419, 197197352.000000, 2195.125000, 8168.000000, 8173.000000, 8158.000000
2420, 197197512.000000, 2041.500000, 8170.000000, 8165.500000, 8146.000000
2421, 197197672.000000, 1904.000000, 8260.500000, 8186.000000, 8221.500000
2422, 197197832.000000, 1809.000000, 8302.000000, 7846.000000, 7892.500000
2423, 197197992.000000, 1765.125000, 8129.000000, 8103.500000, 8042.000000
2424, 197198152.000000, 1755.125000, 8183.000000, 8213.500000, 8208.500000
2425, 197198312.000000, 1756.000000, 8185.000000, 8219.000000, 8212.000000
2426, 197198472.000000, 1751.125000, 8190.500000, 8219.000000, 8213.500000
2427, 197198632.000000, 1727.250000, 8197.500000, 8226.000000, 8225.000000
2428, 197198792.000000, 1681.000000, 8205.000000, 8234.000000, 8238.000000
2429, 197198952.000000, 1613.250000, 8212.500000, 8237.000000, 8244.500000
2430, 197199112.000000, 1537.250000, 8218.000000, 8236.500000, 8247.500000
2431, 197199272.000000, 1461.875000, 8227.000000, 8237.000000, 8251.500000
2432, 197199432.000000, 1399.250000, 8237.500000, 8240.500000, 8261.500000
2433, 197199592.000000, 1349.375000, 8244.000000, 8239.500000, 8263.500000
2434, 197199752.000000, 1316.750000, 8244.000000, 8230.000000, 8254.000000
2435, 197199912.000000, 1296.250000, 8231.500000, 8214.000000, 8235.000000
2436, 197200072.000000, 1289.875000, 8199.500000, 8203.500000, 8210.500000
2437, 197200232.000000, 1287.375000, 8175.000000, 8200.500000, 8195.500000
2438, 197200392.000000, 1295.750000, 8163.000000, 8200.500000, 8188.500000
2439, 197200552.000000, 1312.000000, 8161.500000, 8198.000000, 8186.000000
2440, 197200712.000000, 1326.500000, 8165.000000, 8195.500000, 8184.500000
2441, 197200872.000000, 1333.625000, 8167.500000, 8193.000000, 8181.000000
2442, 197201032.000000, 1328.500000, 8171.000000, 8196.500000, 8187.500000
2443, 197201192.000000, 1311.750000, 8172.000000, 8199.500000, 8191.500000
2444, 197201352.000000, 1281.875000, 8173.500000, 8196.000000, 8188.000000
2445, 197201512.000000, 1246.750000, 8174.500000, 8188.500000, 8180.000000
2446, 197201672.000000, 1271.875000, 8173.000000, 8183.000000, 8172.000000
2447, 197201832.000000, 1476.250000, 8172.500000, 8185.000000, 8174.500000
2448, 197201992.000000, 1848.500000, 8171.500000, 8188.500000, 8178.000000
2449, 197202152.000000, 2261.375000, 8173.000000, 8187.500000, 8178.500000
2450, 197202312.000000, 2547.000000, 8179.000000, 8195.000000, 8196.000000
2451, 197202472.000000, 2665.250000, 8185.500000, 8211.500000, 8224.000000
2452, 197202632.000000, 2651.750000, 8205.000000, 8222.000000, 8242.500000
2453, 197202792.000000, 2569.000000, 8188.500000, 8196.500000, 8197.000000
2454, 197202952.000000, 2457.125000, 8166.500000, 8177.500000, 8162.000000
2455, 197203112.000000, 2340.250000, 8166.500000, 8169.500000, 8151.000000
2456, 197203272.000000, 2226.375000, 8166.500000, 8166.500000, 8148.000000
2457, 197203432.000000, 2117.375000, 8220.500000, 8206.000000, 8214.000000
2458, 197203592.000000, 2027.500000, 8363.500000, 7916.000000, 8008.500000
2459, 197203752.000000, 1977.750000, 8094.000000, 8025.000000, 7945.000000
2460, 197203912.000000, 1979.250000, 8182.500000, 8200.000000, 8192.000000
2461, 197204072.000000, 2014.250000, 8184.000000, 8212.000000, 8206.000000
2462, 197204232.000000, 2056.625000, 8189.000000, 8221.500000, 8216.500000
2463, 197204392.000000, 2080.125000, 8195.000000, 8227.000000, 8226.000000
2464, 197204552.000000, 2074.500000, 8201.000000, 8229.000000, 8232.000000
2465, 197204712.000000, 2035.500000, 8208.500000, 8229.000000, 8234.000000
2466, 197204872.000000, 1973.500000, 8216.000000, 8228.500000, 8237.500000
2467, 197205032.000000, 1897.375000, 8226.000000, 8236.000000, 8251.500000
2468, 197205192.000000, 1821.250000, 8234.000000, 8241.500000, 8260.500000
2469, 197205352.000000, 1747.875000, 8241.000000, 8235.000000, 8257.000000
2470, 197205512.000000, 1682.875000, 8244.000000, 8222.000000, 8246.000000
2471, 197205672.000000, 1623.250000, 8235.500000, 8209.000000, 8230.000000
2472, 197205832.000000, 1578.500000, 8207.500000, 8207.500000, 8221.000000
2473, 197205992.000000, 1553.000000, 8177.500000, 8207.000000, 8207.500000
2474, 197206152.000000, 1542.750000, 8163.000000, 8200.000000, 8191.000000
2475, 197206312.000000, 1534.875000, 8161.500000, 8194.000000, 8183.000000
2476, 197206472.000000, 1521.125000, 8163.000000, 8193.000000, 8183.000000
2477, 197206632.000000, 1498.500000, 8167.500000, 8198.000000, 8190.000000
2478, 197206792.000000, 1468.500000, 8171.000000, 8200.500000, 8194.000000
2479, 197206952.000000, 1437.875000, 8171.500000, 8197.500000, 8191.000000
2480, 197207112.000000, 1399.500000, 8172.500000, 8189.500000, 8182.000000
2481, 197207272.000000, 1351.375000, 8171.000000, 8185.500000, 8176.500000
2482, 197207432.000000, 1346.750000, 8172.500000, 8188.000000, 8179.500000
2483, 197207592.000000, 1474.250000, 8172.000000, 8189.500000, 8180.500000
2484, 197207752.000000, 1795.625000, 8171.000000, 8186.500000, 8177.500000
2485, 197207912.000000, 2212.750000, 8170.000000, 8180.500000, 8169.500000
2486, 197208072.000000, 2564.625000, 8174.500000, 8188.000000, 8183.000000
2487, 197208232.000000, 2737.250000, 8183.500000, 8214.000000, 8226.500000
2488, 197208392.000000, 2756.000000, 8203.000000, 8230.500000, 8256.500000
2489, 197208552.000000, 2669.625000, 8193.000000, 8197.500000, 8201.000000
2490, 197208712.000000, 2533.875000, 8166.500000, 8170.500000, 8155.000000
2491, 197208872.000000, 2391.000000, 8167.000000, 8166.500000, 8149.500000
2492, 197209032.000000, 2259.125000, 8165.500000, 8172.000000, 8154.500000
2493, 197209192.000000, 2145.125000, 8198.000000, 8201.500000, 8197.500000
2494, 197209352.000000, 2054.875000, 8366.500000, 7983.000000, 8084.000000
2495, 197209512.000000, 2013.625000, 8083.500000, 7985.000000, 7903.000000
2496, 197209672.000000, 2026.000000, 8178.500000, 8192.000000, 8181.500000
2497, 197209832.000000, 2073.750000, 8183.000000, 8213.500000, 8208.500000
2498, 197209992.000000, 2125.000000, 8187.000000, 8222.000000, 8218.000000
2499, 197210152.000000, 2153.125000, 8194.500000, 8221.000000, 8220.500000
2500, 197210312.000000, 2150.750000, 8200.500000, 8218.000000, 8219.500000
2501, 197210472.000000, 2112.875000, 8209.000000, 8222.000000, 8228.500000
2502, 197210632.000000, 2052.250000, 8218.000000, 8229.000000, 8241.000000
2503, 197210792.000000, 1974.000000, 8227.000000, 8236.500000, 8254.500000
2504, 197210952.000000, 1891.125000, 8233.000000, 8235.000000, 8255.000000
2505, 197211112.000000, 1814.875000, 8239.000000, 8225.500000, 8247.500000
2506, 197211272.000000, 1744.750000, 8240.000000, 8218.500000, 8241.500000
2507, 197211432.000000, 1685.500000, 8236.500000, 8215.000000, 8240.500000
2508, 197211592.000000, 1652.125000, 8209.000000, 8212.500000, 8226.000000
2509, 197211752.000000, 1640.375000, 8181.500000, 8206.000000, 8208.000000
2510, 197211912.000000, 1646.375000, 8166.000000, 8196.500000, 8188.500000
2511, 197212072.000000, 1655.500000, 8160.500000, 8194.500000, 8183.000000
2512, 197212232.000000, 1659.750000, 8162.000000, 8199.000000, 8188.000000
2513, 197212392.000000, 1648.625000, 8166.500000, 8202.500000, 8194.000000
2514, 197212552.000000, 1625.875000, 8168.500000, 8199.500000, 8191.000000
2515, 197212712.000000, 1597.875000, 8171.500000, 8193.000000, 8185.500000
2516, 197212872.000000, 1564.000000, 8170.000000, 8192.000000, 8182.500000
2517, 197213032.000000, 1519.750000, 8171.000000, 8194.500000, 8185.500000
2518, 197213192.000000, 1498.250000, 8170.000000, 8195.500000, 8184.500000
2519, 197213352.000000, 1598.500000, 8169.500000, 8190.500000, 8179.000000
2520, 197213512.000000, 1881.500000, 8168.000000, 8184.000000, 8171.000000
2521, 197213672.000000, 2289.375000, 8167.500000, 8184.000000, 8170.000000
2522, 197213832.000000, 2645.250000, 8179.500000, 8212.500000, 8219.000000
2523, 197213992.000000, 2836.000000, 8194.500000, 8234.500000, 8257.500000
2524, 197214152.000000, 2855.625000, 8195.000000, 8208.500000, 8213.500000
2525, 197214312.000000, 2754.250000, 8170.000000, 8179.000000, 8163.500000
2526, 197214472.000000, 2605.250000, 8161.500000, 8171.500000, 8149.500000
2527, 197214632.000000, 2457.000000, 8161.500000, 8175.000000, 8154.000000
2528, 197214792.000000, 2332.375000, 8171.000000, 8171.500000, 8146.000000
2529, 197214952.000000, 2226.000000, 8301.500000, 8204.000000, 8267.000000
2530, 197215112.000000, 2136.375000, 8199.500000, 7907.000000, 7907.500000
2531, 197215272.000000, 2084.750000, 8140.000000, 8127.000000, 8074.500000
2532, 197215432.000000, 2086.750000, 8178.500000, 8207.000000, 8195.500000
2533, 197215592.000000, 2133.375000, 8180.000000, 8216.000000, 8205.500000
2534, 197215752.000000, 2190.375000, 8187.000000, 8215.500000, 8207.500000
2535, 197215912.000000, 2229.250000, 8194.000000, 8214.000000, 8209.000000
2536, 197216072.000000, 2226.125000, 8201.500000, 8219.500000, 8219.000000
2537, 197216232.000000, 2176.125000, 8210.000000, 8228.500000, 8233.500000
2538, 197216392.000000, 2088.375000, 8219.000000, 8232.500000, 8242.500000
2539, 197216552.000000, 1990.375000, 8227.000000, 8229.500000, 8243.500000
2540, 197216712.000000, 1896.875000, 8235.500000, 8222.000000, 8239.000000
2541, 197216872.000000, 1821.750000, 8240.500000, 8216.000000, 8235.500000
2542, 197217032.000000, 1766.875000, 8238.000000, 8211.500000, 8231.500000
2543, 197217192.000000, 1728.875000, 8222.500000, 8204.500000, 8221.500000
2544, 197217352.000000, 1698.500000, 8189.500000, 8200.500000, 8205.500000
2545, 197217512.000000, 1669.750000, 8168.000000, 8193.500000, 8187.000000
2546, 197217672.000000, 1644.875000, 8158.500000, 8192.000000, 8180.000000
2547, 197217832.000000, 1621.750000, 8161.500000, 8197.500000, 8187.500000
2548, 197217992.000000, 1596.750000, 8164.000000, 8199.500000, 8190.000000
2549, 197218152.000000, 1570.125000, 8168.500000, 8195.500000, 8188.000000
2550, 197218312.000000, 1540.250000, 8171.500000, 8190.500000, 8184.000000
2551, 197218472.000000, 1501.375000, 8173.500000, 8190.000000, 8184.000000
2552, 197218632.000000, 1446.500000, 8175.000000, 8192.500000, 8186.500000
2553, 197218792.000000, 1372.625000, 8172.500000, 8192.000000, 8184.500000
2554, 197218952.000000, 1322.125000, 8172.000000, 8184.000000, 8176.000000
2555, 197219112.000000, 1395.500000, 8173.000000, 8179.500000, 8170.500000
2556, 197219272.000000, 1667.375000, 8180.500000, 8200.000000, 8205.500000
2557, 197219432.000000, 2045.000000, 8190.000000, 8224.000000, 8244.500000
2558, 197219592.000000, 2362.500000, 8202.500000, 8219.000000, 8236.000000
2559, 197219752.000000, 2488.125000, 8180.500000, 8185.000000, 8179.000000
2560, 197219912.000000, 2451.875000, 8165.500000, 8167.000000, 8150.500000
2561, 197220072.000000, 2302.375000, 8165.000000, 8167.500000, 8150.500000
2562, 197220232.000000, 2101.125000, 8167.500000, 8170.500000, 8150.500000
2563, 197220392.000000, 1888.125000, 8263.000000, 8202.000000, 8237.500000
2564, 197220552.000000, 1685.375000, 8320.000000, 7855.000000, 7916.000000
2565, 197220712.000000, 1503.125000, 8125.500000, 8087.500000, 8023.500000
2566, 197220872.000000, 1356.750000, 8183.500000, 8205.500000, 8200.000000
2567, 197221032.000000, 1276.500000, 8187.000000, 8220.000000, 8216.000000
2568, 197221192.000000, 1268.750000, 8191.000000, 8224.500000, 8221.500000
2569, 197221352.000000, 1314.375000, 8196.500000, 8222.000000, 8221.000000
2570, 197221512.000000, 1379.125000, 8204.500000, 8222.000000, 8223.500000
2571, 197221672.000000, 1435.250000, 8212.500000, 8228.000000, 8235.000000
2572, 197221832.000000, 1463.125000, 8220.000000, 8236.500000, 8248.000000
2573, 197221992.000000, 1451.125000, 8227.500000, 8240.500000, 8256.000000
2574, 197222152.000000, 1414.750000, 8235.500000, 8235.000000, 8253.000000
2575, 197222312.000000, 1368.125000, 8240.500000, 8226.500000, 8248.000000
2576, 197222472.000000, 1322.750000, 8241.500000, 8219.000000, 8242.000000
2577, 197222632.000000, 1280.000000, 8229.000000, 8213.000000, 8233.500000
2578, 197222792.000000, 1245.750000, 8196.500000, 8209.000000, 8216.000000
2579, 197222952.000000, 1225.250000, 8172.500000, 8199.500000, 8193.500000
2580, 197223112.000000, 1219.125000, 8165.000000, 8192.000000, 8181.000000
2581, 197223272.000000, 1222.875000, 8162.500000, 8194.500000, 8182.000000
2582, 197223432.000000, 1231.625000, 8167.000000, 8199.000000, 8190.000000
2583, 197223592.000000, 1243.125000, 8169.000000, 8201.000000, 8193.000000
2584, 197223752.000000, 1264.125000, 8172.500000, 8194.500000, 8187.000000
2585, 197223912.000000, 1287.250000, 8174.500000, 8189.000000, 8181.500000
2586, 197224072.000000, 1301.000000, 8173.500000, 8192.500000, 8184.500000
2587, 197224232.000000, 1295.750000, 8174.500000, 8194.000000, 8187.500000
2588, 197224392.000000, 1312.875000, 8174.500000, 8191.000000, 8183.500000
2589, 197224552.000000, 1461.750000, 8173.500000, 8185.000000, 8175.000000
2590, 197224712.000000, 1783.125000, 8186.000000, 8207.000000, 8218.000000
2591, 197224872.000000, 2191.625000, 8199.000000, 8233.000000, 8260.500000
2592, 197225032.000000, 2516.750000, 8198.000000, 8210.000000, 8220.000000
2593, 197225192.000000, 2675.250000, 8170.500000, 8180.000000, 8167.000000
2594, 197225352.000000, 2682.125000, 8166.500000, 8170.000000, 8152.500000
2595, 197225512.000000, 2598.500000, 8167.500000, 8166.000000, 8148.000000
2596, 197225672.000000, 2477.625000, 8172.500000, 8164.000000, 8138.000000
2597, 197225832.000000, 2354.625000, 8325.500000, 8121.000000, 8203.000000
2598, 197225992.000000, 2245.750000, 8133.500000, 7911.000000, 7868.500000
2599, 197226152.000000, 2142.625000, 8163.500000, 8162.500000, 8132.000000
2600, 197226312.000000, 2063.125000, 8181.000000, 8206.000000, 8196.000000
2601, 197226472.000000, 2022.625000, 8186.000000, 8215.000000, 8208.000000
2602, 197226632.000000, 2037.250000, 8193.000000, 8223.500000, 8219.500000
2603, 197226792.000000, 2093.250000, 8198.000000, 8224.000000, 8221.500000
2604, 197226952.000000, 2153.625000, 8205.500000, 8222.500000, 8223.500000
2605, 197227112.000000, 2190.375000, 8214.500000, 8224.000000, 8231.000000
2606, 197227272.000000, 2192.500000, 8222.500000, 8231.000000, 8242.500000
2607, 197227432.000000, 2153.500000, 8229.000000, 8238.500000, 8254.000000
2608, 197227592.000000, 2090.250000, 8235.000000, 8235.000000, 8253.000000
2609, 197227752.000000, 2013.625000, 8238.000000, 8220.500000, 8238.500000
2610, 197227912.000000, 1938.500000, 8237.500000, 8209.500000, 8230.000000
2611, 197228072.000000, 1871.375000, 8212.500000, 8206.500000, 8218.500000
2612, 197228232.000000, 1808.750000, 8182.000000, 8209.000000, 8209.500000
2613, 197228392.000000, 1746.000000, 8165.500000, 8202.500000, 8194.000000
2614, 197228552.000000, 1687.250000, 8159.500000, 8193.000000, 8178.500000
2615, 197228712.000000, 1639.625000, 8162.000000, 8191.500000, 8178.500000
2616, 197228872.000000, 1609.875000, 8164.000000, 8197.500000, 8186.000000
2617, 197229032.000000, 1590.875000, 8169.000000, 8200.500000, 8190.500000
2618, 197229192.000000, 1581.625000, 8169.500000, 8198.500000, 8188.000000
2619, 197229352.000000, 1572.250000, 8170.000000, 8193.500000, 8182.500000
2620, 197229512.000000, 1554.875000, 8171.000000, 8187.500000, 8176.500000
2621, 197229672.000000, 1541.375000, 8171.000000, 8189.500000, 8179.000000
2622, 197229832.000000, 1589.625000, 8172.000000, 8190.500000, 8180.500000
2623, 197229992.000000, 1803.625000, 8170.500000, 8189.000000, 8178.000000
2624, 197230152.000000, 2154.500000, 8180.000000, 8202.500000, 8207.500000
2625, 197230312.000000, 2521.250000, 8190.000000, 8219.500000, 8239.000000
2626, 197230472.000000, 2755.875000, 8200.500000, 8213.500000, 8226.000000
2627, 197230632.000000, 2833.500000, 8178.500000, 8189.000000, 8183.000000
2628, 197230792.000000, 2793.625000, 8163.500000, 8176.500000, 8159.000000
2629, 197230952.000000, 2696.500000, 8164.000000, 8169.500000, 8150.000000
2630, 197231112.000000, 2586.625000, 8168.000000, 8163.500000, 8141.000000
2631, 197231272.000000, 2483.625000, 8275.000000, 8209.500000, 8253.000000
2632, 197231432.000000, 2392.375000, 8318.500000, 7900.500000, 7960.000000
2633, 197231592.000000, 2303.375000, 8130.500000, 8111.500000, 8049.000000
2634, 197231752.000000, 2236.750000, 8179.500000, 8203.500000, 8193.500000
2635, 197231912.000000, 2209.125000, 8182.500000, 8210.500000, 8200.500000
2636, 197232072.000000, 2220.375000, 8186.500000, 8218.000000, 8209.500000
2637, 197232232.000000, 2250.125000, 8195.000000, 8223.500000, 8219.000000
2638, 197232392.000000, 2277.625000, 8202.000000, 8224.000000, 8222.000000
2639, 197232552.000000, 2283.375000, 8209.000000, 8223.000000, 8225.000000
2640, 197232712.000000, 2262.875000, 8216.500000, 8225.000000, 8230.500000
2641, 197232872.000000, 2215.875000, 8227.500000, 8231.500000, 8244.000000
2642, 197233032.000000, 2154.750000, 8233.000000, 8234.000000, 8250.000000
2643, 197233192.000000, 2092.625000, 8237.000000, 8225.000000, 8242.000000
2644, 197233352.000000, 2035.625000, 8236.000000, 8212.500000, 8229.000000
2645, 197233512.000000, 1991.375000, 8219.500000, 8206.000000, 8220.000000
2646, 197233672.000000, 1952.125000, 8192.500000, 8211.000000, 8216.000000
2647, 197233832.000000, 1918.500000, 8169.500000, 8209.000000, 8202.500000
2648, 197233992.000000, 1887.375000, 8160.000000, 8201.500000, 8190.500000
2649, 197234152.000000, 1855.500000, 8160.500000, 8195.500000, 8183.000000
2650, 197234312.000000, 1825.625000, 8165.500000, 8195.000000, 8184.500000
2651, 197234472.000000, 1801.000000, 8168.000000, 8200.000000, 8193.000000
2652, 197234632.000000, 1785.375000, 8171.500000, 8202.000000, 8195.500000
2653, 197234792.000000, 1774.500000, 8173.000000, 8197.500000, 8190.500000
2654, 197234952.000000, 1764.250000, 8173.500000, 8189.500000, 8182.500000
2655, 197235112.000000, 1748.250000, 8173.000000, 8186.500000, 8177.500000
2656, 197235272.000000, 1767.875000, 8172.500000, 8189.500000, 8181.000000
2657, 197235432.000000, 1898.875000, 8172.500000, 8191.000000, 8181.500000
2658, 197235592.000000, 2202.000000, 8177.000000, 8198.000000, 8196.500000
2659, 197235752.000000, 2582.875000, 8184.500000, 8210.000000, 8222.000000
2660, 197235912.000000, 2888.250000, 8201.500000, 8219.500000, 8239.000000
2661, 197236072.000000, 3024.000000, 8186.500000, 8193.500000, 8191.000000
2662, 197236232.000000, 3015.625000, 8165.500000, 8178.500000, 8163.000000
2663, 197236392.000000, 2905.875000, 8165.000000, 8172.500000, 8155.500000
2664, 197236552.000000, 2758.375000, 8165.000000, 8168.000000, 8148.500000
2665, 197236712.000000, 2612.625000, 8216.000000, 8204.000000, 8210.000000
2666, 197236872.000000, 2488.375000, 8398.500000, 7981.000000, 8094.500000
2667, 197237032.000000, 2381.375000, 8098.000000, 8027.500000, 7953.000000
2668, 197237192.000000, 2286.125000, 8182.000000, 8197.500000, 8187.000000
2669, 197237352.000000, 2226.000000, 8184.500000, 8205.500000, 8196.000000
2670, 197237512.000000, 2204.875000, 8190.500000, 8209.500000, 8203.000000
2671, 197237672.000000, 2208.500000, 8198.500000, 8216.000000, 8213.500000
2672, 197237832.000000, 2212.625000, 8206.500000, 8222.500000, 8225.000000
2673, 197237992.000000, 2199.375000, 8212.500000, 8223.000000, 8227.500000
2674, 197238152.000000, 2162.500000, 8220.500000, 8221.000000, 8229.000000
2675, 197238312.000000, 2105.750000, 8229.500000, 8224.000000, 8237.000000
2676, 197238472.000000, 2036.500000, 8239.000000, 8228.000000, 8246.000000
2677, 197238632.000000, 1965.500000, 8245.000000, 8223.500000, 8245.500000
2678, 197238792.000000, 1899.125000, 8245.000000, 8211.000000, 8231.500000
2679, 197238952.000000, 1848.750000, 8233.500000, 8197.500000, 8214.500000
2680, 197239112.000000, 1814.875000, 8201.000000, 8200.500000, 8207.500000
2681, 197239272.000000, 1797.875000, 8176.500000, 8204.000000, 8201.000000
2682, 197239432.000000, 1786.500000, 8164.500000, 8202.000000, 8192.000000
2683, 197239592.000000, 1778.750000, 8162.000000, 8197.500000, 8184.500000
2684, 197239752.000000, 1777.125000, 8164.500000, 8192.000000, 8180.000000
2685, 197239912.000000, 1777.375000, 8168.000000, 8195.500000, 8184.500000
2686, 197240072.000000, 1775.625000, 8172.500000, 8201.000000, 8192.500000
2687, 197240232.000000, 1765.875000, 8173.000000, 8199.000000, 8190.000000
2688, 197240392.000000, 1746.625000, 8175.500000, 8194.500000, 8187.000000
2689, 197240552.000000, 1722.000000, 8171.500000, 8187.000000, 8175.500000
2690, 197240712.000000, 1724.250000, 8172.000000, 8186.500000, 8176.500000
2691, 197240872.000000, 1826.625000, 8171.000000, 8190.500000, 8179.500000
2692, 197241032.000000, 2094.250000, 8169.000000, 8191.000000, 8180.000000
2693, 197241192.000000, 2480.625000, 8173.500000, 8193.500000, 8185.500000
2694, 197241352.000000, 2844.625000, 8182.000000, 8211.500000, 8220.000000
2695, 197241512.000000, 3061.125000, 8199.000000, 8229.000000, 8252.000000
2696, 197241672.000000, 3126.000000, 8193.000000, 8204.000000, 8207.500000
2697, 197241832.000000, 3081.500000, 8165.000000, 8184.000000, 8167.000000
2698, 197241992.000000, 2990.875000, 8164.000000, 8176.500000, 8157.500000
2699, 197242152.000000, 2891.250000, 8164.000000, 8172.500000, 8151.500000
2700, 197242312.000000, 2798.375000, 8182.000000, 8189.000000, 8171.500000
2701, 197242472.000000, 2703.250000, 8393.000000, 8066.500000, 8176.500000
2702, 197242632.000000, 2611.250000, 8085.500000, 7996.500000, 7924.000000
2703, 197242792.000000, 2548.125000, 8172.500000, 8191.000000, 8172.000000
2704, 197242952.000000, 2534.250000, 8177.500000, 8208.500000, 8196.000000
2705, 197243112.000000, 2569.875000, 8181.000000, 8213.500000, 8201.500000
2706, 197243272.000000, 2621.500000, 8186.500000, 8221.500000, 8211.500000
2707, 197243432.000000, 2664.125000, 8194.000000, 8225.500000, 8220.500000
2708, 197243592.000000, 2679.625000, 8201.000000, 8224.500000, 8221.500000
2709, 197243752.000000, 2657.625000, 8208.500000, 8224.000000, 8225.000000
2710, 197243912.000000, 2612.000000, 8217.500000, 8228.500000, 8233.500000
2711, 197244072.000000, 2548.125000, 8227.000000, 8235.500000, 8247.000000
2712, 197244232.000000, 2481.625000, 8235.500000, 8232.500000, 8249.500000
2713, 197244392.000000, 2415.375000, 8236.500000, 8222.000000, 8239.500000
2714, 197244552.000000, 2355.250000, 8229.500000, 8211.500000, 8227.500000
2715, 197244712.000000, 2303.750000, 8202.500000, 8210.500000, 8219.500000
2716, 197244872.000000, 2262.500000, 8173.000000, 8209.500000, 8208.000000
2717, 197245032.000000, 2236.375000, 8158.000000, 8204.000000, 8193.000000
2718, 197245192.000000, 2217.000000, 8155.000000, 8196.500000, 8183.000000
2719, 197245352.000000, 2193.125000, 8155.500000, 8192.500000, 8178.500000
2720, 197245512.000000, 2159.750000, 8160.000000, 8196.500000, 8184.500000
2721, 197245672.000000, 2108.000000, 8164.500000, 8201.000000, 8191.000000
2722, 197245832.000000, 2042.375000, 8165.500000, 8202.000000, 8193.500000
2723, 197245992.000000, 1969.875000, 8168.000000, 8194.000000, 8185.000000
2724, 197246152.000000, 1903.125000, 8167.000000, 8187.500000, 8176.500000
2725, 197246312.000000, 1868.125000, 8166.500000, 8186.500000, 8175.000000
2726, 197246472.000000, 1923.625000, 8165.500000, 8190.000000, 8179.500000
2727, 197246632.000000, 2158.875000, 8164.000000, 8190.500000, 8177.500000
2728, 197246792.000000, 2535.625000, 8165.500000, 8186.000000, 8174.500000
2729, 197246952.000000, 2923.250000, 8178.000000, 8206.500000, 8212.500000
2730, 197247112.000000, 3166.625000, 8191.500000, 8227.500000, 8250.000000
2731, 197247272.000000, 3231.625000, 8189.500000, 8205.000000, 8208.500000
2732, 197247432.000000, 3152.125000, 8162.500000, 8180.500000, 8164.500000
2733, 197247592.000000, 3004.250000, 8160.500000, 8170.500000, 8150.000000
2734, 197247752.000000, 2853.125000, 8161.000000, 8168.000000, 8147.000000
2735, 197247912.000000, 2727.250000, 8171.500000, 8168.000000, 8142.000000
2736, 197248072.000000, 2614.125000, 8341.000000, 8108.000000, 8193.000000
2737, 197248232.000000, 2493.750000, 8117.500000, 7935.500000, 7888.000000
2738, 197248392.000000, 2373.875000, 8158.500000, 8167.500000, 8135.500000
2739, 197248552.000000, 2281.625000, 8177.500000, 8205.500000, 8195.000000
2740, 197248712.000000, 2222.750000, 8181.500000, 8214.500000, 8205.000000
2741, 197248872.000000, 2179.375000, 8189.500000, 8222.000000, 8217.500000
2742, 197249032.000000, 2135.750000, 8194.500000, 8224.000000, 8221.000000
2743, 197249192.000000, 2090.750000, 8204.000000, 8224.500000, 8226.500000
2744, 197249352.000000, 2043.500000, 8211.500000, 8225.000000, 8230.000000
2745, 197249512.000000, 1992.875000, 8220.500000, 8230.500000, 8241.500000
2746, 197249672.000000, 1941.625000, 8230.500000, 8236.000000, 8252.500000
2747, 197249832.000000, 1895.125000, 8240.000000, 8233.000000, 8252.000000
2748, 197249992.000000, 1851.000000, 8241.000000, 8220.000000, 8240.000000
2749, 197250152.000000, 1813.250000, 8236.000000, 8209.500000, 8229.500000
2750, 197250312.000000, 1782.750000, 8209.500000, 8208.500000, 8220.000000
2751, 197250472.000000, 1761.625000, 8177.500000, 8210.500000, 8209.000000
2752, 197250632.000000, 1746.250000, 8160.000000, 8205.500000, 8194.500000
2753, 197250792.000000, 1731.625000, 8151.500000, 8198.500000, 8182.000000
2754, 197250952.000000, 1714.125000, 8153.500000, 8196.000000, 8180.500000
2755, 197251112.000000, 1695.625000, 8157.500000, 8199.500000, 8185.500000
2756, 197251272.000000, 1680.250000, 8162.500000, 8203.000000, 8192.500000
2757, 197251432.000000, 1665.875000, 8166.500000, 8202.500000, 8193.000000
2758, 197251592.000000, 1655.250000, 8166.000000, 8197.000000, 8186.000000
2759, 197251752.000000, 1642.500000, 8168.500000, 8191.000000, 8180.500000
2760, 197251912.000000, 1638.250000, 8165.500000, 8192.000000, 8179.500000
2761, 197252072.000000, 1699.375000, 8163.000000, 8195.000000, 8182.000000
2762, 197252232.000000, 1929.125000, 8164.000000, 8193.000000, 8180.000000
2763, 197252392.000000, 2326.500000, 8164.500000, 8186.500000, 8172.500000
2764, 197252552.000000, 2776.125000, 8166.000000, 8184.000000, 8170.000000
2765, 197252712.000000, 3119.125000, 8172.500000, 8206.000000, 8206.000000
2766, 197252872.000000, 3301.250000, 8183.500000, 8226.000000, 8242.000000
2767, 197253032.000000, 3324.000000, 8194.500000, 8215.500000, 8223.000000
2768, 197253192.000000, 3262.375000, 8175.000000, 8186.500000, 8175.500000
2769, 197253352.000000, 3166.625000, 8158.500000, 8173.500000, 8151.500000
2770, 197253512.000000, 3074.750000, 8161.000000, 8176.000000, 8155.000000
2771, 197253672.000000, 2989.125000, 8161.500000, 8178.500000, 8154.500000
2772, 197253832.000000, 2896.125000, 8272.000000, 8218.000000, 8256.500000
2773, 197253992.000000, 2804.375000, 8342.000000, 7905.500000, 7972.500000
2774, 197254152.000000, 2749.375000, 8125.500000, 8103.500000, 8037.500000
2775, 197254312.000000, 2753.625000, 8173.000000, 8207.500000, 8194.500000
2776, 197254472.000000, 2790.125000, 8175.000000, 8220.500000, 8208.500000
2777, 197254632.000000, 2830.125000, 8180.500000, 8222.000000, 8212.500000
2778, 197254792.000000, 2846.750000, 8188.500000, 8219.500000, 8212.500000
2779, 197254952.000000, 2827.000000, 8196.500000, 8220.500000, 8217.000000
2780, 197255112.000000, 2769.000000, 8205.000000, 8227.500000, 8229.000000
2781, 197255272.000000, 2678.375000, 8215.500000, 8233.500000, 8240.000000
2782, 197255432.000000, 2572.375000, 8226.000000, 8234.500000, 8245.500000
2783, 197255592.000000, 2462.125000, 8236.000000, 8228.500000, 8243.000000
2784, 197255752.000000, 2363.625000, 8244.000000, 8222.000000, 8240.000000
2785, 197255912.000000, 2285.500000, 8243.500000, 8220.000000, 8238.500000
2786, 197256072.000000, 2225.375000, 8227.500000, 8218.500000, 8234.500000
2787, 197256232.000000, 2175.500000, 8190.000000, 8216.500000, 8219.000000
2788, 197256392.000000, 2127.000000, 8164.000000, 8207.000000, 8196.500000
2789, 197256552.000000, 2084.750000, 8155.500000, 8200.500000, 8184.500000
2790, 197256712.000000, 2039.750000, 8154.500000, 8202.000000, 8184.500000
2791, 197256872.000000, 1998.250000, 8155.000000, 8208.000000, 8191.000000
2792, 197257032.000000, 1962.125000, 8163.500000, 8207.500000, 8195.000000
2793, 197257192.000000, 1925.625000, 8166.000000, 8203.500000, 8190.500000
2794, 197257352.000000, 1872.625000, 8168.000000, 8201.500000, 8189.000000
2795, 197257512.000000, 1794.875000, 8171.500000, 8204.000000, 8192.500000
2796, 197257672.000000, 1694.250000, 8171.500000, 8205.000000, 8193.500000
2797, 197257832.000000, 1622.000000, 8170.000000, 8201.500000, 8188.500000
2798, 197257992.000000, 1668.750000, 8169.000000, 8190.000000, 8176.000000
2799, 197258152.000000, 1933.375000, 8170.000000, 8177.500000, 8162.500000
2800, 197258312.000000, 2327.375000, 8169.000000, 8165.500000, 8151.500000
2801, 197258472.000000, 2702.625000, 8170.500000, 8138.000000, 8124.000000
2802, 197258632.000000, 2926.000000, 8175.000000, 8090.500000, 8083.500000
2803, 197258792.000000, 2988.750000, 8181.500000, 8048.500000, 8053.500000
2804, 197258952.000000, 2931.500000, 8199.500000, 8052.000000, 8067.000000
2805, 197259112.000000, 2808.250000, 8190.500000, 8103.000000, 8099.000000
2806, 197259272.000000, 2674.750000, 8167.000000, 8107.500000, 8086.500000
2807, 197259432.000000, 2552.000000, 8167.500000, 8106.500000, 8084.500000
2808, 197259592.000000, 2427.250000, 8165.500000, 8095.500000, 8072.000000
2809, 197259752.000000, 2295.500000, 8204.000000, 8116.500000, 8107.000000
2810, 197259912.000000, 2179.500000, 8394.500000, 7884.000000, 7986.000000
2811, 197260072.000000, 2111.375000, 8093.500000, 7904.000000, 7826.500000
2812, 197260232.000000, 2096.375000, 8180.000000, 8087.000000, 8069.500000
2813, 197260392.000000, 2107.750000, 8184.000000, 8095.000000, 8083.000000
2814, 197260552.000000, 2120.000000, 8190.000000, 8094.000000, 8083.000000
2815, 197260712.000000, 2113.875000, 8197.000000, 8097.500000, 8090.000000
2816, 197260872.000000, 2081.125000, 8202.500000, 8105.500000, 8100.000000
2817, 197261032.000000, 2018.500000, 8212.500000, 8104.500000, 8104.000000
2818, 197261192.000000, 1943.000000, 8223.000000, 8105.500000, 8109.500000
2819, 197261352.000000, 1863.000000, 8231.000000, 8111.500000, 8119.500000
2820, 197261512.000000, 1786.625000, 8241.500000, 8123.000000, 8136.000000
2821, 197261672.000000, 1725.875000, 8253.000000, 8127.500000, 8147.000000
2822, 197261832.000000, 1681.375000, 8255.000000, 8123.000000, 8143.000000
2823, 197261992.000000, 1651.125000, 8245.000000, 8114.000000, 8130.500000
2824, 197262152.000000, 1632.375000, 8213.000000, 8117.500000, 8124.500000
2825, 197262312.000000, 1623.375000, 8178.000000, 8124.500000, 8115.500000
2826, 197262472.000000, 1626.500000, 8166.000000, 8121.500000, 8105.500000
2827, 197262632.000000, 1635.250000, 8160.500000, 8119.500000, 8099.000000
2828, 197262792.000000, 1637.625000, 8161.500000, 8118.000000, 8097.000000
2829, 197262952.000000, 1624.625000, 8164.500000, 8125.500000, 8105.500000
2830, 197263112.000000, 1601.625000, 8168.500000, 8140.000000, 8122.500000
2831, 197263272.000000, 1571.500000, 8171.000000, 8146.000000, 8129.500000
2832, 197263432.000000, 1535.000000, 8174.500000, 8147.000000, 8130.500000
2833, 197263592.000000, 1492.375000, 8176.000000, 8144.500000, 8127.500000
2834, 197263752.000000, 1474.375000, 8176.000000, 8147.500000, 8130.500000
2835, 197263912.000000, 1566.250000, 8173.500000, 8154.500000, 8136.500000
2836, 197264072.000000, 1867.500000, 8173.000000, 8158.500000, 8139.500000
2837, 197264232.000000, 2372.375000, 8173.500000, 8158.500000, 8140.500000
2838, 197264392.000000, 2914.000000, 8170.500000, 8158.000000, 8138.000000
2839, 197264552.000000, 3316.125000, 8173.000000, 8159.500000, 8140.000000
2840, 197264712.000000, 3534.250000, 8172.500000, 8165.000000, 8144.500000
2841, 197264872.000000, 3588.875000, 8172.000000, 8169.500000, 8150.500000
2842, 197265032.000000, 3537.375000, 8185.500000, 8190.500000, 8190.000000
2843, 197265192.000000, 3435.875000, 8195.500000, 8206.000000, 8219.000000
2844, 197265352.000000, 3355.500000, 8201.000000, 8191.000000, 8189.500000
2845, 197265512.000000, 3267.250000, 8180.000000, 8178.500000, 8162.000000
2846, 197265672.000000, 3164.875000, 8171.000000, 8172.500000, 8149.500000
2847, 197265832.000000, 3091.250000, 8170.500000, 8169.000000, 8145.000000
2848, 197265992.000000, 3078.625000, 8173.500000, 8162.500000, 8132.500000
2849, 197266152.000000, 3098.250000, 8292.500000, 8183.500000, 8227.500000
2850, 197266312.000000, 3114.000000, 8317.500000, 7887.500000, 7929.000000
2851, 197266472.000000, 3099.875000, 8143.500000, 8124.500000, 8062.500000
2852, 197266632.000000, 3045.125000, 8183.000000, 8205.000000, 8190.500000
2853, 197266792.000000, 2955.750000, 8184.500000, 8209.500000, 8195.000000
2854, 197266952.000000, 2843.875000, 8189.000000, 8214.500000, 8202.000000
2855, 197267112.000000, 2716.250000, 8197.000000, 8222.000000, 8214.500000
2856, 197267272.000000, 2580.125000, 8203.500000, 8226.500000, 8222.500000
2857, 197267432.000000, 2446.125000, 8214.000000, 8226.000000, 8227.500000
2858, 197267592.000000, 2303.375000, 8221.500000, 8226.000000, 8230.500000
2859, 197267752.000000, 2180.875000, 8232.500000, 8232.500000, 8241.500000
2860, 197267912.000000, 2095.250000, 8242.500000, 8236.500000, 8252.000000
2861, 197268072.000000, 2020.875000, 8249.000000, 8236.000000, 8255.000000
2862, 197268232.000000, 1952.375000, 8248.500000, 8228.000000, 8248.500000
2863, 197268392.000000, 1879.250000, 8234.000000, 8215.000000, 8231.000000
2864, 197268552.000000, 1803.250000, 8196.500000, 8214.000000, 8214.000000
2865, 197268712.000000, 1724.750000, 8169.000000, 8212.000000, 8199.000000
2866, 197268872.000000, 1640.000000, 8156.000000, 8210.000000, 8189.500000
2867, 197269032.000000, 1560.000000, 8154.000000, 8205.500000, 8183.500000
2868, 197269192.000000, 1483.125000, 8157.000000, 8200.500000, 8180.500000
2869, 197269352.000000, 1403.375000, 8159.500000, 8202.500000, 8184.000000
2870, 197269512.000000, 1319.625000, 8163.000000, 8208.500000, 8191.500000
2871, 197269672.000000, 1237.875000, 8165.000000, 8207.000000, 8190.500000
2872, 197269832.000000, 1207.125000, 8165.500000, 8201.500000, 8184.000000
2873, 197269992.000000, 1318.125000, 8166.500000, 8198.000000, 8180.500000
2874, 197270152.000000, 1682.500000, 8165.500000, 8200.500000, 8182.000000
2875, 197270312.000000, 2248.750000, 8167.000000, 8202.000000, 8184.000000
2876, 197270472.000000, 2838.375000, 8165.000000, 8207.000000, 8188.500000
2877, 197270632.000000, 3263.500000, 8164.000000, 8200.500000, 8182.000000
2878, 197270792.000000, 3488.625000, 8164.500000, 8195.500000, 8176.500000
2879, 197270952.000000, 3534.375000, 8165.500000, 8196.500000, 8178.000000
2880, 197271112.000000, 3484.750000, 8167.000000, 8203.000000, 8186.000000
2881, 197271272.000000, 3395.875000, 8168.500000, 8205.500000, 8190.000000
2882, 197271432.000000, 3306.750000, 8180.000000, 8225.500000, 8228.500000
2883, 197271592.000000, 3217.000000, 8192.500000, 8234.500000, 8249.000000
2884, 197271752.000000, 3105.875000, 8191.500000, 8211.000000, 8207.000000
2885, 197271912.000000, 2983.375000, 8168.500000, 8199.500000, 8181.500000
2886, 197272072.000000, 2881.625000, 8164.000000, 8198.000000, 8176.000000
2887, 197272232.000000, 2829.250000, 8165.000000, 8195.000000, 8174.000000
2888, 197272392.000000, 2807.000000, 8170.000000, 8187.000000, 8156.500000
2889, 197272552.000000, 2784.500000, 8356.500000, 8163.500000, 8252.000000
2890, 197272712.000000, 2741.000000, 8158.500000, 7974.000000, 7943.000000
2891, 197272872.000000, 2674.250000, 8164.000000, 8186.000000, 8151.500000
2892, 197273032.000000, 2588.250000, 8180.500000, 8229.500000, 8219.000000
2893, 197273192.000000, 2491.000000, 8182.000000, 8232.000000, 8220.500000
2894, 197273352.000000, 2393.625000, 8191.500000, 8236.500000, 8229.500000
2895, 197273512.000000, 2307.750000, 8198.000000, 8245.500000, 8242.000000
2896, 197273672.000000, 2229.250000, 8207.500000, 8248.000000, 8249.500000
2897, 197273832.000000, 2150.750000, 8215.500000, 8244.000000, 8249.500000
2898, 197273992.000000, 2057.375000, 8224.500000, 8240.500000, 8250.000000
2899, 197274152.000000, 1959.750000, 8236.000000, 8240.500000, 8254.500000
2900, 197274312.000000, 1862.500000, 8245.500000, 8243.000000, 8261.500000
2901, 197274472.000000, 1777.625000, 8250.500000, 8239.000000, 8261.000000
2902, 197274632.000000, 1713.000000, 8249.500000, 8229.500000, 8253.000000
2903, 197274792.000000, 1678.125000, 8226.000000, 8220.500000, 8237.000000
2904, 197274952.000000, 1657.125000, 8187.000000, 8219.500000, 8220.000000
2905, 197275112.000000, 1633.875000, 8164.000000, 8218.500000, 8207.000000
2906, 197275272.000000, 1593.500000, 8152.500000, 8212.500000, 8194.500000
2907, 197275432.000000, 1537.375000, 8154.500000, 8207.500000, 8187.000000
2908, 197275592.000000, 1470.000000, 8154.000000, 8204.000000, 8186.000000
2909, 197275752.000000, 1385.125000, 8159.000000, 8207.000000, 8188.500000
2910, 197275912.000000, 1293.125000, 8162.500000, 8207.000000, 8195.000000
2911, 197276072.000000, 1198.500000, 8165.500000, 8207.500000, 8195.000000
2912, 197276232.000000, 1135.750000, 8168.500000, 8198.000000, 8187.000000
2913, 197276392.000000, 1186.750000, 8167.000000, 8192.000000, 8180.500000
2914, 197276552.000000, 1464.125000, 8167.500000, 8193.000000, 8182.000000
2915, 197276712.000000, 1947.000000, 8166.000000, 8191.500000, 8179.500000
2916, 197276872.000000, 2481.375000, 8169.000000, 8189.000000, 8178.000000
2917, 197277032.000000, 2868.500000, 8169.000000, 8182.000000, 8170.000000
2918, 197277192.000000, 3049.000000, 8171.000000, 8177.500000, 8165.000000
2919, 197277352.000000, 3034.875000, 8170.500000, 8178.500000, 8165.500000
2920, 197277512.000000, 2911.000000, 8170.500000, 8180.500000, 8167.500000
2921, 197277672.000000, 2746.125000, 8174.000000, 8173.500000, 8162.500000
2922, 197277832.000000, 2592.875000, 8182.000000, 8185.500000, 8189.500000
2923, 197277992.000000, 2453.000000, 8195.000000, 8196.000000, 8213.000000
2924, 197278152.000000, 2314.875000, 8196.000000, 8181.000000, 8182.500000
2925, 197278312.000000, 2176.250000, 8177.000000, 8167.500000, 8157.000000
2926, 197278472.000000, 2057.875000, 8169.500000, 8159.000000, 8143.000000
2927, 197278632.000000, 1997.625000, 8170.500000, 8153.000000, 8136.000000
2928, 197278792.000000, 1981.250000, 8171.500000, 8138.000000, 8113.500000
2929, 197278952.000000, 1990.500000, 8331.500000, 8188.000000, 8260.000000
2930, 197279112.000000, 1988.125000, 8295.000000, 7941.000000, 7985.500000
2931, 197279272.000000, 1954.875000, 8146.500000, 8105.000000, 8052.000000
2932, 197279432.000000, 1879.875000, 8179.000000, 8168.500000, 8159.000000
2933, 197279592.000000, 1759.625000, 8182.500000, 8172.500000, 8163.500000
2934, 197279752.000000, 1612.000000, 8185.000000, 8177.000000, 8170.000000
2935, 197279912.000000, 1453.250000, 8195.000000, 8181.500000, 8179.000000
2936, 197280072.000000, 1308.375000, 8204.500000, 8182.500000, 8184.000000
2937, 197280232.000000, 1182.250000, 8212.000000, 8178.000000, 8184.000000
2938, 197280392.000000, 1089.625000, 8223.000000, 8177.500000, 8189.000000
2939, 197280552.000000, 1034.000000, 8230.500000, 8181.500000, 8195.500000
2940, 197280712.000000, 1012.000000, 8243.000000, 8177.500000, 8196.500000
2941, 197280872.000000, 1022.000000, 8250.000000, 8171.500000, 8195.500000
2942, 197281032.000000, 1048.625000, 8252.000000, 8158.000000, 8182.000000
2943, 197281192.000000, 1078.875000, 8233.000000, 8149.500000, 8169.500000
2944, 197281352.000000, 1105.250000, 8191.500000, 8156.000000, 8161.500000
2945, 197281512.000000, 1128.625000, 8165.000000, 8152.000000, 8144.500000
2946, 197281672.000000, 1146.500000, 8154.000000, 8145.500000, 8129.500000
2947, 197281832.000000, 1151.375000, 8147.500000, 8139.500000, 8120.000000
2948, 197281992.000000, 1139.750000, 8147.000000, 8139.000000, 8118.500000
2949, 197282152.000000, 1103.500000, 8152.000000, 8138.000000, 8119.000000
2950, 197282312.000000, 1044.125000, 8156.500000, 8141.500000, 8125.500000
2951, 197282472.000000, 966.000000, 8158.500000, 8138.000000, 8122.000000
2952, 197282632.000000, 896.250000, 8161.500000, 8130.500000, 8116.500000
2953, 197282792.000000, 909.250000, 8163.500000, 8126.500000, 8113.000000
2954, 197282952.000000, 1136.000000, 8159.500000, 8125.000000, 8109.000000
2955, 197283112.000000, 1599.125000, 8159.500000, 8125.000000, 8111.000000
2956, 197283272.000000, 2181.625000, 8159.500000, 8123.000000, 8107.500000
2957, 197283432.000000, 2668.250000, 8162.000000, 8117.000000, 8102.000000
2958, 197283592.000000, 2964.250000, 8161.000000, 8114.000000, 8098.500000
2959, 197283752.000000, 3047.750000, 8161.500000, 8122.000000, 8107.000000
2960, 197283912.000000, 2989.750000, 8161.000000, 8121.000000, 8107.500000
2961, 197284072.000000, 2852.500000, 8165.000000, 8127.500000, 8116.000000
2962, 197284232.000000, 2704.000000, 8175.000000, 8142.000000, 8148.000000
2963, 197284392.000000, 2569.500000, 8189.000000, 8142.500000, 8150.500000
2964, 197284552.000000, 2442.625000, 8181.500000, 8131.500000, 8128.000000
2965, 197284712.000000, 2311.250000, 8160.000000, 8125.500000, 8106.500000
2966, 197284872.000000, 2185.125000, 8156.500000, 8126.500000, 8107.000000
2967, 197285032.000000, 2105.000000, 8160.500000, 8126.000000, 8105.500000
2968, 197285192.000000, 2068.000000, 8185.000000, 8140.000000, 8126.500000
2969, 197285352.000000, 2052.500000, 8439.500000, 8056.000000, 8188.000000
2970, 197285512.000000, 2034.500000, 8100.000000, 7986.000000, 7926.000000
2971, 197285672.000000, 1994.875000, 8168.000000, 8137.000000, 8118.000000
2972, 197285832.000000, 1930.250000, 8171.000000, 8155.000000, 8143.500000
2973, 197285992.000000, 1848.125000, 8176.000000, 8159.500000, 8150.000000
2974, 197286152.000000, 1758.500000, 8180.000000, 8170.000000, 8163.500000
2975, 197286312.000000, 1669.750000, 8191.000000, 8177.500000, 8174.500000
2976, 197286472.000000, 1589.125000, 8202.500000, 8180.500000, 8183.500000
2977, 197286632.000000, 1511.625000, 8208.000000, 8185.000000, 8190.500000
2978, 197286792.000000, 1429.750000, 8220.000000, 8185.000000, 8194.500000
2979, 197286952.000000, 1343.750000, 8232.000000, 8189.000000, 8204.500000
2980, 197287112.000000, 1265.500000, 8240.000000, 8191.000000, 8212.000000
2981, 197287272.000000, 1205.125000, 8249.000000, 8185.000000, 8210.000000
2982, 197287432.000000, 1172.375000, 8247.000000, 8176.500000, 8202.000000
2983, 197287592.000000, 1165.375000, 8219.000000, 8179.000000, 8195.000000
2984, 197287752.000000, 1171.500000, 8176.500000, 8186.000000, 8185.500000
2985, 197287912.000000, 1178.000000, 8152.500000, 8186.500000, 8173.500000
2986, 197288072.000000, 1172.500000, 8147.000000, 8183.000000, 8166.000000
2987, 197288232.000000, 1154.500000, 8148.500000, 8179.500000, 8160.000000
2988, 197288392.000000, 1112.375000, 8148.000000, 8182.500000, 8164.500000
2989, 197288552.000000, 1053.750000, 8154.500000, 8187.000000, 8172.000000
2990, 197288712.000000, 982.125000, 8160.000000, 8186.000000, 8174.000000
2991, 197288872.000000, 904.000000, 8160.500000, 8183.000000, 8170.500000
2992, 197289032.000000, 845.625000, 8161.000000, 8179.000000, 8165.500000
2993, 197289192.000000, 898.000000, 8160.500000, 8175.000000, 8161.500000
2994, 197289352.000000, 1183.750000, 8160.500000, 8176.000000, 8162.500000
2995, 197289512.000000, 1688.125000, 8162.000000, 8183.500000, 8170.500000
2996, 197289672.000000, 2266.375000, 8163.000000, 8175.500000, 8162.500000
2997, 197289832.000000, 2721.500000, 8163.000000, 8169.500000, 8154.500000
2998, 197289992.000000, 2982.750000, 8161.000000, 8170.000000, 8155.500000
2999, 197290152.000000, 3038.750000, 8164.500000, 8173.500000, 8160.500000
3000, 197290312.000000, 2971.000000, 8166.500000, 8180.000000, 8167.500000
3001, 197290472.000000, 2842.625000, 8179.500000, 8189.500000, 8196.000000
3002, 197290632.000000, 2703.375000, 8192.500000, 8194.000000, 8209.000000
3003, 197290792.000000, 2575.750000, 8190.000000, 8176.000000, 8174.000000
3004, 197290952.000000, 2446.250000, 8171.000000, 8167.500000, 8155.000000
3005, 197291112.000000, 2309.625000, 8167.000000, 8166.000000, 8151.000000
3006, 197291272.000000, 2193.875000, 8167.000000, 8162.500000, 8145.500000
3007, 197291432.000000, 2134.875000, 8167.500000, 8150.000000, 8125.000000
3008, 197291592.000000, 2127.625000, 8357.500000, 8204.000000, 8292.500000
3009, 197291752.000000, 2140.750000, 8263.000000, 7973.500000, 8002.000000
3010, 197291912.000000, 2143.375000, 8149.500000, 8130.500000, 8083.500000
3011, 197292072.000000, 2119.375000, 8174.500000, 8183.500000, 8173.000000
3012, 197292232.000000, 2061.125000, 8177.000000, 8184.500000, 8175.500000
3013, 197292392.000000, 1975.875000, 8180.000000, 8189.500000, 8181.000000
3014, 197292552.000000, 1876.375000, 8185.000000, 8199.500000, 8195.000000
3015, 197292712.000000, 1762.000000, 8193.000000, 8207.000000, 8206.500000
3016, 197292872.000000, 1637.625000, 8202.000000, 8207.500000, 8209.500000
3017, 197293032.000000, 1513.375000, 8212.500000, 8206.500000, 8214.000000
3018, 197293192.000000, 1396.625000, 8221.000000, 8211.000000, 8223.000000
3019, 197293352.000000, 1292.375000, 8231.500000, 8215.500000, 8232.500000
3020, 197293512.000000, 1199.625000, 8239.000000, 8213.500000, 8235.500000
3021, 197293672.000000, 1112.750000, 8238.500000, 8204.500000, 8227.500000
3022, 197293832.000000, 1041.250000, 8221.000000, 8195.000000, 8210.500000
3023, 197293992.000000, 994.250000, 8181.500000, 8195.000000, 8196.000000
3024, 197294152.000000, 969.000000, 8152.000000, 8196.500000, 8183.000000
3025, 197294312.000000, 948.375000, 8141.500000, 8194.500000, 8176.000000
3026, 197294472.000000, 920.125000, 8142.000000, 8191.500000, 8170.500000
3027, 197294632.000000, 879.125000, 8147.000000, 8190.000000, 8167.000000
3028, 197294792.000000, 827.000000, 8183.000000, 8211.000000, 8171.000000
3029, 197294952.000000, 761.875000, 8249.500000, 8258.000000, 8182.500000
3030, 197295112.000000, 676.000000, 8291.000000, 8284.000000, 8185.500000
3031, 197295272.000000, 568.875000, 8312.000000, 8292.500000, 8183.000000
3032, 197295432.000000, 469.250000, 8325.000000, 8292.000000, 8177.000000
3033, 197295592.000000, 473.125000, 8330.500000, 8292.000000, 8174.500000
3034, 197295752.000000, 716.750000, 8331.500000, 8292.500000, 8175.000000
3035, 197295912.000000, 1174.750000, 8332.500000, 8287.500000, 8173.500000
3036, 197296072.000000, 1683.125000, 8330.000000, 8278.500000, 8165.000000
3037, 197296232.000000, 2050.375000, 8327.500000, 8273.000000, 8162.500000
3038, 197296392.000000, 2223.625000, 8327.000000, 8271.000000, 8165.000000
3039, 197296552.000000, 2203.625000, 8336.000000, 8298.500000, 8217.000000
3040, 197296712.000000, 2068.000000, 8343.500000, 8304.500000, 8237.000000
3041, 197296872.000000, 1880.875000, 8336.500000, 8273.000000, 8190.500000
3042, 197297032.000000, 1686.375000, 8309.000000, 8247.000000, 8150.500000
3043, 197297192.000000, 1492.625000, 8303.000000, 8244.000000, 8147.000000
3044, 197297352.000000, 1292.875000, 8303.500000, 8251.000000, 8156.500000
3045, 197297512.000000, 1098.000000, 8315.500000, 8249.500000, 8149.000000
3046, 197297672.000000, 955.875000, 8462.000000, 8149.000000, 8144.000000
3047, 197297832.000000, 906.250000, 8288.500000, 7987.500000, 7851.000000
3048, 197297992.000000, 920.875000, 8337.000000, 8266.000000, 8136.000000
3049, 197298152.000000, 957.125000, 8373.500000, 8332.000000, 8211.000000
3050, 197298312.000000, 967.125000, 8389.500000, 8348.000000, 8222.000000
3051, 197298472.000000, 929.125000, 8397.500000, 8347.000000, 8221.500000
3052, 197298632.000000, 835.750000, 8395.500000, 8338.500000, 8220.500000
3053, 197298792.000000, 697.875000, 8395.500000, 8338.500000, 8228.500000
3054, 197298952.000000, 532.375000, 8394.000000, 8339.000000, 8244.000000
3055, 197299112.000000, 364.000000, 8389.500000, 8333.000000, 8252.000000
3056, 197299272.000000, 223.250000, 8386.500000, 8323.000000, 8254.000000
3057, 197299432.000000, 122.375000, 8382.500000, 8309.000000, 8254.500000
3058, 197299592.000000, 65.875000, 8379.000000, 8296.500000, 8255.500000
3059, 197299752.000000, 52.375000, 8359.000000, 8283.000000, 8253.500000
3060, 197299912.000000, 60.000000, 8322.500000, 8262.500000, 8236.000000
3061, 197300072.000000, 81.625000, 8273.000000, 8239.500000, 8204.000000
3062, 197300232.000000, 106.250000, 8238.500000, 8216.500000, 8176.500000
3063, 197300392.000000, 131.250000, 8222.500000, 8204.500000, 8163.000000
3064, 197300552.000000, 156.125000, 8217.500000, 8203.000000, 8162.500000
3065, 197300712.000000, 178.625000, 8217.500000, 8201.000000, 8164.500000
3066, 197300872.000000, 196.500000, 8217.000000, 8193.000000, 8158.000000
3067, 197301032.000000, 204.250000, 8218.000000, 8182.000000, 8149.000000
3068, 197301192.000000, 204.625000, 8221.500000, 8178.000000, 8145.000000
3069, 197301352.000000, 195.750000, 8224.500000, 8176.500000, 8142.500000
3070, 197301512.000000, 230.875000, 8228.000000, 8175.000000, 8138.000000
3071, 197301672.000000, 472.875000, 8229.500000, 8166.500000, 8127.000000
3072, 197301832.000000, 986.750000, 8231.000000, 8159.000000, 8118.000000
3073, 197301992.000000, 1682.875000, 8233.000000, 8160.000000, 8117.000000
3074, 197302152.000000, 2316.875000, 8234.500000, 8159.500000, 8117.000000
3075, 197302312.000000, 2738.625000, 8245.000000, 8178.500000, 8156.000000
3076, 197302472.000000, 2922.625000, 8255.000000, 8189.500000, 8180.000000
3077, 197302632.000000, 2921.625000, 8261.000000, 8165.500000, 8143.000000
3078, 197302792.000000, 2828.625000, 8238.500000, 8139.000000, 8101.000000
3079, 197302952.000000, 2700.125000, 8227.000000, 8128.500000, 8083.000000
3080, 197303112.000000, 2577.375000, 8227.500000, 8123.500000, 8079.500000
3081, 197303272.000000, 2464.250000, 8231.000000, 8113.000000, 8064.500000
3082, 197303432.000000, 2335.375000, 8328.000000, 8127.000000, 8140.000000
3083, 197303592.000000, 2203.750000, 8393.500000, 7802.000000, 7834.500000
3084, 197303752.000000, 2102.750000, 8191.000000, 8049.500000, 7968.000000
3085, 197303912.000000, 2057.375000, 8235.000000, 8144.000000, 8118.000000
3086, 197304072.000000, 2049.250000, 8237.000000, 8146.000000, 8121.000000
3087, 197304232.000000, 2055.875000, 8244.000000, 8143.500000, 8122.500000
3088, 197304392.000000, 2057.250000, 8246.500000, 8147.000000, 8128.500000
3089, 197304552.000000, 2031.625000, 8251.500000, 8156.000000, 8143.000000
3090, 197304712.000000, 1973.250000, 8258.500000, 8158.500000, 8153.000000
3091, 197304872.000000, 1884.750000, 8265.000000, 8156.000000, 8156.000000
3092, 197305032.000000, 1772.125000, 8274.500000, 8157.000000, 8163.000000
3093, 197305192.000000, 1654.000000, 8280.000000, 8161.500000, 8173.500000
3094, 197305352.000000, 1540.625000, 8287.500000, 8162.000000, 8181.500000
3095, 197305512.000000, 1437.000000, 8288.000000, 8155.500000, 8178.500000
3096, 197305672.000000, 1346.375000, 8269.500000, 8145.000000, 8163.500000
3097, 197305832.000000, 1280.625000, 8230.000000, 8135.000000, 8138.500000
3098, 197305992.000000, 1233.375000, 8196.000000, 8129.000000, 8119.000000
3099, 197306152.000000, 1205.375000, 8180.500000, 8108.500000, 8095.000000
3100, 197306312.000000, 1188.750000, 8176.500000, 8102.000000, 8089.000000
3101, 197306472.000000, 1184.750000, 8177.000000, 8102.000000, 8091.000000
3102, 197306632.000000, 1179.500000, 8176.500000, 8114.000000, 8102.000000
3103, 197306792.000000, 1167.250000, 8182.000000, 8123.500000, 8116.500000
3104, 197306952.000000, 1140.250000, 8179.500000, 8135.000000, 8129.000000
3105, 197307112.000000, 1102.375000, 8179.000000, 8141.000000, 8137.500000
3106, 197307272.000000, 1075.875000, 8179.000000, 8140.000000, 8135.000000
3107, 197307432.000000, 1159.625000, 8173.500000, 8141.500000, 8134.500000
3108, 197307592.000000, 1464.000000, 8174.000000, 8147.000000, 8142.000000
3109, 197307752.000000, 1982.750000, 8173.000000, 8151.000000, 8146.000000
3110, 197307912.000000, 2542.000000, 8171.000000, 8151.500000, 8146.500000
3111, 197308072.000000, 2960.625000, 8172.500000, 8148.500000, 8142.000000
3112, 197308232.000000, 3179.375000, 8180.500000, 8158.000000, 8165.500000
3113, 197308392.000000, 3216.750000, 8190.000000, 8177.000000, 8199.500000
3114, 197308552.000000, 3135.000000, 8204.000000, 8164.500000, 8182.500000
3115, 197308712.000000, 3004.375000, 8181.000000, 8131.500000, 8132.000000
3116, 197308872.000000, 2867.625000, 8162.500000, 8110.000000, 8097.500000
3117, 197309032.000000, 2742.375000, 8161.500000, 8102.000000, 8089.000000
3118, 197309192.000000, 2622.125000, 8159.500000, 8103.500000, 8088.000000
3119, 197309352.000000, 2509.125000, 8245.500000, 8144.000000, 8180.500000
3120, 197309512.000000, 2422.000000, 8393.500000, 7838.000000, 7947.000000
3121, 197309672.000000, 2377.125000, 8101.500000, 8003.500000, 7941.500000
3122, 197309832.000000, 2363.625000, 8165.000000, 8128.000000, 8133.000000
3123, 197309992.000000, 2355.875000, 8165.000000, 8146.000000, 8153.000000
3124, 197310152.000000, 2327.625000, 8168.000000, 8157.500000, 8168.500000
3125, 197310312.000000, 2269.500000, 8168.000000, 8161.000000, 8175.000000
3126, 197310472.000000, 2184.625000, 8172.500000, 8160.000000, 8180.000000
3127, 197310632.000000, 2074.250000, 8177.500000, 8162.500000, 8188.000000
3128, 197310792.000000, 1953.625000, 8183.500000, 8170.500000, 8203.000000
3129, 197310952.000000, 1826.750000, 8190.000000, 8179.000000, 8219.000000
3130, 197311112.000000, 1705.250000, 8197.000000, 8180.500000, 8229.000000
3131, 197311272.000000, 1597.000000, 8202.000000, 8173.000000, 8227.000000
3132, 197311432.000000, 1505.250000, 8199.000000, 8167.000000, 8222.500000
3133, 197311592.000000, 1437.000000, 8186.500000, 8164.500000, 8222.500000
3134, 197311752.000000, 1390.375000, 8151.500000, 8167.500000, 8214.500000
3135, 197311912.000000, 1362.375000, 8117.500000, 8160.000000, 8195.000000
3136, 197312072.000000, 1341.000000, 8103.500000, 8153.500000, 8180.500000
3137, 197312232.000000, 1323.875000, 8097.000000, 8152.000000, 8176.000000
3138, 197312392.000000, 1311.500000, 8096.000000, 8156.500000, 8181.500000
3139, 197312552.000000, 1303.125000, 8097.500000, 8165.000000, 8193.000000
3140, 197312712.000000, 1295.375000, 8097.500000, 8168.000000, 8199.000000
3141, 197312872.000000, 1277.750000, 8098.000000, 8164.500000, 8196.500000
3142, 197313032.000000, 1247.000000, 8099.500000, 8162.000000, 8194.500000
3143, 197313192.000000, 1210.750000, 8099.000000, 8167.000000, 8200.000000
3144, 197313352.000000, 1255.875000, 8095.000000, 8175.000000, 8207.500000
3145, 197313512.000000, 1493.875000, 8096.500000, 8173.000000, 8207.500000
3146, 197313672.000000, 1955.000000, 8094.000000, 8176.500000, 8209.000000
3147, 197313832.000000, 2487.250000, 8092.000000, 8178.500000, 8211.000000
3148, 197313992.000000, 2912.875000, 8092.000000, 8187.500000, 8221.500000
3149, 197314152.000000, 3129.250000, 8103.000000, 8204.500000, 8253.500000
3150, 197314312.000000, 3165.000000, 8110.000000, 8223.000000, 8287.500000
3151, 197314472.000000, 3079.875000, 8121.000000, 8214.500000, 8271.000000
3152, 197314632.000000, 2952.500000, 8103.000000, 8194.500000, 8233.000000
3153, 197314792.000000, 2825.375000, 8090.000000, 8192.000000, 8220.000000
3154, 197314952.000000, 2707.125000, 8089.000000, 8202.500000, 8230.500000
3155, 197315112.000000, 2579.000000, 8090.500000, 8204.000000, 8230.500000
3156, 197315272.000000, 2436.875000, 8184.500000, 8249.500000, 8325.500000
3157, 197315432.000000, 2310.750000, 8338.500000, 7986.500000, 8140.000000
3158, 197315592.000000, 2233.875000, 8039.000000, 8123.000000, 8095.500000
3159, 197315752.000000, 2205.875000, 8101.500000, 8252.000000, 8288.500000
3160, 197315912.000000, 2206.250000, 8099.500000, 8264.000000, 8298.500000
3161, 197316072.000000, 2210.000000, 8107.500000, 8266.000000, 8301.500000
3162, 197316232.000000, 2200.750000, 8115.000000, 8269.500000, 8307.000000
3163, 197316392.000000, 2162.250000, 8123.500000, 8281.000000, 8322.500000
3164, 197316552.000000, 2096.000000, 8131.500000, 8294.500000, 8341.000000
3165, 197316712.000000, 2008.250000, 8142.000000, 8299.000000, 8347.000000
3166, 197316872.000000, 1910.000000, 8152.500000, 8297.000000, 8349.000000
3167, 197317032.000000, 1811.625000, 8159.000000, 8295.500000, 8349.500000
3168, 197317192.000000, 1718.500000, 8170.500000, 8301.000000, 8359.500000
3169, 197317352.000000, 1631.375000, 8171.500000, 8303.000000, 8363.500000
3170, 197317512.000000, 1556.500000, 8162.000000, 8294.000000, 8350.000000
3171, 197317672.000000, 1494.250000, 8130.000000, 8280.500000, 8324.000000
3172, 197317832.000000, 1444.750000, 8103.500000, 8275.500000, 8303.500000
3173, 197317992.000000, 1402.625000, 8091.500000, 8276.000000, 8298.000000
3174, 197318152.000000, 1367.250000, 8089.500000, 8276.000000, 8294.500000
3175, 197318312.000000, 1330.625000, 8095.500000, 8268.000000, 8288.500000
3176, 197318472.000000, 1294.875000, 8100.000000, 8263.000000, 8283.000000
3177, 197318632.000000, 1249.750000, 8106.500000, 8258.000000, 8280.000000
3178, 197318792.000000, 1201.500000, 8110.500000, 8259.000000, 8281.500000
3179, 197318952.000000, 1147.000000, 8112.000000, 8252.500000, 8274.500000
3180, 197319112.000000, 1088.875000, 8112.500000, 8242.500000, 8263.500000
3181, 197319272.000000, 1075.250000, 8113.500000, 8229.000000, 8249.500000
3182, 197319432.000000, 1186.125000, 8114.000000, 8221.500000, 8240.500000
3183, 197319592.000000, 1519.125000, 8117.000000, 8223.000000, 8242.000000
3184, 197319752.000000, 1992.250000, 8119.000000, 8220.500000, 8238.500000
3185, 197319912.000000, 2441.500000, 8125.500000, 8220.000000, 8245.500000
3186, 197320072.000000, 2716.875000, 8132.000000, 8228.000000, 8267.000000
3187, 197320232.000000, 2799.125000, 8148.500000, 8229.500000, 8274.500000
3188, 197320392.000000, 2721.875000, 8137.500000, 8199.500000, 8224.500000
3189, 197320552.000000, 2556.125000, 8116.000000, 8181.500000, 8192.500000
3190, 197320712.000000, 2358.875000, 8116.500000, 8171.000000, 8179.500000
3191, 197320872.000000, 2153.125000, 8116.500000, 8162.000000, 8170.500000
3192, 197321032.000000, 1942.375000, 8164.000000, 8197.000000, 8227.500000
3193, 197321192.000000, 1732.375000, 8316.500000, 7941.000000, 8066.000000
3194, 197321352.000000, 1564.875000, 8041.000000, 7980.000000, 7935.500000
3195, 197321512.000000, 1477.375000, 8128.000000, 8162.500000, 8180.000000
3196, 197321672.000000, 1479.125000, 8130.500000, 8172.500000, 8195.500000
3197, 197321832.000000, 1527.125000, 8136.000000, 8172.000000, 8196.000000
3198, 197321992.000000, 1571.750000, 8143.500000, 8179.000000, 8207.500000
3199, 197322152.000000, 1565.875000, 8145.500000, 8182.000000, 8217.000000
3200, 197322312.000000, 1492.250000, 8154.000000, 8181.000000, 8218.500000
3201, 197322472.000000, 1364.375000, 8168.500000, 8181.500000, 8219.500000
3202, 197322632.000000, 1208.875000, 8184.000000, 8185.500000, 8223.500000
3203, 197322792.000000, 1048.250000, 8197.500000, 8191.500000, 8233.000000
3204, 197322952.000000, 904.625000, 8206.000000, 8188.500000, 8234.500000
3205, 197323112.000000, 788.000000, 8207.000000, 8175.000000, 8220.000000
3206, 197323272.000000, 706.375000, 8199.000000, 8152.000000, 8195.500000
3207, 197323432.000000, 662.875000, 8174.000000, 8144.000000, 8177.000000
3208, 197323592.000000, 641.625000, 8145.500000, 8137.000000, 8156.000000
3209, 197323752.000000, 638.000000, 8134.500000, 8133.000000, 8141.500000
3210, 197323912.000000, 650.125000, 8134.500000, 8125.500000, 8129.000000
3211, 197324072.000000, 675.500000, 8137.000000, 8123.000000, 8125.000000
3212, 197324232.000000, 709.875000, 8140.500000, 8121.500000, 8122.000000
3213, 197324392.000000, 747.750000, 8146.000000, 8122.500000, 8125.000000
3214, 197324552.000000, 774.625000, 8148.500000, 8121.500000, 8126.500000
3215, 197324712.000000, 784.875000, 8146.000000, 8113.000000, 8117.500000
3216, 197324872.000000, 783.625000, 8137.500000, 8101.000000, 8109.000000
3217, 197325032.000000, 792.375000, 8141.500000, 8104.500000, 8108.000000
3218, 197325192.000000, 926.875000, 8166.500000, 8124.000000, 8111.500000
3219, 197325352.000000, 1283.750000, 8186.000000, 8139.500000, 8117.000000
3220, 197325512.000000, 1837.750000, 8210.000000, 8167.000000, 8155.000000
3221, 197325672.000000, 2398.750000, 8233.000000, 8189.500000, 8187.000000
3222, 197325832.000000, 2815.250000, 8237.500000, 8166.000000, 8141.500000
3223, 197325992.000000, 3011.375000, 8212.000000, 8146.000000, 8100.500000
3224, 197326152.000000, 3039.000000, 8206.000000, 8140.500000, 8093.000000
3225, 197326312.000000, 2953.250000, 8200.000000, 8134.000000, 8087.000000
3226, 197326472.000000, 2816.750000, 8205.500000, 8124.500000, 8074.000000
3227, 197326632.000000, 2670.500000, 8345.500000, 8088.500000, 8147.000000
3228, 197326792.000000, 2518.000000, 8169.500000, 7849.500000, 7802.000000
3229, 197326952.000000, 2357.000000, 8175.000000, 8109.500000, 8065.500000
3230, 197327112.000000, 2209.375000, 8191.000000, 8158.000000, 8140.500000
3231, 197327272.000000, 2117.125000, 8193.000000, 8161.500000, 8149.500000
3232, 197327432.000000, 2087.500000, 8196.500000, 8164.500000, 8155.000000
3233, 197327592.000000, 2105.875000, 8202.000000, 8172.000000, 8166.000000
3234, 197327752.000000, 2133.125000, 8212.000000, 8181.500000, 8180.000000
3235, 197327912.000000, 2144.750000, 8234.500000, 8188.000000, 8180.000000
3236, 197328072.000000, 2122.625000, 8272.000000, 8208.000000, 8183.500000
3237, 197328232.000000, 2061.250000, 8303.000000, 8227.500000, 8197.000000
3238, 197328392.000000, 1973.000000, 8305.000000, 8227.500000, 8203.500000
3239, 197328552.000000, 1868.500000, 8293.000000, 8212.500000, 8207.000000
3240, 197328712.000000, 1759.625000, 8263.000000, 8187.000000, 8195.500000
3241, 197328872.000000, 1653.375000, 8212.000000, 8155.000000, 8173.000000
3242, 197329032.000000, 1558.500000, 8153.500000, 8133.000000, 8155.500000
3243, 197329192.000000, 1473.625000, 8118.000000, 8125.500000, 8149.000000
3244, 197329352.000000, 1405.000000, 8112.000000, 8126.500000, 8145.000000
3245, 197329512.000000, 1350.125000, 8112.000000, 8122.000000, 8138.000000
3246, 197329672.000000, 1311.625000, 8116.500000, 8119.500000, 8136.500000
3247, 197329832.000000, 1286.375000, 8121.000000, 8126.000000, 8142.000000
3248, 197329992.000000, 1264.750000, 8127.500000, 8136.500000, 8152.500000
3249, 197330152.000000, 1239.125000, 8131.000000, 8140.500000, 8156.500000
3250, 197330312.000000, 1200.500000, 8131.000000, 8143.000000, 8155.000000
3251, 197330472.000000, 1159.375000, 8134.000000, 8139.500000, 8150.000000
3252, 197330632.000000, 1181.000000, 8134.500000, 8146.000000, 8155.500000
3253, 197330792.000000, 1396.250000, 8133.000000, 8155.500000, 8165.000000
3254, 197330952.000000, 1826.750000, 8144.000000, 8181.000000, 8204.000000
3255, 197331112.000000, 2371.625000, 8150.000000, 8201.000000, 8236.000000
3256, 197331272.000000, 2840.625000, 8163.500000, 8200.000000, 8234.000000
3257, 197331432.000000, 3130.875000, 8143.000000, 8179.500000, 8195.000000
3258, 197331592.000000, 3233.500000, 8127.000000, 8175.000000, 8179.000000
3259, 197331752.000000, 3200.375000, 8125.500000, 8181.500000, 8184.000000
3260, 197331912.000000, 3084.875000, 8124.500000, 8182.500000, 8181.500000
3261, 197332072.000000, 2938.500000, 8201.500000, 8222.000000, 8263.500000
3262, 197332232.000000, 2790.500000, 8343.500000, 7927.000000, 8045.000000
3263, 197332392.000000, 2639.875000, 8064.500000, 8080.000000, 8025.500000
3264, 197332552.000000, 2495.875000, 8131.000000, 8227.000000, 8241.000000
3265, 197332712.000000, 2392.000000, 8131.500000, 8242.500000, 8253.000000
3266, 197332872.000000, 2349.625000, 8135.000000, 8248.500000, 8257.500000
3267, 197333032.000000, 2356.625000, 8135.500000, 8261.000000, 8268.500000
3268, 197333192.000000, 2386.500000, 8134.500000, 8275.500000, 8283.000000
3269, 197333352.000000, 2407.500000, 8132.500000, 8289.000000, 8294.500000
3270, 197333512.000000, 2398.000000, 8129.500000, 8300.500000, 8302.000000
3271, 197333672.000000, 2344.500000, 8121.500000, 8312.500000, 8307.000000
3272, 197333832.000000, 2250.250000, 8112.000000, 8334.500000, 8322.500000
3273, 197333992.000000, 2127.875000, 8098.000000, 8349.500000, 8330.000000
3274, 197334152.000000, 1986.875000, 8071.500000, 8359.000000, 8329.000000
3275, 197334312.000000, 1848.875000, 8037.500000, 8362.000000, 8318.000000
3276, 197334472.000000, 1725.250000, 7990.000000, 8364.000000, 8298.000000
3277, 197334632.000000, 1617.000000, 7958.500000, 8369.000000, 8286.500000
3278, 197334792.000000, 1529.250000, 7950.000000, 8374.500000, 8284.500000
3279, 197334952.000000, 1460.375000, 7958.500000, 8374.500000, 8285.000000
3280, 197335112.000000, 1408.875000, 7978.500000, 8366.500000, 8279.500000
3281, 197335272.000000, 1371.500000, 7991.000000, 8367.500000, 8280.500000
3282, 197335432.000000, 1341.375000, 7986.500000, 8386.000000, 8287.500000
3283, 197335592.000000, 1306.625000, 7990.000000, 8413.000000, 8288.500000
3284, 197335752.000000, 1265.625000, 7989.500000, 8424.000000, 8286.500000
3285, 197335912.000000, 1219.750000, 7980.500000, 8419.000000, 8273.500000
3286, 197336072.000000, 1198.375000, 7980.000000, 8422.000000, 8270.000000
3287, 197336232.000000, 1301.125000, 7988.500000, 8427.000000, 8274.500000
3288, 197336392.000000, 1613.125000, 8004.000000, 8441.000000, 8297.000000
3289, 197336552.000000, 2118.250000, 8024.500000, 8453.500000, 8328.500000
3290, 197336712.000000, 2638.750000, 8056.000000, 8446.000000, 8334.500000
3291, 197336872.000000, 3021.875000, 8053.500000, 8406.000000, 8277.000000
3292, 197337032.000000, 3212.625000, 8044.500000, 8386.000000, 8249.000000
3293, 197337192.000000, 3227.750000, 8057.000000, 8377.500000, 8246.500000
3294, 197337352.000000, 3137.125000, 8063.500000, 8373.000000, 8248.500000
3295, 197337512.000000, 2991.875000, 8118.500000, 8396.500000, 8295.500000
3296, 197337672.000000, 2835.000000, 8326.000000, 8203.500000, 8227.500000
3297, 197337832.000000, 2675.375000, 8013.500000, 8193.000000, 8027.000000
3298, 197337992.000000, 2519.750000, 8104.500000, 8365.000000, 8265.000000
3299, 197338152.000000, 2390.750000, 8110.500000, 8374.000000, 8283.000000
3300, 197338312.000000, 2314.000000, 8115.500000, 8371.500000, 8283.000000
3301, 197338472.000000, 2292.375000, 8126.500000, 8369.000000, 8288.500000
3302, 197338632.000000, 2301.625000, 8128.000000, 8370.000000, 8293.000000
3303, 197338792.000000, 2311.250000, 8135.500000, 8374.500000, 8307.000000
3304, 197338952.000000, 2303.500000, 8144.000000, 8376.500000, 8312.000000
3305, 197339112.000000, 2260.375000, 8148.500000, 8373.000000, 8310.500000
3306, 197339272.000000, 2178.000000, 8152.500000, 8370.500000, 8307.500000
3307, 197339432.000000, 2068.000000, 8152.500000, 8363.000000, 8304.000000
3308, 197339592.000000, 1945.875000, 8148.500000, 8360.500000, 8302.000000
3309, 197339752.000000, 1826.625000, 8138.500000, 8353.500000, 8288.500000
3310, 197339912.000000, 1719.250000, 8107.000000, 8347.000000, 8268.500000
3311, 197340072.000000, 1632.625000, 8081.500000, 8337.000000, 8245.000000
3312, 197340232.000000, 1568.625000, 8068.500000, 8331.500000, 8234.500000
3313, 197340392.000000, 1527.500000, 8067.000000, 8329.500000, 8229.500000
3314, 197340552.000000, 1504.250000, 8079.000000, 8325.500000, 8225.500000
3315, 197340712.000000, 1494.750000, 8108.000000, 8330.500000, 8216.500000
3316, 197340872.000000, 1494.125000, 8155.000000, 8352.000000, 8211.500000
3317, 197341032.000000, 1493.750000, 8203.500000, 8377.000000, 8209.000000
3318, 197341192.000000, 1486.000000, 8229.500000, 8383.500000, 8205.000000
3319, 197341352.000000, 1459.875000, 8228.500000, 8374.500000, 8199.000000
3320, 197341512.000000, 1437.500000, 8228.500000, 8355.500000, 8182.500000
3321, 197341672.000000, 1488.125000, 8237.000000, 8344.000000, 8169.500000
3322, 197341832.000000, 1724.125000, 8246.500000, 8337.500000, 8172.000000
3323, 197341992.000000, 2154.000000, 8254.500000, 8310.000000, 8169.000000
3324, 197342152.000000, 2669.125000, 8261.500000, 8302.000000, 8177.500000
3325, 197342312.000000, 3091.875000, 8236.000000, 8239.000000, 8106.500000
3326, 197342472.000000, 3341.750000, 8189.500000, 8199.500000, 8067.000000
3327, 197342632.000000, 3400.375000, 8163.500000, 8162.500000, 8048.500000
3328, 197342792.000000, 3338.375000, 8155.500000, 8131.000000, 8029.000000
3329, 197342952.000000, 3213.000000, 8189.500000, 8154.000000, 8072.500000
3330, 197343112.000000, 3066.500000, 8415.500000, 7964.000000, 8014.000000
3331, 197343272.000000, 2913.625000, 8089.500000, 7955.500000, 7800.500000
3332, 197343432.000000, 2755.500000, 8179.500000, 8129.000000, 8039.000000
3333, 197343592.000000, 2619.000000, 8183.500000, 8142.000000, 8059.500000
3334, 197343752.000000, 2531.000000, 8187.000000, 8143.000000, 8069.000000
3335, 197343912.000000, 2510.625000, 8191.000000, 8137.000000, 8068.000000
3336, 197344072.000000, 2533.750000, 8196.500000, 8139.500000, 8080.000000
3337, 197344232.000000, 2565.250000, 8199.000000, 8149.500000, 8098.500000
3338, 197344392.000000, 2569.875000, 8207.000000, 8152.500000, 8109.000000
3339, 197344552.000000, 2527.750000, 8214.000000, 8155.000000, 8120.000000
3340, 197344712.000000, 2446.125000, 8220.000000, 8150.500000, 8122.500000
3341, 197344872.000000, 2339.250000, 8230.000000, 8145.000000, 8120.000000
3342, 197345032.000000, 2217.625000, 8229.500000, 8142.500000, 8123.000000
3343, 197345192.000000, 2094.000000, 8221.500000, 8147.500000, 8128.500000
3344, 197345352.000000, 1975.375000, 8188.500000, 8154.000000, 8124.000000
3345, 197345512.000000, 1866.375000, 8159.500000, 8154.500000, 8112.500000
3346, 197345672.000000, 1774.875000, 8145.500000, 8153.500000, 8107.000000
3347, 197345832.000000, 1699.750000, 8142.500000, 8160.000000, 8114.500000
3348, 197345992.000000, 1642.875000, 8142.500000, 8173.000000, 8130.500000
3349, 197346152.000000, 1605.500000, 8146.000000, 8180.000000, 8141.000000
3350, 197346312.000000, 1579.750000, 8150.000000, 8182.500000, 8147.500000
3351, 197346472.000000, 1556.375000, 8147.500000, 8188.000000, 8157.500000
3352, 197346632.000000, 1529.250000, 8142.000000, 8194.000000, 8169.000000
3353, 197346792.000000, 1489.875000, 8141.000000, 8198.000000, 8177.000000
3354, 197346952.000000, 1475.625000, 8137.500000, 8199.500000, 8180.500000
3355, 197347112.000000, 1616.875000, 8133.000000, 8191.000000, 8175.000000
3356, 197347272.000000, 1955.625000, 8136.000000, 8206.000000, 8204.500000
3357, 197347432.000000, 2465.000000, 8141.500000, 8230.000000, 8248.000000
3358, 197347592.000000, 3053.750000, 8151.500000, 8237.500000, 8257.500000
3359, 197347752.000000, 3425.500000, 8129.500000, 8211.000000, 8216.500000
3360, 197347912.000000, 3522.125000, 8109.000000, 8196.500000, 8189.500000
3361, 197348072.000000, 3450.125000, 8105.500000, 8194.000000, 8191.500000
3362, 197348232.000000, 3291.625000, 8102.000000, 8200.500000, 8201.500000
3363, 197348392.000000, 3140.875000, 8170.500000, 8252.000000, 8287.500000
3364, 197348552.000000, 2982.750000, 8374.000000, 8032.500000, 8184.500000
3365, 197348712.000000, 2816.750000, 8041.500000, 8090.000000, 8043.000000
3366, 197348872.000000, 2670.625000, 8112.500000, 8232.000000, 8250.000000
3367, 197349032.000000, 2590.500000, 8114.500000, 8253.000000, 8275.500000
3368, 197349192.000000, 2564.000000, 8117.500000, 8258.500000, 8286.000000
3369, 197349352.000000, 2568.875000, 8125.000000, 8264.000000, 8296.000000
3370, 197349512.000000, 2566.000000, 8133.500000, 8270.000000, 8305.000000
3371, 197349672.000000, 2523.000000, 8143.000000, 8280.500000, 8320.500000
3372, 197349832.000000, 2445.750000, 8152.500000, 8294.000000, 8341.000000
3373, 197349992.000000, 2326.250000, 8160.500000, 8298.500000, 8352.500000
3374, 197350152.000000, 2184.500000, 8171.000000, 8295.500000, 8353.500000
3375, 197350312.000000, 2035.125000, 8179.500000, 8284.500000, 8345.000000
3376, 197350472.000000, 1893.125000, 8179.500000, 8280.500000, 8342.000000
3377, 197350632.000000, 1762.375000, 8168.000000, 8284.000000, 8344.000000
3378, 197350792.000000, 1647.875000, 8132.500000, 8289.500000, 8337.000000
3379, 197350952.000000, 1548.250000, 8105.500000, 8284.500000, 8320.000000
3380, 197351112.000000, 1464.125000, 8092.500000, 8276.000000, 8304.500000
3381, 197351272.000000, 1390.500000, 8093.000000, 8273.500000, 8302.500000
3382, 197351432.000000, 1324.875000, 8095.500000, 8274.500000, 8307.000000
3383, 197351592.000000, 1260.125000, 8103.000000, 8271.500000, 8309.500000
3384, 197351752.000000, 1189.250000, 8104.500000, 8261.000000, 8299.500000
3385, 197351912.000000, 1111.375000, 8112.000000, 8250.500000, 8290.000000
3386, 197352072.000000, 1030.500000, 8115.000000, 8242.500000, 8282.000000
3387, 197352232.000000, 991.125000, 8114.000000, 8239.000000, 8280.000000
3388, 197352392.000000, 1086.750000, 8110.500000, 8231.000000, 8271.500000
3389, 197352552.000000, 1408.750000, 8114.500000, 8221.500000, 8264.000000
3390, 197352712.000000, 1884.250000, 8114.000000, 8206.000000, 8249.000000
3391, 197352872.000000, 2365.625000, 8127.500000, 8218.500000, 8278.500000
3392, 197353032.000000, 2709.000000, 8134.000000, 8215.500000, 8293.000000
3393, 197353192.000000, 2875.375000, 8145.000000, 8127.000000, 8193.500000
3394, 197353352.000000, 2899.125000, 8124.500000, 8071.000000, 8123.000000
3395, 197353512.000000, 2837.750000, 8116.000000, 8051.500000, 8093.500000
3396, 197353672.000000, 2737.375000, 8118.000000, 8059.000000, 8101.000000
3397, 197353832.000000, 2618.750000, 8121.000000, 8072.000000, 8111.500000
3398, 197353992.000000, 2488.625000, 8239.000000, 8126.000000, 8234.500000
3399, 197354152.000000, 2365.875000, 8327.500000, 7840.000000, 7987.500000
3400, 197354312.000000, 2279.500000, 8086.500000, 8003.500000, 8002.500000
3401, 197354472.000000, 2245.875000, 8134.000000, 8112.000000, 8168.000000
3402, 197354632.000000, 2251.875000, 8140.000000, 8131.000000, 8185.000000
3403, 197354792.000000, 2265.250000, 8147.000000, 8136.000000, 8194.000000
3404, 197354952.000000, 2253.000000, 8152.000000, 8142.000000, 8205.000000
3405, 197355112.000000, 2192.375000, 8160.000000, 8142.500000, 8208.500000
3406, 197355272.000000, 2089.750000, 8166.000000, 8152.500000, 8220.500000
3407, 197355432.000000, 1961.500000, 8179.500000, 8164.500000, 8239.000000
3408, 197355592.000000, 1838.250000, 8189.500000, 8165.500000, 8244.500000
3409, 197355752.000000, 1734.125000, 8199.500000, 8161.000000, 8243.000000
3410, 197355912.000000, 1665.625000, 8205.000000, 8151.000000, 8235.000000
3411, 197356072.000000, 1631.000000, 8203.500000, 8150.000000, 8233.500000
3412, 197356232.000000, 1623.375000, 8190.000000, 8145.500000, 8226.000000
3413, 197356392.000000, 1635.375000, 8151.500000, 8154.000000, 8218.000000
3414, 197356552.000000, 1654.125000, 8131.500000, 8147.000000, 8200.000000
3415, 197356712.000000, 1676.000000, 8117.500000, 8140.000000, 8185.500000
3416, 197356872.000000, 1695.750000, 8118.000000, 8141.000000, 8183.000000
3417, 197357032.000000, 1707.875000, 8122.500000, 8151.000000, 8196.000000
3418, 197357192.000000, 1705.375000, 8125.500000, 8155.000000, 8200.500000
3419, 197357352.000000, 1686.500000, 8131.000000, 8154.000000, 8198.000000
3420, 197357512.000000, 1648.875000, 8134.500000, 8146.500000, 8189.000000
3421, 197357672.000000, 1617.250000, 8137.000000, 8150.000000, 8192.500000
3422, 197357832.000000, 1667.250000, 8137.500000, 8150.500000, 8193.000000
3423, 197357992.000000, 1930.375000, 8137.500000, 8152.000000, 8192.500000
3424, 197358152.000000, 2406.625000, 8138.000000, 8144.500000, 8183.500000
3425, 197358312.000000, 2982.875000, 8139.000000, 8133.000000, 8171.000000
3426, 197358472.000000, 3470.250000, 8140.000000, 8134.500000, 8171.000000
3427, 197358632.000000, 3773.000000, 8141.000000, 8141.000000, 8180.000000
3428, 197358792.000000, 3874.875000, 8152.000000, 8167.000000, 8225.000000
3429, 197358952.000000, 3829.500000, 8166.500000, 8176.000000, 8250.000000
3430, 197359112.000000, 3719.750000, 8160.500000, 8145.000000, 8200.000000
3431, 197359272.000000, 3595.375000, 8138.000000, 8125.500000, 8165.500000
3432, 197359432.000000, 3472.500000, 8133.500000, 8117.000000, 8152.000000
3433, 197359592.000000, 3336.750000, 8139.000000, 8116.500000, 8150.500000
3434, 197359752.000000, 3187.875000, 8138.500000, 8105.000000, 8129.500000
3435, 197359912.000000, 3063.000000, 8323.500000, 8121.500000, 8253.000000
3436, 197360072.000000, 2993.250000, 8204.500000, 7888.500000, 7940.500000
3437, 197360232.000000, 2970.500000, 8139.500000, 8086.000000, 8088.000000
3438, 197360392.000000, 2958.000000, 8162.000000, 8144.500000, 8176.500000
3439, 197360552.000000, 2930.000000, 8168.000000, 8150.000000, 8180.000000
3440, 197360712.000000, 2869.375000, 8179.000000, 8150.000000, 8180.000000
3441, 197360872.000000, 2765.375000, 8191.500000, 8150.500000, 8180.500000
3442, 197361032.000000, 2630.750000, 8201.000000, 8159.000000, 8193.000000
3443, 197361192.000000, 2482.500000, 8211.500000, 8162.000000, 8201.000000
3444, 197361352.000000, 2338.250000, 8223.500000, 8159.500000, 8199.500000
3445, 197361512.000000, 2208.125000, 8242.500000, 8156.000000, 8196.500000
3446, 197361672.000000, 2088.750000, 8260.000000, 8158.000000, 8196.000000
3447, 197361832.000000, 1992.125000, 8280.500000, 8156.500000, 8192.500000
3448, 197361992.000000, 1910.250000, 8282.500000, 8155.000000, 8185.500000
3449, 197362152.000000, 1839.750000, 8267.000000, 8146.000000, 8166.000000
3450, 197362312.000000, 1780.375000, 8228.000000, 8136.000000, 8138.000000
3451, 197362472.000000, 1726.875000, 8201.500000, 8129.000000, 8118.500000
3452, 197362632.000000, 1674.625000, 8193.000000, 8124.500000, 8110.500000
3453, 197362792.000000, 1626.125000, 8193.000000, 8123.000000, 8108.000000
3454, 197362952.000000, 1583.000000, 8191.000000, 8114.000000, 8100.500000
3455, 197363112.000000, 1544.250000, 8192.000000, 8106.000000, 8093.500000
3456, 197363272.000000, 1509.125000, 8196.000000, 8105.000000, 8096.000000
3457, 197363432.000000, 1475.125000, 8196.000000, 8106.500000, 8101.500000
3458, 197363592.000000, 1471.375000, 8183.500000, 8096.500000, 8093.500000
3459, 197363752.000000, 1586.750000, 8184.000000, 8080.000000, 8081.000000
3460, 197363912.000000, 1919.000000, 8191.500000, 8074.000000, 8065.000000
3461, 197364072.000000, 2455.500000, 8202.500000, 8081.500000, 8067.000000
3462, 197364232.000000, 3033.250000, 8209.000000, 8081.000000, 8063.500000
3463, 197364392.000000, 3481.375000, 8215.500000, 8078.500000, 8058.500000
3464, 197364552.000000, 3738.125000, 8219.000000, 8069.500000, 8045.000000
3465, 197364712.000000, 3809.875000, 8224.000000, 8069.000000, 8041.500000
3466, 197364872.000000, 3761.375000, 8230.000000, 8080.000000, 8057.500000
3467, 197365032.000000, 3660.500000, 8237.000000, 8096.000000, 8088.000000
3468, 197365192.000000, 3549.375000, 8252.500000, 8092.500000, 8085.000000
3469, 197365352.000000, 3433.000000, 8240.000000, 8065.000000, 8040.500000
3470, 197365512.000000, 3299.750000, 8219.000000, 8038.000000, 7999.500000
3471, 197365672.000000, 3154.375000, 8222.500000, 8041.000000, 8001.500000
3472, 197365832.000000, 3035.500000, 8222.000000, 8033.000000, 7994.000000
3473, 197365992.000000, 2965.750000, 8262.500000, 8057.500000, 8030.500000
3474, 197366152.000000, 2936.250000, 8525.500000, 7887.500000, 7997.500000
3475, 197366312.000000, 2913.875000, 8166.000000, 7885.000000, 7788.000000
3476, 197366472.000000, 2869.625000, 8242.000000, 8053.000000, 8009.000000
3477, 197366632.000000, 2787.625000, 8240.500000, 8077.000000, 8035.500000
3478, 197366792.000000, 2678.750000, 8246.000000, 8092.500000, 8049.000000
3479, 197366952.000000, 2547.625000, 8259.000000, 8098.500000, 8055.500000
3480, 197367112.000000, 2408.000000, 8266.500000, 8110.500000, 8066.500000
3481, 197367272.000000, 2269.625000, 8276.500000, 8127.000000, 8086.500000
3482, 197367432.000000, 2141.000000, 8280.500000, 8144.000000, 8104.500000
3483, 197367592.000000, 2027.750000, 8297.000000, 8152.500000, 8118.000000
3484, 197367752.000000, 1932.875000, 8303.000000, 8152.500000, 8118.000000
3485, 197367912.000000, 1859.375000, 8313.500000, 8155.000000, 8122.500000
3486, 197368072.000000, 1804.500000, 8315.500000, 8163.000000, 8133.500000
3487, 197368232.000000, 1759.000000, 8309.000000, 8172.000000, 8141.500000
3488, 197368392.000000, 1722.500000, 8270.000000, 8169.000000, 8123.500000
3489, 197368552.000000, 1695.750000, 8231.500000, 8149.500000, 8083.000000
3490, 197368712.000000, 1668.500000, 8206.500000, 8126.000000, 8046.000000
3491, 197368872.000000, 1632.750000, 8198.500000, 8157.500000, 8072.000000
3492, 197369032.000000, 1580.875000, 8195.000000, 8118.000000, 8031.500000
3493, 197369192.000000, 1510.000000, 8193.000000, 8072.000000, 7983.000000
3494, 197369352.000000, 1427.625000, 8193.500000, 8048.000000, 7959.500000
3495, 197369512.000000, 1342.375000, 8197.000000, 8033.000000, 7944.000000
3496, 197369672.000000, 1266.000000, 8200.000000, 8023.000000, 7931.500000
3497, 197369832.000000, 1236.375000, 8202.500000, 8020.000000, 7929.000000
3498, 197369992.000000, 1368.375000, 8195.000000, 8011.000000, 7918.500000
3499, 197370152.000000, 1730.750000, 8191.000000, 7996.500000, 7903.000000
3500, 197370312.000000, 2276.750000, 8188.500000, 7995.500000, 7900.500000
3501, 197370472.000000, 2820.375000, 8181.000000, 8000.500000, 7909.500000
3502, 197370632.000000, 3225.875000, 8179.500000, 8013.500000, 7926.500000
3503, 197370792.000000, 3414.500000, 8174.000000, 8031.000000, 7946.000000
3504, 197370952.000000, 3436.000000, 8176.000000, 8047.000000, 7960.000000
3505, 197371112.000000, 3354.750000, 8179.000000, 8065.000000, 7975.500000
3506, 197371272.000000, 3244.375000, 8179.500000, 8088.500000, 8001.500000
3507, 197371432.000000, 3136.750000, 8186.500000, 8123.500000, 8051.000000
3508, 197371592.000000, 3025.750000, 8184.500000, 8144.000000, 8083.000000
3509, 197371752.000000, 2891.375000, 8177.500000, 8139.500000, 8084.500000
3510, 197371912.000000, 2748.500000, 8149.500000, 8126.000000, 8078.000000
3511, 197372072.000000, 2633.250000, 8125.000000, 8079.500000, 8031.000000
3512, 197372232.000000, 2565.125000, 8123.000000, 8064.000000, 8022.000000
3513, 197372392.000000, 2536.625000, 8121.000000, 8053.500000, 8015.500000
3514, 197372552.000000, 2518.750000, 8223.500000, 8103.500000, 8124.500000
3515, 197372712.000000, 2486.375000, 8433.000000, 7878.000000, 7994.000000
3516, 197372872.000000, 2428.000000, 8097.500000, 8020.500000, 7932.000000
3517, 197373032.000000, 2338.625000, 8156.500000, 8153.000000, 8129.500000
3518, 197373192.000000, 2229.000000, 8157.000000, 8182.500000, 8162.500000
3519, 197373352.000000, 2108.000000, 8166.000000, 8201.500000, 8188.500000
3520, 197373512.000000, 1991.500000, 8168.500000, 8232.000000, 8223.500000
3521, 197373672.000000, 1887.000000, 8177.500000, 8273.500000, 8271.000000
3522, 197373832.000000, 1791.500000, 8186.500000, 8310.000000, 8317.500000
3523, 197373992.000000, 1706.000000, 8201.000000, 8320.000000, 8334.000000
3524, 197374152.000000, 1631.625000, 8219.500000, 8310.000000, 8335.500000
3525, 197374312.000000, 1567.000000, 8231.500000, 8330.500000, 8364.000000
3526, 197374472.000000, 1510.375000, 8244.500000, 8365.000000, 8408.000000
3527, 197374632.000000, 1460.125000, 8249.500000, 8350.000000, 8399.500000
3528, 197374792.000000, 1419.500000, 8236.000000, 8370.500000, 8427.000000
3529, 197374952.000000, 1394.625000, 8194.500000, 8392.500000, 8439.500000
3530, 197375112.000000, 1385.875000, 8159.500000, 8405.000000, 8440.000000
3531, 197375272.000000, 1382.750000, 8146.000000, 8407.500000, 8437.500000
3532, 197375432.000000, 1375.250000, 8146.000000, 8409.500000, 8441.500000
3533, 197375592.000000, 1353.500000, 8146.500000, 8394.500000, 8428.000000
3534, 197375752.000000, 1315.375000, 8151.000000, 8384.000000, 8420.000000
3535, 197375912.000000, 1260.625000, 8153.500000, 8379.500000, 8422.000000
3536, 197376072.000000, 1199.750000, 8158.500000, 8310.500000, 8360.000000
3537, 197376232.000000, 1139.500000, 8164.500000, 8273.500000, 8326.000000
3538, 197376392.000000, 1144.500000, 8168.500000, 8259.500000, 8314.000000
3539, 197376552.000000, 1325.625000, 8169.000000, 8255.000000, 8311.000000
3540, 197376712.000000, 1749.750000, 8166.000000, 8258.500000, 8314.500000
3541, 197376872.000000, 2331.000000, 8169.000000, 8271.500000, 8329.500000
3542, 197377032.000000, 2887.000000, 8169.500000, 8290.500000, 8348.500000
3543, 197377192.000000, 3256.250000, 8170.500000, 8307.000000, 8365.500000
3544, 197377352.000000, 3417.625000, 8172.000000, 8320.500000, 8378.500000
3545, 197377512.000000, 3403.875000, 8176.500000, 8336.500000, 8395.000000
3546, 197377672.000000, 3290.875000, 8179.000000, 8345.000000, 8402.500000
3547, 197377832.000000, 3142.875000, 8186.000000, 8362.500000, 8423.500000
3548, 197377992.000000, 2993.625000, 8195.500000, 8393.500000, 8468.000000
3549, 197378152.000000, 2842.250000, 8211.500000, 8401.000000, 8473.000000
3550, 197378312.000000, 2680.625000, 8212.000000, 8398.000000, 8462.500000
3551, 197378472.000000, 2517.875000, 8198.500000, 8404.500000, 8461.000000
3552, 197378632.000000, 2393.625000, 8197.000000, 8413.000000, 8471.000000
3553, 197378792.000000, 2322.875000, 8202.500000, 8407.000000, 8463.000000
3554, 197378952.000000, 2283.125000, 8217.500000, 8383.500000, 8433.500000
3555, 197379112.000000, 2238.250000, 8365.500000, 8332.500000, 8476.500000
3556, 197379272.000000, 2167.250000, 8218.500000, 8110.500000, 8160.500000
3557, 197379432.000000, 2057.750000, 8195.500000, 8342.000000, 8371.500000
3558, 197379592.000000, 1919.125000, 8216.000000, 8405.500000, 8463.500000
3559, 197379752.000000, 1752.250000, 8215.000000, 8410.000000, 8466.500000
3560, 197379912.000000, 1572.000000, 8204.000000, 8389.000000, 8439.000000
3561, 197380072.000000, 1392.625000, 8189.000000, 8399.000000, 8447.000000
3562, 197380232.000000, 1220.000000, 8173.500000, 8410.500000, 8456.000000
3563, 197380392.000000, 1066.750000, 8158.500000, 8418.000000, 8460.500000
3564, 197380552.000000, 933.875000, 8149.500000, 8435.000000, 8476.500000
3565, 197380712.000000, 822.000000, 8151.000000, 8457.500000, 8501.000000
3566, 197380872.000000, 728.750000, 8150.500000, 8471.500000, 8517.000000
3567, 197381032.000000, 648.250000, 8147.000000, 8483.500000, 8532.500000
3568, 197381192.000000, 575.500000, 8134.500000, 8482.000000, 8527.000000
3569, 197381352.000000, 506.125000, 8121.500000, 8479.500000, 8520.500000
3570, 197381512.000000, 440.000000, 8115.500000, 8478.500000, 8515.500000
3571, 197381672.000000, 383.875000, 8128.000000, 8460.500000, 8497.000000
3572, 197381832.000000, 336.000000, 8143.500000, 8446.500000, 8489.000000
3573, 197381992.000000, 298.250000, 8157.500000, 8437.000000, 8486.000000
3574, 197382152.000000, 261.750000, 8163.500000, 8448.000000, 8504.000000
3575, 197382312.000000, 216.750000, 8161.500000, 8463.000000, 8520.500000
3576, 197382472.000000, 167.500000, 8138.500000, 8485.000000, 8537.500000
3577, 197382632.000000, 115.875000, 8123.500000, 8510.000000, 8559.500000
3578, 197382792.000000, 76.375000, 8115.000000, 8517.000000, 8563.000000
3579, 197382952.000000, 108.250000, 8119.000000, 8516.500000, 8567.000000
3580, 197383112.000000, 323.000000, 8123.000000, 8522.500000, 8574.500000
3581, 197383272.000000, 793.250000, 8131.000000, 8555.500000, 8624.500000
3582, 197383432.000000, 1403.125000, 8182.000000, 8616.000000, 8768.500000
3583, 197383592.000000, 1966.500000, 8198.000000, 8639.500000, 8826.500000
3584, 197383752.000000, 2356.375000, 8260.500000, 8649.500000, 8877.500000
3585, 197383912.000000, 2541.000000, 8299.000000, 8661.000000, 8918.000000
3586, 197384072.000000, 2559.625000, 8299.500000, 8659.500000, 8940.000000
3587, 197384232.000000, 2490.500000, 8284.500000, 8661.000000, 8958.500000
3588, 197384392.000000, 2392.375000, 8273.500000, 8659.000000, 8954.000000
3589, 197384552.000000, 2307.625000, 8256.000000, 8653.500000, 8947.000000
3590, 197384712.000000, 2229.625000, 8251.500000, 8655.000000, 8949.500000
3591, 197384872.000000, 2135.375000, 8257.000000, 8670.000000, 8971.500000
3592, 197385032.000000, 2029.875000, 8261.000000, 8669.500000, 8973.500000
3593, 197385192.000000, 1936.000000, 8322.500000, 8606.500000, 8936.500000
3594, 197385352.000000, 1879.375000, 8461.500000, 8260.000000, 8653.500000
3595, 197385512.000000, 1855.875000, 8191.000000, 8464.000000, 8682.500000
3596, 197385672.000000, 1848.500000, 8259.000000, 8637.000000, 8907.000000
3597, 197385832.000000, 1832.375000, 8251.500000, 8636.500000, 8893.000000
3598, 197385992.000000, 1802.750000, 8246.000000, 8594.500000, 8831.500000
3599, 197386152.000000, 1750.375000, 8238.000000, 8529.500000, 8744.000000
3600, 197386312.000000, 1674.750000, 8230.000000, 8496.000000, 8689.000000
3601, 197386472.000000, 1585.875000, 8225.500000, 8480.000000, 8653.500000
3602, 197386632.000000, 1490.250000, 8216.500000, 8475.000000, 8629.500000
3603, 197386792.000000, 1397.500000, 8214.000000, 8483.500000, 8611.500000
3604, 197386952.000000, 1317.625000, 8223.500000, 8495.500000, 8594.500000
3605, 197387112.000000, 1256.875000, 8227.500000, 8486.000000, 8555.500000
3606, 197387272.000000, 1214.375000, 8226.000000, 8476.500000, 8517.500000
3607, 197387432.000000, 1185.750000, 8218.500000, 8463.000000, 8472.500000
3608, 197387592.000000, 1167.125000, 8167.000000, 8442.500000, 8410.500000
3609, 197387752.000000, 1149.625000, 8126.500000, 8421.500000, 8344.500000
3610, 197387912.000000, 1131.000000, 8102.000000, 8413.500000, 8304.000000
3611, 197388072.000000, 1111.000000, 8084.000000, 8412.000000, 8280.000000
3612, 197388232.000000, 1089.875000, 8072.500000, 8406.000000, 8255.500000
3613, 197388392.000000, 1064.500000, 8060.000000, 8402.000000, 8230.000000
3614, 197388552.000000, 1032.250000, 8053.000000, 8395.500000, 8209.500000
3615, 197388712.000000, 996.625000, 8053.000000, 8395.000000, 8195.500000
3616, 197388872.000000, 955.625000, 8048.500000, 8395.500000, 8183.000000
3617, 197389032.000000, 919.625000, 8036.500000, 8384.000000, 8164.500000
3618, 197389192.000000, 978.375000, 8024.500000, 8332.500000, 8104.000000
3619, 197389352.000000, 1242.875000, 8018.000000, 8262.500000, 8023.500000
3620, 197389512.000000, 1736.875000, 8015.000000, 8227.000000, 7978.500000
3621, 197389672.000000, 2308.125000, 8009.000000, 8225.000000, 7968.000000
3622, 197389832.000000, 2790.750000, 7999.000000, 8222.000000, 7957.000000
3623, 197389992.000000, 3079.125000, 7998.500000, 8234.500000, 7965.000000
3624, 197390152.000000, 3194.875000, 7994.000000, 8253.500000, 7982.500000
3625, 197390312.000000, 3181.250000, 8002.500000, 8302.000000, 8044.000000
3626, 197390472.000000, 3093.750000, 8018.500000, 8339.500000, 8093.500000
3627, 197390632.000000, 2984.250000, 8014.000000, 8336.500000, 8069.500000
3628, 197390792.000000, 2869.125000, 7988.500000, 8335.000000, 8053.000000
3629, 197390952.000000, 2741.000000, 7980.000000, 8340.000000, 8055.000000
3630, 197391112.000000, 2591.000000, 7985.000000, 8364.500000, 8081.500000
3631, 197391272.000000, 2430.625000, 7996.000000, 8376.000000, 8089.500000
