1277, 200650984.000000, 1473.750000, 8218.500000, 8233.000000, 8241.500000
1278, 200651144.000000, 1421.000000, 8228.000000, 8235.000000, 8248.000000
1279, 200651304.000000, 1386.500000, 8237.000000, 8237.000000, 8254.000000
1280, 200651464.000000, 1362.125000, 8246.000000, 8235.000000, 8256.000000
1281, 200651624.000000, 1343.625000, 8251.000000, 8228.500000, 8252.500000
1282, 200651784.000000, 1327.000000, 8248.500000, 8218.000000, 8242.500000
1283, 200651944.000000, 1308.625000, 8222.500000, 8207.500000, 8222.500000
1284, 200652104.000000, 1286.750000, 8185.500000, 8202.000000, 8203.000000
1285, 200652264.000000, 1260.500000, 8164.000000, 8197.000000, 8188.000000
1286, 200652424.000000, 1228.125000, 8158.000000, 8194.000000, 8183.000000
1287, 200652584.000000, 1190.000000, 8157.000000, 8191.500000, 8179.500000
1288, 200652744.000000, 1147.875000, 8158.500000, 8192.000000, 8180.000000
1289, 200652904.000000, 1108.000000, 8163.000000, 8193.500000, 8183.500000
1290, 200653064.000000, 1065.500000, 8167.000000, 8195.000000, 8188.000000
1291, 200653224.000000, 1012.250000, 8169.000000, 8194.000000, 8188.000000
1292, 200653384.000000, 961.625000, 8170.500000, 8189.500000, 8185.500000
1293, 200653544.000000, 969.625000, 8168.000000, 8185.500000, 8179.000000
1294, 200653704.000000, 1156.375000, 8168.000000, 8182.000000, 8175.500000
1295, 200653864.000000, 1570.500000, 8166.500000, 8181.500000, 8174.000000
1296, 200654024.000000, 2122.375000, 8166.000000, 8180.000000, 8172.000000
1297, 200654184.000000, 2619.750000, 8167.000000, 8178.500000, 8171.000000
1298, 200654344.000000, 2955.250000, 8167.500000, 8179.000000, 8171.000000
1299, 200654504.000000, 3076.500000, 8167.500000, 8180.500000, 8172.500000
1300, 200654664.000000, 3043.250000, 8166.500000, 8182.000000, 8172.500000
1301, 200654824.000000, 2903.125000, 8166.000000, 8183.500000, 8175.500000
1302, 200654984.000000, 2722.750000, 8167.500000, 8183.500000, 8175.500000
1303, 200655144.000000, 2540.000000, 8180.000000, 8204.000000, 8214.000000
1304, 200655304.000000, 2362.250000, 8195.000000, 8220.000000, 8243.000000
1305, 200655464.000000, 2192.375000, 8193.000000, 8196.000000, 8202.000000
1306, 200655624.000000, 2057.625000, 8172.500000, 8178.000000, 8170.500000
1307, 200655784.000000, 1995.875000, 8168.000000, 8172.500000, 8161.500000
1308, 200655944.000000, 1992.000000, 8168.000000, 8173.000000, 8160.000000
1309, 200656104.000000, 2016.250000, 8177.000000, 8170.500000, 8153.000000
1310, 200656264.000000, 2035.500000, 8298.500000, 8162.500000, 8227.500000
1311, 200656424.000000, 2031.375000, 8219.000000, 7874.000000, 7880.500000
1312, 200656584.000000, 1991.750000, 8149.500000, 8138.000000, 8097.000000
1313, 200656744.000000, 1913.875000, 8186.000000, 8216.500000, 8213.500000
1314, 200656904.000000, 1806.000000, 8189.000000, 8225.500000, 8222.500000
1315, 200657064.000000, 1686.000000, 8195.000000, 8229.500000, 8230.500000
1316, 200657224.000000, 1568.500000, 8201.500000, 8231.500000, 8235.000000
1317, 200657384.000000, 1463.625000, 8208.000000, 8236.000000, 8242.000000
1318, 200657544.000000, 1376.250000, 8213.500000, 8238.000000, 8246.500000
1319, 200657704.000000, 1310.250000, 8223.000000, 8242.500000, 8256.000000
1320, 200657864.000000, 1265.250000, 8231.500000, 8246.500000, 8264.000000
1321, 200658024.000000, 1234.750000, 8240.500000, 8247.000000, 8268.500000
1322, 200658184.000000, 1213.125000, 8248.500000, 8240.500000, 8267.000000
1323, 200658344.000000, 1197.875000, 8249.000000, 8230.500000, 8257.500000
1324, 200658504.000000, 1182.250000, 8234.000000, 8217.000000, 8240.000000
1325, 200658664.000000, 1167.250000, 8197.000000, 8210.000000, 8217.500000
1326, 200658824.000000, 1147.875000, 8168.000000, 8202.500000, 8196.000000
1327, 200658984.000000, 1122.125000, 8155.000000, 8196.000000, 8183.000000
1328, 200659144.000000, 1092.500000, 8153.000000, 8193.000000, 8178.000000
1329, 200659304.000000, 1060.875000, 8153.500000, 8194.500000, 8180.000000
1330, 200659464.000000, 1026.375000, 8158.000000, 8197.000000, 8185.500000
1331, 200659624.000000, 993.250000, 8163.000000, 8197.500000, 8188.500000
1332, 200659784.000000, 953.625000, 8164.500000, 8195.500000, 8186.500000
1333, 200659944.000000, 906.125000, 8166.000000, 8194.000000, 8184.000000
1334, 200660104.000000, 884.500000, 8167.000000, 8192.000000, 8182.500000
1335, 200660264.000000, 987.875000, 8165.500000, 8191.000000, 8180.500000
1336, 200660424.000000, 1325.500000, 8166.500000, 8188.000000, 8178.500000
1337, 200660584.000000, 1869.750000, 8165.000000, 8185.500000, 8174.500000
1338, 200660744.000000, 2443.625000, 8167.000000, 8185.000000, 8174.000000
1339, 200660904.000000, 2873.750000, 8167.000000, 8185.500000, 8174.500000
1340, 200661064.000000, 3103.875000, 8165.500000, 8186.000000, 8174.500000
1341, 200661224.000000, 3142.875000, 8167.000000, 8186.000000, 8175.000000
1342, 200661384.000000, 3043.500000, 8168.500000, 8184.500000, 8174.000000
1343, 200661544.000000, 2878.000000, 8169.000000, 8185.000000, 8173.000000
1344, 200661704.000000, 2696.125000, 8169.000000, 8185.500000, 8173.500000
1345, 200661864.000000, 2520.875000, 8177.500000, 8202.500000, 8205.000000
1346, 200662024.000000, 2347.625000, 8186.500000, 8220.000000, 8235.000000
1347, 200662184.000000, 2191.375000, 8198.500000, 8211.000000, 8221.000000
1348, 200662344.000000, 2083.000000, 8183.000000, 8188.500000, 8184.000000
1349, 200662504.000000, 2043.875000, 8166.000000, 8178.500000, 8162.500000
1350, 200662664.000000, 2050.000000, 8168.500000, 8177.000000, 8162.500000
1351, 200662824.000000, 2069.375000, 8169.500000, 8177.000000, 8162.500000
1352, 200662984.000000, 2075.375000, 8229.000000, 8208.500000, 8223.500000
1353, 200663144.000000, 2051.000000, 8366.000000, 7871.000000, 7957.000000
1354, 200663304.000000, 1990.750000, 8101.000000, 8035.500000, 7962.500000
1355, 200663464.000000, 1895.125000, 8185.500000, 8211.000000, 8209.000000
1356, 200663624.000000, 1778.750000, 8186.500000, 8224.000000, 8223.500000
1357, 200663784.000000, 1654.375000, 8192.500000, 8227.500000, 8228.000000
1358, 200663944.000000, 1538.500000, 8196.500000, 8229.500000, 8230.500000
1359, 200664104.000000, 1436.500000, 8203.000000, 8233.500000, 8238.000000
1360, 200664264.000000, 1355.750000, 8211.500000, 8236.500000, 8245.500000
1361, 200664424.000000, 1299.125000, 8220.500000, 8241.000000, 8255.000000
1362, 200664584.000000, 1259.500000, 8229.500000, 8244.000000, 8262.000000
1363, 200664744.000000, 1235.000000, 8239.000000, 8246.000000, 8268.000000
1364, 200664904.000000, 1219.250000, 8248.000000, 8244.500000, 8271.000000
1365, 200665064.000000, 1203.250000, 8253.500000, 8236.500000, 8267.500000
1366, 200665224.000000, 1187.000000, 8251.000000, 8225.000000, 8257.500000
1367, 200665384.000000, 1166.375000, 8221.000000, 8210.500000, 8230.000000
1368, 200665544.000000, 1142.625000, 8184.000000, 8200.000000, 8203.500000
1369, 200665704.000000, 1112.875000, 8166.000000, 8193.500000, 8186.500000
1370, 200665864.000000, 1080.125000, 8159.500000, 8190.500000, 8180.000000
1371, 200666024.000000, 1044.875000, 8159.500000, 8190.000000, 8178.500000
1372, 200666184.000000, 1009.375000, 8162.000000, 8192.000000, 8181.000000
1373, 200666344.000000, 976.875000, 8166.000000, 8192.000000, 8182.000000
1374, 200666504.000000, 944.000000, 8169.000000, 8192.500000, 8182.500000
1375, 200666664.000000, 900.125000, 8171.500000, 8190.500000, 8182.000000
1376, 200666824.000000, 859.250000, 8174.000000, 8188.000000, 8181.000000
1377, 200666984.000000, 901.750000, 8172.000000, 8184.500000, 8174.500000
1378, 200667144.000000, 1140.625000, 8172.000000, 8183.000000, 8173.000000
1379, 200667304.000000, 1648.250000, 8171.000000, 8181.500000, 8172.500000
1380, 200667464.000000, 2261.375000, 8168.500000, 8181.000000, 8170.500000
1381, 200667624.000000, 2797.375000, 8167.000000, 8180.500000, 8169.500000
1382, 200667784.000000, 3125.750000, 8167.000000, 8179.000000, 8167.500000
1383, 200667944.000000, 3244.875000, 8166.000000, 8180.500000, 8168.500000
1384, 200668104.000000, 3196.625000, 8168.000000, 8181.500000, 8172.500000
1385, 200668264.000000, 3043.000000, 8168.000000, 8182.000000, 8173.000000
1386, 200668424.000000, 2855.500000, 8169.500000, 8181.500000, 8172.000000
1387, 200668584.000000, 2669.375000, 8177.500000, 8198.000000, 8201.500000
1388, 200668744.000000, 2490.250000, 8188.500000, 8213.500000, 8230.000000
1389, 200668904.000000, 2318.125000, 8197.500000, 8204.500000, 8215.000000
1390, 200669064.000000, 2174.500000, 8183.000000, 8184.000000, 8181.500000
1391, 200669224.000000, 2091.500000, 8170.000000, 8173.500000, 8162.500000
1392, 200669384.000000, 2068.000000, 8170.000000, 8172.000000, 8159.000000
1393, 200669544.000000, 2075.125000, 8171.000000, 8172.000000, 8160.000000
1394, 200669704.000000, 2082.750000, 8238.000000, 8205.500000, 8226.500000
1395, 200669864.000000, 2069.375000, 8370.000000, 7869.000000, 7958.500000
1396, 200670024.000000, 2025.625000, 8107.500000, 8044.000000, 7977.000000
1397, 200670184.000000, 1947.875000, 8188.000000, 8209.500000, 8211.500000
1398, 200670344.000000, 1840.000000, 8189.500000, 8223.000000, 8224.500000
1399, 200670504.000000, 1714.500000, 8195.000000, 8228.000000, 8231.000000
1400, 200670664.000000, 1589.250000, 8201.000000, 8231.000000, 8237.000000
1401, 200670824.000000, 1477.125000, 8209.500000, 8232.000000, 8241.000000
1402, 200670984.000000, 1382.000000, 8216.500000, 8236.000000, 8247.500000
1403, 200671144.000000, 1307.125000, 8225.500000, 8240.000000, 8255.500000
1404, 200671304.000000, 1256.000000, 8233.000000, 8242.500000, 8262.500000
1405, 200671464.000000, 1220.500000, 8242.500000, 8246.000000, 8270.500000
1406, 200671624.000000, 1195.000000, 8250.000000, 8243.500000, 8271.500000
1407, 200671784.000000, 1175.625000, 8255.500000, 8235.500000, 8267.000000
1408, 200671944.000000, 1160.250000, 8248.000000, 8225.500000, 8255.500000
1409, 200672104.000000, 1143.000000, 8217.000000, 8215.000000, 8232.000000
1410, 200672264.000000, 1121.875000, 8181.000000, 8207.000000, 8209.500000
1411, 200672424.000000, 1097.125000, 8162.000000, 8201.500000, 8192.500000
1412, 200672584.000000, 1065.250000, 8155.000000, 8196.500000, 8181.500000
1413, 200672744.000000, 1031.250000, 8154.500000, 8196.500000, 8181.000000
1414, 200672904.000000, 996.250000, 8157.500000, 8198.000000, 8184.500000
1415, 200673064.000000, 962.875000, 8161.000000, 8198.500000, 8187.000000
1416, 200673224.000000, 928.125000, 8166.000000, 8197.500000, 8188.500000
1417, 200673384.000000, 885.500000, 8168.000000, 8196.000000, 8187.000000
1418, 200673544.000000, 836.500000, 8167.000000, 8194.500000, 8183.500000
1419, 200673704.000000, 837.250000, 8168.000000, 8194.000000, 8183.500000
1420, 200673864.000000, 1004.750000, 8167.000000, 8191.500000, 8180.500000
1421, 200674024.000000, 1416.500000, 8168.000000, 8190.000000, 8181.000000
1422, 200674184.000000, 1980.875000, 8167.000000, 8187.000000, 8175.500000
1423, 200674344.000000, 2511.375000, 8166.000000, 8186.000000, 8172.000000
1424, 200674504.000000, 2870.250000, 8167.500000, 8187.000000, 8175.000000
1425, 200674664.000000, 3017.625000, 8168.500000, 8186.000000, 8175.500000
1426, 200674824.000000, 3001.625000, 8170.000000, 8186.500000, 8175.500000
1427, 200674984.000000, 2867.000000, 8168.500000, 8185.000000, 8174.500000
1428, 200675144.000000, 2687.750000, 8180.500000, 8206.000000, 8211.500000
1429, 200675304.000000, 2505.000000, 8194.500000, 8223.000000, 8240.000000
1430, 200675464.000000, 2327.000000, 8193.000000, 8198.500000, 8202.500000
1431, 200675624.000000, 2151.125000, 8174.000000, 8183.500000, 8174.000000
1432, 200675784.000000, 1998.000000, 8168.500000, 8181.000000, 8166.500000
1433, 200675944.000000, 1906.625000, 8170.000000, 8183.500000, 8168.500000
1434, 200676104.000000, 1880.250000, 8179.500000, 8184.500000, 8166.500000
1435, 200676264.000000, 1893.625000, 8314.000000, 8196.000000, 8265.500000
1436, 200676424.000000, 1914.500000, 8213.500000, 7915.500000, 7922.000000
1437, 200676584.000000, 1918.125000, 8148.500000, 8143.500000, 8099.500000
1438, 200676744.000000, 1890.625000, 8190.000000, 8224.000000, 8220.000000
1439, 200676904.000000, 1827.375000, 8194.500000, 8234.500000, 8232.500000
1440, 200677064.000000, 1732.500000, 8199.500000, 8238.000000, 8239.000000
1441, 200677224.000000, 1615.375000, 8206.000000, 8239.000000, 8243.000000
1442, 200677384.000000, 1496.250000, 8212.000000, 8241.000000, 8247.000000
1443, 200677544.000000, 1384.125000, 8219.000000, 8245.500000, 8254.500000
1444, 200677704.000000, 1287.750000, 8226.500000, 8250.000000, 8263.000000
1445, 200677864.000000, 1207.875000, 8237.000000, 8252.000000, 8271.000000
1446, 200678024.000000, 1149.625000, 8247.000000, 8252.000000, 8276.000000
1447, 200678184.000000, 1108.250000, 8256.000000, 8243.000000, 8269.000000
1448, 200678344.000000, 1082.125000, 8257.000000, 8230.500000, 8257.000000
1449, 200678504.000000, 1065.875000, 8242.000000, 8215.500000, 8237.000000
1450, 200678664.000000, 1054.375000, 8204.500000, 8208.500000, 8216.500000
1451, 200678824.000000, 1040.875000, 8174.500000, 8200.500000, 8194.500000
1452, 200678984.000000, 1026.125000, 8160.000000, 8195.000000, 8181.000000
1453, 200679144.000000, 1006.375000, 8156.000000, 8193.000000, 8176.000000
1454, 200679304.000000, 981.750000, 8160.000000, 8194.500000, 8180.500000
1455, 200679464.000000, 952.250000, 8165.000000, 8196.000000, 8185.000000
1456, 200679624.000000, 917.125000, 8168.500000, 8194.500000, 8185.000000
1457, 200679784.000000, 875.125000, 8171.000000, 8192.000000, 8181.500000
1458, 200679944.000000, 823.000000, 8174.000000, 8190.000000, 8181.000000
1459, 200680104.000000, 765.500000, 8174.000000, 8187.000000, 8178.000000
1460, 200680264.000000, 757.750000, 8174.000000, 8184.000000, 8175.000000
1461, 200680424.000000, 901.625000, 8173.000000, 8181.000000, 8170.000000
1462, 200680584.000000, 1274.125000, 8172.500000, 8179.000000, 8167.500000
1463, 200680744.000000, 1782.625000, 8173.000000, 8179.000000, 8168.000000
1464, 200680904.000000, 2265.625000, 8172.500000, 8178.000000, 8168.500000
1465, 200681064.000000, 2586.375000, 8173.000000, 8178.000000, 8169.000000
1466, 200681224.000000, 2732.375000, 8173.500000, 8177.000000, 8169.000000
1467, 200681384.000000, 2713.500000, 8174.000000, 8177.500000, 8168.500000
1468, 200681544.000000, 2591.875000, 8185.500000, 8205.000000, 8215.500000
1469, 200681704.000000, 2422.000000, 8200.000000, 8223.000000, 8247.500000
1470, 200681864.000000, 2240.125000, 8195.000000, 8198.000000, 8204.000000
1471, 200682024.000000, 2062.625000, 8172.000000, 8177.000000, 8168.000000
1472, 200682184.000000, 1890.250000, 8166.000000, 8172.000000, 8158.000000
1473, 200682344.000000, 1757.750000, 8166.000000, 8171.500000, 8157.500000
1474, 200682504.000000, 1689.000000, 8173.000000, 8167.500000, 8147.000000
1475, 200682664.000000, 1689.625000, 8297.000000, 8135.500000, 8200.500000
1476, 200682824.000000, 1724.000000, 8192.500000, 7858.500000, 7848.000000
1477, 200682984.000000, 1762.125000, 8152.500000, 8151.000000, 8115.000000
1478, 200683144.000000, 1779.000000, 8183.500000, 8218.500000, 8216.000000
1479, 200683304.000000, 1762.625000, 8188.000000, 8226.500000, 8225.000000
1480, 200683464.000000, 1708.125000, 8194.000000, 8228.000000, 8230.000000
1481, 200683624.000000, 1621.625000, 8200.000000, 8230.500000, 8234.500000
1482, 200683784.000000, 1518.375000, 8206.500000, 8234.000000, 8240.500000
1483, 200683944.000000, 1409.750000, 8214.000000, 8238.000000, 8248.000000
1484, 200684104.000000, 1311.500000, 8222.000000, 8243.500000, 8258.500000
1485, 200684264.000000, 1228.250000, 8233.000000, 8248.000000, 8268.500000
1486, 200684424.000000, 1163.500000, 8241.000000, 8248.000000, 8271.500000
1487, 200684584.000000, 1119.625000, 8248.500000, 8242.500000, 8269.000000
1488, 200684744.000000, 1090.000000, 8251.500000, 8234.500000, 8264.000000
1489, 200684904.000000, 1072.250000, 8235.000000, 8220.500000, 8244.000000
1490, 200685064.000000, 1063.500000, 8200.000000, 8209.500000, 8219.000000
1491, 200685224.000000, 1055.125000, 8170.500000, 8201.500000, 8196.500000
1492, 200685384.000000, 1045.500000, 8159.000000, 8194.500000, 8182.000000
1493, 200685544.000000, 1033.875000, 8157.000000, 8193.000000, 8179.000000
1494, 200685704.000000, 1021.125000, 8160.000000, 8194.000000, 8183.000000
1495, 200685864.000000, 1002.375000, 8163.500000, 8194.000000, 8184.500000
1496, 200686024.000000, 981.750000, 8167.000000, 8193.500000, 8184.500000
1497, 200686184.000000, 952.875000, 8170.000000, 8192.000000, 8183.000000
1498, 200686344.000000, 914.625000, 8172.000000, 8190.500000, 8182.500000
1499, 200686504.000000, 867.375000, 8174.000000, 8189.000000, 8182.000000
1500, 200686664.000000, 875.750000, 8173.500000, 8186.500000, 8178.500000
1501, 200686824.000000, 1042.500000, 8172.000000, 8183.500000, 8173.500000
1502, 200686984.000000, 1442.500000, 8171.000000, 8182.500000, 8171.500000
1503, 200687144.000000, 1970.125000, 8171.500000, 8184.000000, 8173.500000
1504, 200687304.000000, 2454.250000, 8173.500000, 8184.500000, 8174.500000
1505, 200687464.000000, 2765.875000, 8174.500000, 8184.500000, 8176.000000
1506, 200687624.000000, 2902.000000, 8173.000000, 8184.000000, 8173.000000
1507, 200687784.000000, 2878.875000, 8175.000000, 8186.500000, 8176.500000
1508, 200687944.000000, 2759.000000, 8188.500000, 8212.500000, 8224.000000
1509, 200688104.000000, 2595.125000, 8202.000000, 8229.500000, 8254.500000
1510, 200688264.000000, 2425.625000, 8199.000000, 8201.000000, 8209.000000
1511, 200688424.000000, 2259.750000, 8170.000000, 8176.000000, 8164.500000
1512, 200688584.000000, 2099.875000, 8168.000000, 8172.000000, 8157.500000
1513, 200688744.000000, 1973.750000, 8166.500000, 8172.500000, 8159.000000
1514, 200688904.000000, 1904.750000, 8177.000000, 8170.500000, 8152.000000
1515, 200689064.000000, 1896.500000, 8311.500000, 8099.000000, 8175.500000
1516, 200689224.000000, 1920.500000, 8147.000000, 7865.500000, 7832.000000
1517, 200689384.000000, 1947.625000, 8160.000000, 8160.500000, 8134.500000
1518, 200689544.000000, 1958.750000, 8181.000000, 8214.000000, 8212.000000
1519, 200689704.000000, 1939.625000, 8188.000000, 8222.000000, 8224.000000
1520, 200689864.000000, 1886.125000, 8195.000000, 8225.000000, 8229.000000
1521, 200690024.000000, 1798.625000, 8200.500000, 8227.000000, 8232.500000
1522, 200690184.000000, 1692.500000, 8208.500000, 8231.000000, 8240.000000
1523, 200690344.000000, 1582.500000, 8215.500000, 8237.000000, 8249.500000
1524, 200690504.000000, 1480.375000, 8225.000000, 8241.000000, 8259.000000
1525, 200690664.000000, 1392.000000, 8233.000000, 8245.000000, 8267.000000
1526, 200690824.000000, 1323.125000, 8242.500000, 8244.500000, 8271.000000
1527, 200690984.000000, 1272.750000, 8248.000000, 8238.500000, 8267.000000
1528, 200691144.000000, 1237.750000, 8249.000000, 8230.500000, 8260.500000
1529, 200691304.000000, 1216.625000, 8234.000000, 8215.500000, 8241.500000
1530, 200691464.000000, 1201.500000, 8197.500000, 8205.500000, 8216.000000
1531, 200691624.000000, 1190.875000, 8171.000000, 8195.500000, 8191.000000
1532, 200691784.000000, 1177.125000, 8158.000000, 8190.500000, 8177.500000
1533, 200691944.000000, 1160.625000, 8158.000000, 8190.000000, 8177.000000
1534, 200692104.000000, 1138.750000, 8161.000000, 8190.000000, 8178.500000
1535, 200692264.000000, 1113.750000, 8167.000000, 8192.000000, 8183.000000
1536, 200692424.000000, 1087.625000, 8170.000000, 8194.000000, 8185.000000
1537, 200692584.000000, 1056.250000, 8171.000000, 8193.500000, 8184.500000
1538, 200692744.000000, 1014.500000, 8172.500000, 8193.000000, 8183.500000
1539, 200692904.000000, 964.750000, 8171.000000, 8191.500000, 8182.500000
1540, 200693064.000000, 966.375000, 8171.000000, 8188.500000, 8177.500000
1541, 200693224.000000, 1122.125000, 8170.500000, 8187.000000, 8175.000000
1542, 200693384.000000, 1503.375000, 8170.000000, 8185.000000, 8172.000000
1543, 200693544.000000, 2009.750000, 8170.000000, 8186.000000, 8173.000000
1544, 200693704.000000, 2479.875000, 8169.500000, 8185.000000, 8173.500000
1545, 200693864.000000, 2786.875000, 8171.000000, 8183.500000, 8172.500000
1546, 200694024.000000, 2926.250000, 8174.500000, 8182.500000, 8172.000000
1547, 200694184.000000, 2907.750000, 8174.000000, 8183.500000, 8172.500000
1548, 200694344.000000, 2797.500000, 8185.500000, 8208.500000, 8217.000000
1549, 200694504.000000, 2641.375000, 8199.500000, 8228.000000, 8250.000000
1550, 200694664.000000, 2477.750000, 8200.000000, 8202.500000, 8208.500000
1551, 200694824.000000, 2312.750000, 8176.000000, 8179.500000, 8166.000000
1552, 200694984.000000, 2151.875000, 8171.000000, 8174.000000, 8157.000000
1553, 200695144.000000, 2025.750000, 8171.500000, 8174.000000, 8157.500000
1554, 200695304.000000, 1953.500000, 8181.000000, 8170.000000, 8150.000000
1555, 200695464.000000, 1941.250000, 8308.500000, 8175.000000, 8238.000000
1556, 200695624.000000, 1958.375000, 8225.500000, 7877.000000, 7881.500000
1557, 200695784.000000, 1983.000000, 8152.000000, 8133.500000, 8089.000000
1558, 200695944.000000, 1989.500000, 8187.000000, 8212.000000, 8206.000000
1559, 200696104.000000, 1965.375000, 8193.000000, 8222.000000, 8220.000000
1560, 200696264.000000, 1907.250000, 8199.000000, 8224.500000, 8224.500000
1561, 200696424.000000, 1821.000000, 8203.500000, 8227.500000, 8228.000000
1562, 200696584.000000, 1713.500000, 8212.000000, 8232.500000, 8238.500000
1563, 200696744.000000, 1604.125000, 8220.000000, 8237.500000, 8247.500000
1564, 200696904.000000, 1501.375000, 8227.500000, 8241.000000, 8255.500000
1565, 200697064.000000, 1415.000000, 8236.000000, 8244.000000, 8264.000000
1566, 200697224.000000, 1344.125000, 8245.000000, 8245.000000, 8267.500000
1567, 200697384.000000, 1292.750000, 8252.000000, 8239.000000, 8264.000000
1568, 200697544.000000, 1255.750000, 8253.500000, 8230.500000, 8257.500000
1569, 200697704.000000, 1233.000000, 8240.500000, 8218.000000, 8242.000000
1570, 200697864.000000, 1216.250000, 8202.000000, 8209.500000, 8219.000000
1571, 200698024.000000, 1201.875000, 8171.500000, 8201.000000, 8195.000000
1572, 200698184.000000, 1187.125000, 8158.500000, 8197.000000, 8185.000000
1573, 200698344.000000, 1169.000000, 8154.500000, 8196.000000, 8182.500000
1574, 200698504.000000, 1147.875000, 8156.500000, 8196.500000, 8184.000000
1575, 200698664.000000, 1122.125000, 8160.000000, 8197.500000, 8187.500000
1576, 200698824.000000, 1094.375000, 8161.000000, 8197.000000, 8186.000000
1577, 200698984.000000, 1060.625000, 8163.000000, 8196.000000, 8186.000000
1578, 200699144.000000, 1020.500000, 8165.000000, 8193.000000, 8184.000000
1579, 200699304.000000, 965.625000, 8166.000000, 8189.000000, 8181.000000
1580, 200699464.000000, 932.125000, 8167.500000, 8185.500000, 8177.500000
1581, 200699624.000000, 1007.750000, 8165.000000, 8182.000000, 8173.000000
1582, 200699784.000000, 1289.250000, 8166.000000, 8180.000000, 8170.000000
1583, 200699944.000000, 1739.500000, 8166.000000, 8179.000000, 8171.000000
1584, 200700104.000000, 2219.000000, 8167.000000, 8177.500000, 8170.500000
1585, 200700264.000000, 2577.875000, 8168.000000, 8176.500000, 8171.500000
1586, 200700424.000000, 2777.125000, 8173.500000, 8189.500000, 8194.000000
1587, 200700584.000000, 2810.000000, 8181.000000, 8206.500000, 8221.000000
1588, 200700744.000000, 2732.500000, 8200.000000, 8212.500000, 8233.500000
1589, 200700904.000000, 2589.625000, 8184.500000, 8184.500000, 8188.500000
1590, 200701064.000000, 2425.875000, 8163.500000, 8169.500000, 8158.000000
1591, 200701224.000000, 2262.125000, 8162.500000, 8168.000000, 8153.500000
1592, 200701384.000000, 2099.500000, 8162.000000, 8170.500000, 8154.000000
1593, 200701544.000000, 1965.250000, 8203.000000, 8210.500000, 8213.000000
1594, 200701704.000000, 1884.375000, 8352.000000, 7965.500000, 8057.500000
1595, 200701864.000000, 1871.875000, 8081.500000, 7975.500000, 7905.000000
1596, 200702024.000000, 1897.875000, 8177.500000, 8195.000000, 8184.000000
1597, 200702184.000000, 1935.125000, 8185.000000, 8218.000000, 8214.500000
1598, 200702344.000000, 1956.250000, 8191.000000, 8224.500000, 8223.000000
1599, 200702504.000000, 1947.125000, 8196.500000, 8226.000000, 8227.000000
1600, 200702664.000000, 1899.500000, 8203.500000, 8229.000000, 8232.500000
1601, 200702824.000000, 1818.875000, 8213.000000, 8232.500000, 8239.500000
1602, 200702984.000000, 1718.625000, 8219.500000, 8236.500000, 8248.000000
1603, 200703144.000000, 1611.125000, 8229.500000, 8241.000000, 8258.000000
1604, 200703304.000000, 1510.500000, 8238.000000, 8244.000000, 8266.000000
1605, 200703464.000000, 1425.625000, 8249.000000, 8241.500000, 8268.500000
1606, 200703624.000000, 1357.125000, 8254.000000, 8231.500000, 8259.500000
1607, 200703784.000000, 1308.000000, 8251.000000, 8218.500000, 8247.000000
1608, 200703944.000000, 1274.750000, 8221.000000, 8207.500000, 8225.000000
1609, 200704104.000000, 1252.000000, 8185.000000, 8202.000000, 8206.500000
1610, 200704264.000000, 1237.250000, 8162.500000, 8194.500000, 8188.000000
1611, 200704424.000000, 1224.500000, 8155.000000, 8190.000000, 8177.000000
1612, 200704584.000000, 1211.250000, 8158.000000, 8189.500000, 8176.500000
1613, 200704744.000000, 1194.625000, 8160.000000, 8191.000000, 8180.000000
1614, 200704904.000000, 1174.875000, 8166.000000, 8192.000000, 8184.000000
1615, 200705064.000000, 1149.500000, 8169.000000, 8191.500000, 8183.500000
1616, 200705224.000000, 1115.000000, 8171.500000, 8191.000000, 8184.500000
1617, 200705384.000000, 1070.500000, 8173.000000, 8190.000000, 8183.000000
1618, 200705544.000000, 1021.250000, 8172.000000, 8188.500000, 8180.500000
1619, 200705704.000000, 1007.375000, 8174.000000, 8186.000000, 8179.500000
1620, 200705864.000000, 1123.625000, 8173.000000, 8184.000000, 8175.000000
1621, 200706024.000000, 1438.375000, 8175.000000, 8182.000000, 8174.000000
1622, 200706184.000000, 1890.750000, 8174.000000, 8184.500000, 8175.500000
1623, 200706344.000000, 2334.125000, 8173.000000, 8183.000000, 8173.500000
1624, 200706504.000000, 2653.750000, 8174.500000, 8184.000000, 8175.500000
1625, 200706664.000000, 2802.750000, 8182.000000, 8198.500000, 8201.500000
1626, 200706824.000000, 2812.500000, 8189.000000, 8216.500000, 8231.500000
1627, 200706984.000000, 2717.000000, 8207.500000, 8220.000000, 8239.500000
1628, 200707144.000000, 2576.250000, 8190.500000, 8190.000000, 8191.000000
1629, 200707304.000000, 2419.625000, 8171.000000, 8175.500000, 8162.500000
1630, 200707464.000000, 2260.000000, 8171.500000, 8172.500000, 8158.000000
1631, 200707624.000000, 2104.750000, 8169.500000, 8172.000000, 8154.500000
1632, 200707784.000000, 1981.625000, 8215.000000, 8210.000000, 8213.500000
1633, 200707944.000000, 1923.125000, 8360.500000, 7903.500000, 7992.000000
1634, 200708104.000000, 1921.250000, 8090.000000, 7993.000000, 7915.500000
1635, 200708264.000000, 1952.375000, 8186.000000, 8203.500000, 8196.500000
1636, 200708424.000000, 1985.125000, 8189.000000, 8220.000000, 8217.000000
1637, 200708584.000000, 1997.375000, 8194.000000, 8226.500000, 8223.500000
1638, 200708744.000000, 1978.000000, 8200.000000, 8230.000000, 8232.000000
1639, 200708904.000000, 1923.875000, 8208.000000, 8233.500000, 8237.500000
1640, 200709064.000000, 1838.125000, 8216.000000, 8236.000000, 8245.000000
1641, 200709224.000000, 1737.375000, 8223.000000, 8240.000000, 8251.500000
1642, 200709384.000000, 1636.125000, 8231.000000, 8245.500000, 8260.500000
1643, 200709544.000000, 1543.750000, 8240.000000, 8248.000000, 8269.000000
1644, 200709704.000000, 1466.625000, 8251.000000, 8245.500000, 8272.000000
1645, 200709864.000000, 1407.500000, 8255.000000, 8237.500000, 8264.500000
1646, 200710024.000000, 1367.500000, 8249.000000, 8225.500000, 8251.500000
1647, 200710184.000000, 1340.375000, 8220.000000, 8213.500000, 8228.000000
1648, 200710344.000000, 1324.375000, 8186.500000, 8205.000000, 8205.500000
1649, 200710504.000000, 1314.125000, 8168.500000, 8198.500000, 8190.000000
1650, 200710664.000000, 1305.375000, 8160.500000, 8193.000000, 8177.500000
1651, 200710824.000000, 1292.250000, 8163.000000, 8193.000000, 8179.000000
1652, 200710984.000000, 1276.000000, 8164.000000, 8195.500000, 8182.500000
1653, 200711144.000000, 1256.000000, 8166.500000, 8198.000000, 8186.500000
1654, 200711304.000000, 1231.625000, 8171.000000, 8196.500000, 8187.500000
1655, 200711464.000000, 1200.250000, 8172.000000, 8195.500000, 8185.500000
1656, 200711624.000000, 1159.500000, 8173.000000, 8193.000000, 8182.000000
1657, 200711784.000000, 1113.625000, 8171.500000, 8191.000000, 8178.500000
1658, 200711944.000000, 1117.125000, 8171.000000, 8190.000000, 8179.000000
1659, 200712104.000000, 1286.500000, 8171.500000, 8187.000000, 8176.500000
1660, 200712264.000000, 1658.250000, 8172.500000, 8184.000000, 8172.500000
1661, 200712424.000000, 2159.500000, 8172.500000, 8184.500000, 8173.000000
1662, 200712584.000000, 2615.875000, 8172.000000, 8184.500000, 8172.500000
1663, 200712744.000000, 2922.375000, 8173.500000, 8186.000000, 8176.000000
1664, 200712904.000000, 3054.500000, 8179.500000, 8194.500000, 8193.500000
1665, 200713064.000000, 3036.500000, 8188.000000, 8215.000000, 8228.000000
1666, 200713224.000000, 2930.875000, 8206.500000, 8223.000000, 8243.500000
1667, 200713384.000000, 2782.875000, 8194.500000, 8193.000000, 8196.000000
1668, 200713544.000000, 2630.250000, 8171.000000, 8174.500000, 8161.500000
1669, 200713704.000000, 2474.625000, 8169.500000, 8169.500000, 8154.000000
1670, 200713864.000000, 2323.125000, 8171.500000, 8168.000000, 8152.500000
1671, 200714024.000000, 2203.250000, 8198.000000, 8193.000000, 8185.000000
1672, 200714184.000000, 2140.625000, 8357.000000, 7951.000000, 8042.000000
1673, 200714344.000000, 2129.250000, 8081.500000, 7948.000000, 7871.000000
1674, 200714504.000000, 2144.875000, 8184.000000, 8193.500000, 8185.500000
1675, 200714664.000000, 2159.500000, 8189.000000, 8216.500000, 8215.500000
1676, 200714824.000000, 2154.750000, 8193.000000, 8222.500000, 8222.500000
1677, 200714984.000000, 2118.500000, 8199.000000, 8226.500000, 8228.500000
1678, 200715144.000000, 2047.625000, 8207.000000, 8230.000000, 8237.000000
1679, 200715304.000000, 1951.750000, 8213.000000, 8232.000000, 8243.000000
1680, 200715464.000000, 1844.500000, 8221.500000, 8234.000000, 8249.500000
1681, 200715624.000000, 1735.750000, 8229.500000, 8238.000000, 8257.000000
1682, 200715784.000000, 1640.750000, 8241.000000, 8242.500000, 8268.000000
1683, 200715944.000000, 1562.500000, 8250.500000, 8242.000000, 8271.000000
1684, 200716104.000000, 1503.625000, 8257.500000, 8237.000000, 8268.500000
1685, 200716264.000000, 1462.250000, 8255.500000, 8226.000000, 8257.500000
1686, 200716424.000000, 1434.000000, 8227.000000, 8216.000000, 8235.500000
1687, 200716584.000000, 1417.875000, 8191.000000, 8208.000000, 8212.500000
1688, 200716744.000000, 1406.375000, 8171.000000, 8199.500000, 8194.500000
1689, 200716904.000000, 1392.875000, 8163.500000, 8195.500000, 8184.000000
1690, 200717064.000000, 1378.125000, 8163.000000, 8193.000000, 8181.000000
1691, 200717224.000000, 1358.375000, 8166.000000, 8193.500000, 8182.500000
1692, 200717384.000000, 1332.500000, 8170.500000, 8194.000000, 8186.000000
1693, 200717544.000000, 1301.875000, 8175.500000, 8193.000000, 8187.500000
1694, 200717704.000000, 1266.000000, 8176.000000, 8191.500000, 8186.000000
1695, 200717864.000000, 1223.125000, 8176.000000, 8189.000000, 8182.000000
1696, 200718024.000000, 1172.875000, 8175.000000, 8188.000000, 8181.000000
1697, 200718184.000000, 1158.625000, 8172.500000, 8186.000000, 8176.500000
1698, 200718344.000000, 1261.625000, 8171.500000, 8184.000000, 8175.500000
1699, 200718504.000000, 1584.000000, 8173.000000, 8182.000000, 8173.000000
1700, 200718664.000000, 2054.250000, 8172.000000, 8181.500000, 8171.500000
1701, 200718824.000000, 2535.000000, 8169.000000, 8179.500000, 8168.500000
1702, 200718984.000000, 2881.875000, 8170.000000, 8180.000000, 8167.000000
1703, 200719144.000000, 3051.875000, 8178.000000, 8195.000000, 8197.500000
1704, 200719304.000000, 3069.000000, 8185.500000, 8212.500000, 8225.500000
1705, 200719464.000000, 2979.000000, 8199.000000, 8207.000000, 8217.500000
1706, 200719624.000000, 2841.625000, 8177.000000, 8181.000000, 8172.500000
1707, 200719784.000000, 2692.500000, 8163.500000, 8170.500000, 8153.000000
1708, 200719944.000000, 2539.250000, 8164.000000, 8169.000000, 8152.000000
1709, 200720104.000000, 2386.500000, 8163.500000, 8168.500000, 8150.000000
1710, 200720264.000000, 2255.875000, 8240.500000, 8219.000000, 8241.500000
1711, 200720424.000000, 2177.125000, 8359.000000, 7913.000000, 7997.500000
1712, 200720584.000000, 2155.250000, 8103.500000, 8044.500000, 7979.000000
1713, 200720744.000000, 2167.375000, 8177.500000, 8203.500000, 8197.000000
1714, 200720904.000000, 2180.000000, 8179.500000, 8217.000000, 8211.000000
1715, 200721064.000000, 2173.875000, 8183.500000, 8223.500000, 8218.000000
1716, 200721224.000000, 2139.250000, 8189.500000, 8226.500000, 8224.000000
1717, 200721384.000000, 2073.000000, 8195.500000, 8231.000000, 8232.500000
1718, 200721544.000000, 1978.750000, 8205.000000, 8235.000000, 8242.500000
1719, 200721704.000000, 1869.875000, 8211.000000, 8238.000000, 8248.000000
1720, 200721864.000000, 1758.875000, 8223.000000, 8239.500000, 8255.000000
1721, 200722024.000000, 1661.875000, 8232.000000, 8240.000000, 8258.000000
1722, 200722184.000000, 1578.375000, 8243.500000, 8234.500000, 8258.000000
1723, 200722344.000000, 1513.625000, 8248.000000, 8225.500000, 8251.500000
1724, 200722504.000000, 1467.375000, 8239.000000, 8214.500000, 8238.000000
1725, 200722664.000000, 1437.750000, 8203.000000, 8207.500000, 8219.000000
1726, 200722824.000000, 1419.375000, 8167.000000, 8203.000000, 8199.500000
1727, 200722984.000000, 1408.500000, 8150.500000, 8197.500000, 8185.000000
1728, 200723144.000000, 1395.375000, 8146.500000, 8193.000000, 8177.000000
1729, 200723304.000000, 1381.625000, 8148.500000, 8191.000000, 8174.500000
1730, 200723464.000000, 1362.875000, 8157.000000, 8191.000000, 8178.000000
1731, 200723624.000000, 1338.750000, 8162.000000, 8193.500000, 8182.500000
1732, 200723784.000000, 1310.125000, 8167.000000, 8192.000000, 8183.000000
1733, 200723944.000000, 1271.375000, 8168.000000, 8190.500000, 8183.500000
1734, 200724104.000000, 1223.125000, 8169.500000, 8188.500000, 8180.000000
1735, 200724264.000000, 1169.125000, 8167.500000, 8187.500000, 8177.500000
1736, 200724424.000000, 1143.375000, 8168.000000, 8188.000000, 8177.500000
1737, 200724584.000000, 1237.125000, 8166.500000, 8186.500000, 8175.000000
1738, 200724744.000000, 1509.000000, 8167.000000, 8186.000000, 8175.000000
1739, 200724904.000000, 1944.250000, 8167.000000, 8185.500000, 8174.500000
1740, 200725064.000000, 2390.375000, 8166.000000, 8183.000000, 8171.000000
1741, 200725224.000000, 2728.500000, 8168.000000, 8183.500000, 8172.500000
1742, 200725384.000000, 2901.875000, 8182.500000, 8208.000000, 8217.000000
1743, 200725544.000000, 2926.000000, 8196.500000, 8229.000000, 8253.000000
1744, 200725704.000000, 2843.750000, 8196.500000, 8203.500000, 8210.500000
1745, 200725864.000000, 2706.500000, 8173.000000, 8177.000000, 8165.500000
1746, 200726024.000000, 2554.000000, 8166.000000, 8170.000000, 8152.000000
1747, 200726184.000000, 2392.375000, 8166.500000, 8169.000000, 8151.500000
1748, 200726344.000000, 2228.375000, 8173.000000, 8165.000000, 8144.500000
1749, 200726504.000000, 2092.250000, 8282.500000, 8162.500000, 8213.000000
1750, 200726664.000000, 2016.250000, 8250.000000, 7844.000000, 7863.500000
1751, 200726824.000000, 2004.750000, 8137.500000, 8124.500000, 8074.500000
1752, 200726984.000000, 2032.000000, 8179.500000, 8213.000000, 8207.000000
1753, 200727144.000000, 2047.500000, 8184.000000, 8221.000000, 8217.000000
1754, 200727304.000000, 2038.375000, 8189.000000, 8224.000000, 8221.000000
1755, 200727464.000000, 1984.625000, 8196.000000, 8225.500000, 8225.500000
1756, 200727624.000000, 1895.875000, 8203.000000, 8229.500000, 8233.000000
1757, 200727784.000000, 1777.125000, 8212.000000, 8234.500000, 8243.000000
1758, 200727944.000000, 1673.000000, 8221.000000, 8238.000000, 8250.500000
1759, 200728104.000000, 1578.125000, 8230.000000, 8242.000000, 8258.000000
1760, 200728264.000000, 1500.625000, 8242.500000, 8242.000000, 8263.500000
1761, 200728424.000000, 1440.875000, 8251.000000, 8238.000000, 8264.000000
1762, 200728584.000000, 1399.500000, 8254.000000, 8229.500000, 8257.500000
1763, 200728744.000000, 1373.375000, 8240.000000, 8216.000000, 8240.000000
1764, 200728904.000000, 1358.250000, 8200.000000, 8205.500000, 8213.000000
1765, 200729064.000000, 1346.500000, 8171.000000, 8197.500000, 8191.000000
1766, 200729224.000000, 1329.125000, 8157.500000, 8190.000000, 8176.500000
1767, 200729384.000000, 1307.000000, 8157.000000, 8187.500000, 8173.500000
1768, 200729544.000000, 1285.875000, 8159.000000, 8188.000000, 8175.500000
1769, 200729704.000000, 1259.500000, 8162.500000, 8188.000000, 8176.500000
1770, 200729864.000000, 1228.000000, 8167.000000, 8189.000000, 8179.500000
1771, 200730024.000000, 1186.375000, 8170.000000, 8188.000000, 8180.500000
1772, 200730184.000000, 1137.875000, 8172.500000, 8187.500000, 8180.000000
1773, 200730344.000000, 1114.875000, 8173.500000, 8184.500000, 8177.500000
1774, 200730504.000000, 1213.625000, 8175.500000, 8181.500000, 8174.000000
1775, 200730664.000000, 1511.000000, 8174.000000, 8180.000000, 8171.000000
1776, 200730824.000000, 1979.500000, 8174.000000, 8181.000000, 8172.500000
1777, 200730984.000000, 2466.125000, 8173.000000, 8181.000000, 8172.000000
1778, 200731144.000000, 2840.500000, 8174.500000, 8178.000000, 8170.500000
1779, 200731304.000000, 3031.625000, 8175.000000, 8177.000000, 8169.000000
1780, 200731464.000000, 3065.250000, 8174.000000, 8177.500000, 8169.000000
1781, 200731624.000000, 2980.000000, 8175.500000, 8180.000000, 8172.500000
1782, 200731784.000000, 2840.375000, 8187.500000, 8206.500000, 8219.500000
1783, 200731944.000000, 2688.875000, 8201.500000, 8225.000000, 8251.500000
1784, 200732104.000000, 2535.375000, 8196.500000, 8196.000000, 8203.000000
1785, 200732264.000000, 2379.625000, 8170.000000, 8172.500000, 8159.000000
1786, 200732424.000000, 2235.375000, 8167.000000, 8170.000000, 8153.000000
1787, 200732584.000000, 2141.500000, 8166.500000, 8170.000000, 8152.500000
1788, 200732744.000000, 2104.750000, 8178.000000, 8167.500000, 8146.500000
1789, 200732904.000000, 2107.500000, 8314.500000, 8095.500000, 8169.000000
1790, 200733064.000000, 2118.250000, 8150.500000, 7867.000000, 7832.500000
1791, 200733224.000000, 2115.250000, 8159.000000, 8163.500000, 8133.000000
1792, 200733384.000000, 2082.375000, 8181.500000, 8218.000000, 8214.500000
1793, 200733544.000000, 2015.375000, 8185.500000, 8225.000000, 8223.000000
1794, 200733704.000000, 1921.625000, 8189.000000, 8227.500000, 8225.500000
1795, 200733864.000000, 1811.500000, 8195.000000, 8229.500000, 8230.500000
1796, 200734024.000000, 1701.625000, 8202.000000, 8234.500000, 8238.500000
1797, 200734184.000000, 1599.875000, 8210.000000, 8239.500000, 8249.500000
1798, 200734344.000000, 1515.500000, 8219.500000, 8243.000000, 8257.500000
1799, 200734504.000000, 1451.625000, 8230.000000, 8247.000000, 8267.000000
1800, 200734664.000000, 1404.125000, 8239.000000, 8248.000000, 8270.500000
1801, 200734824.000000, 1373.125000, 8246.000000, 8244.000000, 8271.000000
1802, 200734984.000000, 1352.250000, 8248.500000, 8234.500000, 8264.000000
1803, 200735144.000000, 1337.875000, 8230.500000, 8220.500000, 8243.500000
1804, 200735304.000000, 1325.125000, 8191.500000, 8210.500000, 8217.000000
1805, 200735464.000000, 1308.625000, 8164.500000, 8201.000000, 8193.000000
1806, 200735624.000000, 1284.750000, 8154.500000, 8197.000000, 8182.500000
1807, 200735784.000000, 1257.500000, 8153.500000, 8196.000000, 8181.500000
1808, 200735944.000000, 1225.500000, 8156.500000, 8197.000000, 8183.500000
1809, 200736104.000000, 1193.250000, 8160.000000, 8199.000000, 8187.000000
1810, 200736264.000000, 1157.000000, 8164.000000, 8200.000000, 8189.000000
1811, 200736424.000000, 1114.750000, 8167.000000, 8199.500000, 8190.500000
1812, 200736584.000000, 1070.250000, 8169.000000, 8199.000000, 8191.000000
1813, 200736744.000000, 1058.875000, 8169.000000, 8195.000000, 8187.000000
1814, 200736904.000000, 1190.750000, 8167.500000, 8191.000000, 8181.000000
1815, 200737064.000000, 1533.250000, 8167.500000, 8189.000000, 8179.000000
1816, 200737224.000000, 2040.875000, 8166.500000, 8188.500000, 8177.000000
1817, 200737384.000000, 2543.750000, 8167.000000, 8187.500000, 8176.500000
1818, 200737544.000000, 2914.750000, 8169.500000, 8185.000000, 8174.500000
1819, 200737704.000000, 3087.000000, 8169.000000, 8184.000000, 8172.000000
1820, 200737864.000000, 3100.250000, 8169.000000, 8185.000000, 8173.000000
1821, 200738024.000000, 2998.875000, 8170.000000, 8186.000000, 8174.500000
1822, 200738184.000000, 2848.000000, 8171.500000, 8189.000000, 8178.500000
1823, 200738344.000000, 2690.250000, 8186.000000, 8213.000000, 8222.000000
1824, 200738504.000000, 2535.000000, 8200.500000, 8231.000000, 8256.500000
1825, 200738664.000000, 2374.000000, 8198.000000, 8203.000000, 8210.000000
1826, 200738824.000000, 2228.250000, 8171.500000, 8179.500000, 8167.500000
1827, 200738984.000000, 2135.125000, 8171.000000, 8176.000000, 8163.000000
1828, 200739144.000000, 2098.750000, 8170.000000, 8174.500000, 8159.500000
1829, 200739304.000000, 2099.250000, 8176.500000, 8172.000000, 8151.000000
1830, 200739464.000000, 2104.125000, 8316.500000, 8123.500000, 8195.500000
1831, 200739624.000000, 2098.625000, 8167.000000, 7876.000000, 7851.500000
1832, 200739784.000000, 2064.125000, 8157.000000, 8159.000000, 8126.000000
1833, 200739944.000000, 1992.750000, 8183.000000, 8217.000000, 8212.000000
1834, 200740104.000000, 1896.375000, 8186.000000, 8223.500000, 8218.500000
1835, 200740264.000000, 1783.250000, 8192.000000, 8227.000000, 8224.000000
1836, 200740424.000000, 1669.500000, 8197.500000, 8228.000000, 8228.500000
1837, 200740584.000000, 1564.625000, 8207.000000, 8231.000000, 8237.000000
1838, 200740744.000000, 1478.375000, 8212.500000, 8233.500000, 8243.000000
1839, 200740904.000000, 1412.625000, 8223.000000, 8236.500000, 8250.500000
1840, 200741064.000000, 1363.125000, 8232.000000, 8239.000000, 8257.000000
1841, 200741224.000000, 1330.750000, 8242.500000, 8238.000000, 8262.500000
1842, 200741384.000000, 1308.125000, 8252.000000, 8233.000000, 8262.000000
1843, 200741544.000000, 1291.250000, 8254.500000, 8224.500000, 8255.000000
1844, 200741704.000000, 1277.250000, 8237.000000, 8211.500000, 8235.500000
1845, 200741864.000000, 1261.625000, 8198.500000, 8204.000000, 8213.500000
1846, 200742024.000000, 1240.750000, 8169.500000, 8198.000000, 8193.500000
1847, 200742184.000000, 1215.125000, 8160.000000, 8193.500000, 8183.500000
1848, 200742344.000000, 1184.250000, 8158.500000, 8193.000000, 8181.000000
1849, 200742504.000000, 1151.500000, 8162.000000, 8193.000000, 8182.000000
1850, 200742664.000000, 1118.250000, 8167.000000, 8195.000000, 8186.000000
1851, 200742824.000000, 1081.625000, 8171.000000, 8195.000000, 8188.000000
1852, 200742984.000000, 1038.625000, 8175.500000, 8194.000000, 8188.500000
1853, 200743144.000000, 990.125000, 8177.000000, 8191.500000, 8186.500000
1854, 200743304.000000, 968.125000, 8175.000000, 8189.500000, 8182.500000
1855, 200743464.000000, 1056.250000, 8172.000000, 8186.500000, 8178.500000
1856, 200743624.000000, 1357.000000, 8171.500000, 8185.000000, 8177.500000
1857, 200743784.000000, 1848.625000, 8172.000000, 8182.500000, 8174.500000
1858, 200743944.000000, 2379.125000, 8171.500000, 8182.000000, 8173.500000
1859, 200744104.000000, 2785.750000, 8171.000000, 8182.000000, 8173.000000
1860, 200744264.000000, 3008.750000, 8171.000000, 8182.000000, 8173.000000
1861, 200744424.000000, 3051.375000, 8172.500000, 8184.000000, 8174.500000
1862, 200744584.000000, 2966.250000, 8175.000000, 8184.000000, 8177.000000
1863, 200744744.000000, 2815.750000, 8187.000000, 8208.000000, 8218.000000
1864, 200744904.000000, 2648.625000, 8201.500000, 8227.500000, 8252.000000
1865, 200745064.000000, 2479.500000, 8200.000000, 8200.500000, 8210.500000
1866, 200745224.000000, 2309.625000, 8173.500000, 8178.000000, 8169.000000
1867, 200745384.000000, 2152.375000, 8169.500000, 8172.500000, 8159.000000
1868, 200745544.000000, 2044.750000, 8170.500000, 8171.000000, 8157.000000
1869, 200745704.000000, 2000.625000, 8179.500000, 8169.000000, 8151.000000
1870, 200745864.000000, 2004.000000, 8313.000000, 8161.500000, 8232.000000
1871, 200746024.000000, 2023.750000, 8190.500000, 7891.500000, 7885.500000
1872, 200746184.000000, 2031.625000, 8153.500000, 8139.500000, 8101.000000
1873, 200746344.000000, 2010.625000, 8188.500000, 8212.500000, 8208.500000
1874, 200746504.000000, 1955.000000, 8192.000000, 8220.500000, 8217.500000
1875, 200746664.000000, 1863.375000, 8197.000000, 8225.000000, 8225.000000
1876, 200746824.000000, 1752.125000, 8204.000000, 8228.000000, 8231.000000
1877, 200746984.000000, 1634.625000, 8212.500000, 8232.000000, 8240.500000
1878, 200747144.000000, 1526.000000, 8220.500000, 8236.000000, 8248.000000
1879, 200747304.000000, 1431.125000, 8228.500000, 8239.000000, 8254.500000
1880, 200747464.000000, 1356.875000, 8237.500000, 8242.500000, 8263.000000
1881, 200747624.000000, 1302.750000, 8248.000000, 8243.000000, 8269.000000
1882, 200747784.000000, 1264.625000, 8257.500000, 8234.500000, 8265.000000
1883, 200747944.000000, 1242.000000, 8260.000000, 8223.000000, 8255.000000
1884, 200748104.000000, 1225.375000, 8242.000000, 8209.000000, 8234.500000
1885, 200748264.000000, 1213.875000, 8202.500000, 8202.000000, 8213.000000
1886, 200748424.000000, 1202.375000, 8173.000000, 8196.000000, 8194.500000
1887, 200748584.000000, 1186.625000, 8159.000000, 8192.500000, 8183.500000
1888, 200748744.000000, 1165.750000, 8155.500000, 8191.000000, 8179.000000
1889, 200748904.000000, 1138.500000, 8157.000000, 8190.000000, 8178.000000
1890, 200749064.000000, 1107.250000, 8160.000000, 8192.500000, 8182.500000
1891, 200749224.000000, 1070.000000, 8164.000000, 8195.500000, 8188.000000
1892, 200749384.000000, 1026.625000, 8167.000000, 8195.500000, 8188.500000
1893, 200749544.000000, 975.875000, 8168.000000, 8191.500000, 8184.500000
1894, 200749704.000000, 934.125000, 8165.500000, 8188.000000, 8177.500000
1895, 200749864.000000, 960.375000, 8165.000000, 8185.500000, 8176.500000
1896, 200750024.000000, 1159.250000, 8163.000000, 8183.000000, 8173.000000
1897, 200750184.000000, 1577.750000, 8165.000000, 8182.000000, 8173.000000
1898, 200750344.000000, 2098.875000, 8165.000000, 8180.500000, 8171.500000
1899, 200750504.000000, 2555.000000, 8164.000000, 8179.500000, 8168.500000
1900, 200750664.000000, 2849.375000, 8167.000000, 8181.000000, 8172.000000
1901, 200750824.000000, 2957.750000, 8167.000000, 8180.000000, 8171.000000
1902, 200750984.000000, 2916.500000, 8167.000000, 8180.000000, 8171.000000
1903, 200751144.000000, 2782.000000, 8167.000000, 8179.000000, 8170.000000
1904, 200751304.000000, 2610.250000, 8181.500000, 8206.000000, 8217.000000
1905, 200751464.000000, 2434.625000, 8195.000000, 8226.500000, 8252.500000
1906, 200751624.000000, 2255.125000, 8193.000000, 8200.000000, 8208.000000
1907, 200751784.000000, 2086.250000, 8169.000000, 8175.000000, 8164.000000
1908, 200751944.000000, 1964.250000, 8165.500000, 8169.500000, 8155.000000
1909, 200752104.000000, 1912.375000, 8164.000000, 8169.000000, 8152.000000
1910, 200752264.000000, 1917.250000, 8174.000000, 8166.000000, 8144.500000
1911, 200752424.000000, 1945.500000, 8292.000000, 8146.000000, 8206.000000
1912, 200752584.000000, 1971.625000, 8217.000000, 7851.000000, 7851.000000
1913, 200752744.000000, 1969.625000, 8148.000000, 8139.500000, 8097.500000
1914, 200752904.000000, 1933.875000, 8184.000000, 8213.500000, 8209.500000
1915, 200753064.000000, 1859.125000, 8187.500000, 8223.500000, 8221.500000
1916, 200753224.000000, 1757.500000, 8193.000000, 8229.000000, 8230.500000
1917, 200753384.000000, 1645.250000, 8199.500000, 8231.000000, 8235.000000
1918, 200753544.000000, 1535.875000, 8206.500000, 8234.000000, 8241.500000
1919, 200753704.000000, 1438.500000, 8212.000000, 8237.500000, 8247.500000
1920, 200753864.000000, 1358.875000, 8222.000000, 8242.500000, 8258.500000
1921, 200754024.000000, 1303.500000, 8230.000000, 8247.000000, 8266.500000
1922, 200754184.000000, 1261.625000, 8240.000000, 8247.500000, 8272.500000
1923, 200754344.000000, 1236.375000, 8247.000000, 8241.500000, 8269.500000
1924, 200754504.000000, 1219.375000, 8248.000000, 8233.500000, 8262.000000
1925, 200754664.000000, 1208.500000, 8236.000000, 8218.500000, 8243.000000
1926, 200754824.000000, 1198.500000, 8204.000000, 8209.000000, 8221.000000
1927, 200754984.000000, 1185.625000, 8175.000000, 8200.500000, 8197.500000
1928, 200755144.000000, 1170.125000, 8162.500000, 8193.500000, 8183.000000
1929, 200755304.000000, 1149.375000, 8160.500000, 8191.500000, 8178.000000
1930, 200755464.000000, 1126.750000, 8164.000000, 8192.000000, 8179.000000
1931, 200755624.000000, 1101.125000, 8169.000000, 8195.000000, 8185.000000
1932, 200755784.000000, 1071.375000, 8172.000000, 8196.000000, 8188.000000
1933, 200755944.000000, 1036.625000, 8174.000000, 8194.000000, 8185.000000
1934, 200756104.000000, 991.500000, 8176.000000, 8192.000000, 8183.000000
1935, 200756264.000000, 951.000000, 8175.000000, 8190.000000, 8180.000000
1936, 200756424.000000, 982.125000, 8176.000000, 8189.000000, 8180.000000
1937, 200756584.000000, 1220.500000, 8174.500000, 8187.500000, 8178.000000
1938, 200756744.000000, 1679.250000, 8174.500000, 8186.000000, 8175.500000
1939, 200756904.000000, 2251.875000, 8175.000000, 8185.000000, 8174.000000
1940, 200757064.000000, 2744.750000, 8174.500000, 8185.500000, 8174.000000
1941, 200757224.000000, 3054.000000, 8176.000000, 8185.500000, 8174.500000
1942, 200757384.000000, 3164.375000, 8176.500000, 8185.500000, 8174.500000
1943, 200757544.000000, 3121.375000, 8177.000000, 8185.500000, 8174.500000
1944, 200757704.000000, 2977.125000, 8178.000000, 8185.500000, 8175.500000
1945, 200757864.000000, 2794.750000, 8177.500000, 8188.500000, 8179.500000
1946, 200758024.000000, 2610.875000, 8189.500000, 8214.000000, 8225.500000
1947, 200758184.000000, 2428.375000, 8204.500000, 8225.000000, 8248.500000
1948, 200758344.000000, 2257.250000, 8200.000000, 8197.000000, 8202.500000
1949, 200758504.000000, 2122.750000, 8171.500000, 8176.000000, 8162.000000
1950, 200758664.000000, 2055.625000, 8171.000000, 8172.000000, 8157.000000
1951, 200758824.000000, 2045.500000, 8170.500000, 8172.000000, 8158.000000
1952, 200758984.000000, 2063.125000, 8181.000000, 8171.500000, 8152.500000
1953, 200759144.000000, 2080.500000, 8322.000000, 8073.500000, 8151.000000
1954, 200759304.000000, 2078.875000, 8131.000000, 7877.500000, 7832.000000
1955, 200759464.000000, 2042.250000, 8167.000000, 8168.500000, 8145.000000
1956, 200759624.000000, 1967.125000, 8186.000000, 8217.500000, 8216.500000
1957, 200759784.000000, 1862.875000, 8192.500000, 8226.000000, 8226.500000
1958, 200759944.000000, 1741.750000, 8198.000000, 8228.000000, 8229.000000
1959, 200760104.000000, 1621.250000, 8202.000000, 8232.000000, 8234.000000
1960, 200760264.000000, 1512.125000, 8211.000000, 8236.500000, 8242.500000
1961, 200760424.000000, 1422.000000, 8218.500000, 8241.000000, 8251.500000
1962, 200760584.000000, 1353.250000, 8225.000000, 8244.000000, 8258.000000
1963, 200760744.000000, 1305.000000, 8232.000000, 8247.000000, 8263.000000
1964, 200760904.000000, 1271.875000, 8241.000000, 8250.000000, 8270.000000
1965, 200761064.000000, 1253.250000, 8248.000000, 8243.500000, 8267.500000
1966, 200761224.000000, 1241.500000, 8249.500000, 8235.000000, 8260.500000
1967, 200761384.000000, 1230.875000, 8236.000000, 8220.000000, 8240.500000
1968, 200761544.000000, 1218.375000, 8199.000000, 8209.500000, 8213.000000
1969, 200761704.000000, 1202.000000, 8172.500000, 8199.500000, 8189.000000
1970, 200761864.000000, 1179.875000, 8161.500000, 8193.500000, 8177.500000
1971, 200762024.000000, 1154.125000, 8162.000000, 8190.000000, 8175.000000
1972, 200762184.000000, 1124.500000, 8164.000000, 8189.000000, 8173.000000
1973, 200762344.000000, 1096.750000, 8168.000000, 8188.000000, 8175.000000
1974, 200762504.000000, 1068.500000, 8171.500000, 8187.500000, 8176.000000
1975, 200762664.000000, 1035.625000, 8174.500000, 8188.000000, 8177.500000
1976, 200762824.000000, 992.500000, 8177.000000, 8186.000000, 8177.000000
1977, 200762984.000000, 950.500000, 8176.000000, 8184.500000, 8173.500000
1978, 200763144.000000, 981.125000, 8176.000000, 8182.000000, 8171.000000
1979, 200763304.000000, 1225.625000, 8172.500000, 8181.000000, 8167.500000
1980, 200763464.000000, 1698.375000, 8173.000000, 8180.500000, 8167.500000
1981, 200763624.000000, 2288.625000, 8173.000000, 8179.500000, 8166.500000
1982, 200763784.000000, 2793.875000, 8175.000000, 8179.500000, 8167.500000
1983, 200763944.000000, 3110.750000, 8176.500000, 8178.000000, 8166.000000
1984, 200764104.000000, 3229.125000, 8177.000000, 8180.500000, 8169.500000
1985, 200764264.000000, 3180.375000, 8176.000000, 8182.000000, 8170.500000
1986, 200764424.000000, 3038.000000, 8178.500000, 8183.500000, 8174.000000
1987, 200764584.000000, 2852.500000, 8188.000000, 8206.500000, 8214.500000
1988, 200764744.000000, 2661.625000, 8202.500000, 8226.000000, 8248.000000
1989, 200764904.000000, 2474.750000, 8200.000000, 8200.500000, 8204.500000
1990, 200765064.000000, 2298.000000, 8177.000000, 8179.500000, 8167.000000
1991, 200765224.000000, 2160.750000, 8172.000000, 8176.000000, 8160.000000
1992, 200765384.000000, 2091.875000, 8172.500000, 8174.000000, 8157.500000
1993, 200765544.000000, 2086.125000, 8179.500000, 8170.500000, 8148.500000
1994, 200765704.000000, 2108.375000, 8322.500000, 8170.500000, 8241.500000
1995, 200765864.000000, 2131.375000, 8177.000000, 7903.000000, 7889.000000
1996, 200766024.000000, 2129.750000, 8151.000000, 8140.000000, 8098.000000
1997, 200766184.000000, 2093.875000, 8184.500000, 8211.500000, 8203.000000
1998, 200766344.000000, 2019.250000, 8188.000000, 8220.500000, 8213.500000
1999, 200766504.000000, 1912.625000, 8194.500000, 8226.000000, 8222.000000
2000, 200766664.000000, 1790.750000, 8199.500000, 8228.500000, 8227.500000
2001, 200766824.000000, 1668.000000, 8209.500000, 8233.000000, 8237.500000
2002, 200766984.000000, 1558.000000, 8216.500000, 8238.000000, 8244.500000
2003, 200767144.000000, 1464.750000, 8226.000000, 8242.500000, 8252.500000
2004, 200767304.000000, 1391.125000, 8235.500000, 8248.000000, 8261.000000
2005, 200767464.000000, 1339.750000, 8246.500000, 8251.000000, 8270.000000
2006, 200767624.000000, 1306.750000, 8256.000000, 8245.500000, 8269.000000
2007, 200767784.000000, 1286.250000, 8257.000000, 8236.000000, 8260.500000
2008, 200767944.000000, 1272.625000, 8244.000000, 8221.500000, 8244.000000
2009, 200768104.000000, 1263.500000, 8205.000000, 8214.500000, 8223.000000
2010, 200768264.000000, 1255.375000, 8174.000000, 8208.000000, 8202.500000
2011, 200768424.000000, 1242.250000, 8162.000000, 8203.500000, 8193.000000
2012, 200768584.000000, 1224.875000, 8159.000000, 8201.500000, 8189.000000
2013, 200768744.000000, 1203.375000, 8160.000000, 8200.000000, 8188.000000
2014, 200768904.000000, 1178.625000, 8164.500000, 8200.000000, 8190.000000
2015, 200769064.000000, 1149.250000, 8169.000000, 8198.000000, 8192.000000
2016, 200769224.000000, 1111.750000, 8170.000000, 8195.500000, 8188.500000
2017, 200769384.000000, 1062.875000, 8171.000000, 8191.000000, 8184.000000
2018, 200769544.000000, 1009.875000, 8171.000000, 8188.000000, 8181.000000
2019, 200769704.000000, 987.875000, 8169.000000, 8186.000000, 8176.000000
2020, 200769864.000000, 1096.750000, 8169.000000, 8185.000000, 8175.000000
2021, 200770024.000000, 1427.500000, 8169.000000, 8184.000000, 8174.000000
2022, 200770184.000000, 1938.750000, 8169.500000, 8182.000000, 8172.500000
2023, 200770344.000000, 2466.375000, 8169.500000, 8182.000000, 8172.500000
2024, 200770504.000000, 2862.875000, 8169.500000, 8185.000000, 8175.500000
2025, 200770664.000000, 3064.375000, 8181.000000, 8210.000000, 8219.500000
2026, 200770824.000000, 3099.750000, 8195.000000, 8229.500000, 8253.500000
2027, 200770984.000000, 3001.875000, 8199.000000, 8206.000000, 8216.500000
2028, 200771144.000000, 2837.875000, 8174.000000, 8177.000000, 8168.500000
2029, 200771304.000000, 2650.875000, 8164.500000, 8167.000000, 8151.000000
2030, 200771464.000000, 2455.375000, 8164.000000, 8166.000000, 8151.000000
2031, 200771624.000000, 2267.000000, 8167.000000, 8164.500000, 8148.000000
2032, 200771784.000000, 2110.125000, 8264.000000, 8192.500000, 8235.500000
2033, 200771944.000000, 2024.500000, 8299.000000, 7849.000000, 7901.000000
2034, 200772104.000000, 2009.125000, 8121.000000, 8088.000000, 8032.000000
2035, 200772264.000000, 2041.000000, 8178.000000, 8205.500000, 8203.500000
2036, 200772424.000000, 2080.750000, 8183.000000, 8215.500000, 8217.500000
2037, 200772584.000000, 2105.500000, 8187.000000, 8219.000000, 8221.000000
2038, 200772744.000000, 2093.250000, 8192.000000, 8221.000000, 8224.000000
2039, 200772904.000000, 2040.875000, 8199.000000, 8225.500000, 8231.500000
2040, 200773064.000000, 1953.875000, 8209.500000, 8229.500000, 8240.000000
2041, 200773224.000000, 1842.625000, 8220.000000, 8234.000000, 8249.500000
2042, 200773384.000000, 1724.250000, 8229.000000, 8238.000000, 8256.000000
2043, 200773544.000000, 1613.750000, 8241.500000, 8240.000000, 8262.000000
2044, 200773704.000000, 1519.875000, 8250.000000, 8237.000000, 8262.500000
2045, 200773864.000000, 1445.750000, 8255.500000, 8229.500000, 8257.000000
2046, 200774024.000000, 1391.000000, 8245.000000, 8213.000000, 8237.500000
2047, 200774184.000000, 1357.125000, 8207.500000, 8204.500000, 8214.000000
2048, 200774344.000000, 1337.250000, 8174.500000, 8197.000000, 8191.000000
2049, 200774504.000000, 1324.500000, 8159.500000, 8191.000000, 8177.500000
2050, 200774664.000000, 1315.500000, 8155.000000, 8189.000000, 8172.000000
2051, 200774824.000000, 1306.125000, 8157.500000, 8190.000000, 8174.500000
2052, 200774984.000000, 1295.375000, 8161.000000, 8189.000000, 8174.000000
2053, 200775144.000000, 1281.625000, 8164.500000, 8190.000000, 8176.000000
2054, 200775304.000000, 1259.500000, 8168.000000, 8190.500000, 8179.500000
2055, 200775464.000000, 1225.000000, 8171.000000, 8188.000000, 8177.500000
2056, 200775624.000000, 1176.500000, 8171.500000, 8185.000000, 8174.500000
2057, 200775784.000000, 1137.375000, 8171.000000, 8182.500000, 8170.000000
2058, 200775944.000000, 1174.000000, 8171.000000, 8180.000000, 8167.000000
2059, 200776104.000000, 1407.000000, 8171.000000, 8179.000000, 8166.000000
2060, 200776264.000000, 1838.000000, 8171.500000, 8179.000000, 8167.500000
2061, 200776424.000000, 2360.125000, 8172.000000, 8177.000000, 8165.000000
2062, 200776584.000000, 2801.375000, 8172.000000, 8176.500000, 8164.500000
2063, 200776744.000000, 3077.875000, 8171.000000, 8175.000000, 8162.500000
2064, 200776904.000000, 3177.875000, 8179.500000, 8189.000000, 8190.500000
2065, 200777064.000000, 3130.625000, 8187.000000, 8207.000000, 8221.500000
2066, 200777224.000000, 2997.750000, 8205.000000, 8211.500000, 8230.000000
2067, 200777384.000000, 2825.625000, 8190.000000, 8181.500000, 8181.500000
2068, 200777544.000000, 2645.875000, 8168.000000, 8164.000000, 8149.000000
2069, 200777704.000000, 2464.000000, 8168.000000, 8162.000000, 8147.000000
2070, 200777864.000000, 2297.000000, 8169.000000, 8161.500000, 8147.500000
2071, 200778024.000000, 2185.250000, 8215.500000, 8198.500000, 8207.000000
2072, 200778184.000000, 2146.000000, 8355.500000, 7893.500000, 7984.500000
2073, 200778344.000000, 2160.500000, 8086.500000, 7985.000000, 7910.000000
2074, 200778504.000000, 2197.750000, 8185.000000, 8198.000000, 8195.500000
2075, 200778664.000000, 2226.000000, 8189.500000, 8216.500000, 8216.000000
2076, 200778824.000000, 2226.625000, 8195.000000, 8222.000000, 8223.000000
2077, 200778984.000000, 2186.625000, 8201.000000, 8226.000000, 8228.000000
2078, 200779144.000000, 2107.125000, 8208.000000, 8228.500000, 8232.500000
2079, 200779304.000000, 2002.250000, 8215.000000, 8234.500000, 8242.500000
2080, 200779464.000000, 1884.250000, 8223.500000, 8239.500000, 8251.500000
2081, 200779624.000000, 1772.125000, 8232.500000, 8245.500000, 8262.500000
2082, 200779784.000000, 1673.750000, 8242.500000, 8247.500000, 8269.000000
2083, 200779944.000000, 1595.500000, 8252.000000, 8247.000000, 8273.000000
2084, 200780104.000000, 1538.875000, 8255.500000, 8241.500000, 8269.000000
2085, 200780264.000000, 1500.875000, 8251.000000, 8230.000000, 8258.000000
2086, 200780424.000000, 1476.125000, 8226.500000, 8216.000000, 8235.000000
2087, 200780584.000000, 1460.875000, 8190.500000, 8207.500000, 8209.500000
2088, 200780744.000000, 1450.500000, 8169.000000, 8200.000000, 8191.000000
2089, 200780904.000000, 1438.250000, 8161.500000, 8197.000000, 8183.000000
2090, 200781064.000000, 1422.250000, 8164.000000, 8196.000000, 8183.000000
2091, 200781224.000000, 1406.625000, 8167.000000, 8197.000000, 8186.000000
2092, 200781384.000000, 1383.750000, 8168.500000, 8197.000000, 8186.500000
2093, 200781544.000000, 1355.875000, 8171.000000, 8196.000000, 8187.000000
2094, 200781704.000000, 1320.875000, 8173.500000, 8195.000000, 8187.000000
2095, 200781864.000000, 1271.875000, 8172.500000, 8193.000000, 8183.500000
2096, 200782024.000000, 1223.875000, 8175.000000, 8188.500000, 8180.500000
2097, 200782184.000000, 1253.750000, 8173.000000, 8185.500000, 8174.500000
2098, 200782344.000000, 1458.875000, 8171.000000, 8184.000000, 8173.000000
2099, 200782504.000000, 1905.375000, 8173.500000, 8183.500000, 8173.500000
2100, 200782664.000000, 2452.375000, 8175.000000, 8183.000000, 8175.000000
2101, 200782824.000000, 2935.750000, 8176.000000, 8183.000000, 8174.000000
2102, 200782984.000000, 3241.500000, 8175.500000, 8183.000000, 8173.500000
2103, 200783144.000000, 3360.750000, 8179.500000, 8186.500000, 8180.500000
2104, 200783304.000000, 3328.875000, 8190.000000, 8211.000000, 8223.000000
2105, 200783464.000000, 3197.375000, 8206.000000, 8225.500000, 8250.500000
2106, 200783624.000000, 3028.250000, 8200.000000, 8194.500000, 8201.000000
2107, 200783784.000000, 2854.875000, 8170.500000, 8170.500000, 8154.500000
2108, 200783944.000000, 2681.375000, 8169.500000, 8168.500000, 8151.000000
2109, 200784104.000000, 2515.625000, 8168.000000, 8168.500000, 8151.500000
2110, 200784264.000000, 2387.500000, 8184.500000, 8175.500000, 8157.000000
2111, 200784424.000000, 2323.875000, 8339.000000, 8031.000000, 8115.000000
2112, 200784584.000000, 2316.500000, 8096.000000, 7902.000000, 7836.500000
2113, 200784744.000000, 2329.750000, 8170.500000, 8175.500000, 8152.500000
2114, 200784904.000000, 2339.750000, 8184.000000, 8215.500000, 8207.500000
2115, 200785064.000000, 2327.375000, 8188.500000, 8223.500000, 8216.500000
2116, 200785224.000000, 2282.625000, 8194.000000, 8226.500000, 8221.500000
2117, 200785384.000000, 2204.875000, 8199.500000, 8229.000000, 8226.500000
2118, 200785544.000000, 2097.125000, 8206.000000, 8233.500000, 8235.500000
2119, 200785704.000000, 1978.000000, 8213.000000, 8239.500000, 8244.500000
2120, 200785864.000000, 1859.625000, 8222.500000, 8244.500000, 8254.000000
2121, 200786024.000000, 1758.875000, 8232.000000, 8246.500000, 8260.500000
2122, 200786184.000000, 1677.625000, 8242.000000, 8244.000000, 8262.000000
2123, 200786344.000000, 1616.875000, 8251.000000, 8238.500000, 8260.500000
2124, 200786504.000000, 1576.500000, 8251.000000, 8228.500000, 8252.500000
2125, 200786664.000000, 1550.000000, 8231.000000, 8215.500000, 8232.500000
2126, 200786824.000000, 1535.250000, 8191.500000, 8205.500000, 8206.500000
2127, 200786984.000000, 1520.250000, 8166.000000, 8196.500000, 8186.500000
2128, 200787144.000000, 1505.125000, 8156.000000, 8190.000000, 8175.000000
2129, 200787304.000000, 1485.375000, 8155.000000, 8188.000000, 8173.000000
2130, 200787464.000000, 1461.500000, 8158.000000, 8188.500000, 8175.500000
2131, 200787624.000000, 1431.500000, 8161.500000, 8190.000000, 8180.000000
2132, 200787784.000000, 1397.250000, 8164.500000, 8189.500000, 8180.500000
2133, 200787944.000000, 1359.375000, 8167.000000, 8188.500000, 8179.500000
2134, 200788104.000000, 1312.375000, 8169.000000, 8187.500000, 8179.500000
2135, 200788264.000000, 1260.125000, 8170.000000, 8188.000000, 8181.000000
2136, 200788424.000000, 1236.875000, 8167.000000, 8185.000000, 8176.000000
2137, 200788584.000000, 1345.750000, 8167.000000, 8182.000000, 8173.000000
2138, 200788744.000000, 1652.375000, 8167.000000, 8182.000000, 8172.500000
2139, 200788904.000000, 2139.000000, 8166.000000, 8183.000000, 8173.000000
2140, 200789064.000000, 2635.375000, 8167.000000, 8182.000000, 8173.000000
2141, 200789224.000000, 3009.375000, 8167.500000, 8181.500000, 8171.500000
2142, 200789384.000000, 3201.250000, 8175.000000, 8196.000000, 8197.000000
2143, 200789544.000000, 3231.250000, 8183.000000, 8214.000000, 8228.000000
2144, 200789704.000000, 3145.250000, 8198.000000, 8214.000000, 8227.000000
2145, 200789864.000000, 2998.625000, 8180.500000, 8186.500000, 8182.500000
2146, 200790024.000000, 2837.625000, 8165.500000, 8172.500000, 8159.000000
2147, 200790184.000000, 2670.125000, 8165.500000, 8171.000000, 8154.500000
2148, 200790344.000000, 2503.125000, 8165.000000, 8172.000000, 8155.000000
2149, 200790504.000000, 2358.750000, 8229.500000, 8224.000000, 8240.000000
2150, 200790664.000000, 2270.750000, 8363.500000, 7942.000000, 8031.500000
2151, 200790824.000000, 2246.375000, 8100.000000, 8030.500000, 7963.500000
2152, 200790984.000000, 2259.125000, 8178.500000, 8199.000000, 8187.500000
2153, 200791144.000000, 2278.750000, 8183.000000, 8216.500000, 8209.500000
2154, 200791304.000000, 2281.000000, 8187.500000, 8222.000000, 8216.500000
2155, 200791464.000000, 2250.375000, 8195.500000, 8226.000000, 8225.500000
2156, 200791624.000000, 2182.375000, 8202.500000, 8230.000000, 8232.000000
2157, 200791784.000000, 2083.125000, 8210.500000, 8233.000000, 8237.500000
2158, 200791944.000000, 1968.125000, 8220.500000, 8238.500000, 8247.500000
2159, 200792104.000000, 1851.250000, 8231.000000, 8242.000000, 8256.000000
2160, 200792264.000000, 1747.250000, 8243.000000, 8243.500000, 8263.500000
2161, 200792424.000000, 1661.250000, 8253.500000, 8238.500000, 8261.500000
2162, 200792584.000000, 1596.375000, 8260.000000, 8227.500000, 8253.500000
2163, 200792744.000000, 1550.625000, 8253.000000, 8214.500000, 8238.000000
2164, 200792904.000000, 1518.750000, 8218.500000, 8207.000000, 8221.000000
2165, 200793064.000000, 1498.250000, 8181.500000, 8202.500000, 8203.500000
2166, 200793224.000000, 1486.500000, 8163.500000, 8196.500000, 8189.000000
2167, 200793384.000000, 1475.875000, 8155.000000, 8193.000000, 8180.000000
2168, 200793544.000000, 1461.125000, 8157.000000, 8193.500000, 8181.500000
2169, 200793704.000000, 1443.000000, 8161.000000, 8196.000000, 8187.000000
2170, 200793864.000000, 1419.500000, 8167.000000, 8198.000000, 8192.500000
2171, 200794024.000000, 1388.875000, 8171.500000, 8197.000000, 8192.500000
2172, 200794184.000000, 1348.750000, 8172.000000, 8196.000000, 8190.000000
2173, 200794344.000000, 1300.875000, 8174.000000, 8196.000000, 8191.000000
2174, 200794504.000000, 1248.750000, 8173.000000, 8194.000000, 8187.000000
2175, 200794664.000000, 1228.625000, 8171.000000, 8191.000000, 8184.000000
2176, 200794824.000000, 1319.500000, 8174.000000, 8189.000000, 8182.000000
2177, 200794984.000000, 1607.125000, 8172.500000, 8186.000000, 8175.500000
2178, 200795144.000000, 2038.250000, 8173.000000, 8185.000000, 8174.000000
2179, 200795304.000000, 2486.375000, 8174.500000, 8187.000000, 8177.000000
2180, 200795464.000000, 2820.250000, 8175.000000, 8187.000000, 8177.000000
2181, 200795624.000000, 2990.375000, 8185.500000, 8210.000000, 8216.500000
2182, 200795784.000000, 3008.250000, 8196.000000, 8230.000000, 8249.500000
2183, 200795944.000000, 2920.375000, 8204.000000, 8214.000000, 8225.000000
2184, 200796104.000000, 2775.875000, 8183.500000, 8189.500000, 8183.500000
2185, 200796264.000000, 2611.750000, 8171.500000, 8177.500000, 8163.000000
2186, 200796424.000000, 2444.375000, 8171.500000, 8175.500000, 8161.000000
2187, 200796584.000000, 2276.000000, 8173.000000, 8172.500000, 8155.000000
2188, 200796744.000000, 2141.250000, 8267.000000, 8198.000000, 8235.000000
2189, 200796904.000000, 2070.625000, 8327.000000, 7852.000000, 7913.000000
2190, 200797064.000000, 2063.875000, 8124.000000, 8088.000000, 8027.000000
2191, 200797224.000000, 2086.875000, 8186.000000, 8214.500000, 8211.500000
2192, 200797384.000000, 2113.750000, 8188.000000, 8225.500000, 8222.000000
2193, 200797544.000000, 2117.500000, 8194.000000, 8230.000000, 8228.500000
2194, 200797704.000000, 2088.000000, 8199.000000, 8232.500000, 8232.500000
2195, 200797864.000000, 2017.375000, 8208.000000, 8236.000000, 8241.500000
2196, 200798024.000000, 1923.750000, 8214.000000, 8239.000000, 8247.000000
2197, 200798184.000000, 1818.750000, 8222.000000, 8242.000000, 8253.000000
2198, 200798344.000000, 1717.375000, 8233.000000, 8248.000000, 8264.500000
2199, 200798504.000000, 1631.625000, 8243.000000, 8250.000000, 8272.000000
2200, 200798664.000000, 1562.250000, 8252.500000, 8244.500000, 8271.000000
2201, 200798824.000000, 1513.375000, 8256.000000, 8236.000000, 8264.000000
2202, 200798984.000000, 1478.500000, 8245.000000, 8221.500000, 8246.000000
2203, 200799144.000000, 1452.375000, 8207.000000, 8212.500000, 8223.500000
2204, 200799304.000000, 1435.375000, 8176.000000, 8204.500000, 8201.000000
2205, 200799464.000000, 1422.250000, 8162.000000, 8196.000000, 8185.500000
2206, 200799624.000000, 1410.500000, 8157.500000, 8193.500000, 8180.000000
2207, 200799784.000000, 1397.625000, 8158.000000, 8193.000000, 8178.000000
2208, 200799944.000000, 1379.000000, 8162.000000, 8194.000000, 8183.000000
2209, 200800104.000000, 1357.375000, 8166.500000, 8195.500000, 8186.000000
2210, 200800264.000000, 1331.375000, 8170.500000, 8196.000000, 8188.000000
2211, 200800424.000000, 1294.000000, 8172.000000, 8195.000000, 8187.000000
2212, 200800584.000000, 1250.625000, 8171.000000, 8191.000000, 8182.000000
2213, 200800744.000000, 1206.875000, 8171.500000, 8189.500000, 8181.000000
2214, 200800904.000000, 1224.625000, 8170.000000, 8188.000000, 8177.000000
2215, 200801064.000000, 1400.250000, 8170.000000, 8185.000000, 8174.000000
2216, 200801224.000000, 1784.000000, 8170.500000, 8185.000000, 8175.000000
2217, 200801384.000000, 2278.000000, 8169.000000, 8185.000000, 8173.000000
2218, 200801544.000000, 2727.375000, 8171.500000, 8184.500000, 8174.000000
2219, 200801704.000000, 3018.625000, 8173.000000, 8183.000000, 8173.500000
2220, 200801864.000000, 3138.625000, 8174.500000, 8182.500000, 8174.000000
2221, 200802024.000000, 3113.875000, 8186.000000, 8202.500000, 8210.500000
2222, 200802184.000000, 3002.875000, 8197.000000, 8221.000000, 8241.500000
2223, 200802344.000000, 2855.875000, 8205.000000, 8205.500000, 8217.000000
2224, 200802504.000000, 2704.500000, 8183.500000, 8181.000000, 8175.000000
2225, 200802664.000000, 2550.625000, 8172.500000, 8171.500000, 8156.000000
2226, 200802824.000000, 2398.125000, 8170.500000, 8170.000000, 8152.000000
2227, 200802984.000000, 2273.125000, 8172.000000, 8170.000000, 8149.000000
2228, 200803144.000000, 2204.500000, 8258.000000, 8192.500000, 8221.500000
2229, 200803304.000000, 2186.375000, 8336.500000, 7839.000000, 7901.500000
2230, 200803464.000000, 2191.375000, 8121.500000, 8083.000000, 8016.500000
2231, 200803624.000000, 2192.125000, 8184.000000, 8212.000000, 8206.000000
2232, 200803784.000000, 2175.250000, 8187.000000, 8224.000000, 8218.000000
2233, 200803944.000000, 2125.750000, 8191.500000, 8228.500000, 8223.500000
2234, 200804104.000000, 2046.250000, 8197.000000, 8231.000000, 8229.500000
2235, 200804264.000000, 1943.500000, 8206.000000, 8233.000000, 8237.000000
2236, 200804424.000000, 1830.500000, 8212.000000, 8237.000000, 8243.000000
2237, 200804584.000000, 1724.375000, 8221.000000, 8243.500000, 8253.500000
2238, 200804744.000000, 1631.875000, 8231.000000, 8247.500000, 8262.500000
2239, 200804904.000000, 1560.000000, 8242.000000, 8250.000000, 8272.000000
2240, 200805064.000000, 1507.875000, 8252.000000, 8247.500000, 8274.500000
2241, 200805224.000000, 1469.875000, 8255.000000, 8238.500000, 8267.500000
2242, 200805384.000000, 1446.125000, 8246.000000, 8226.500000, 8252.500000
2243, 200805544.000000, 1429.875000, 8212.000000, 8214.000000, 8227.500000
2244, 200805704.000000, 1415.375000, 8177.000000, 8205.500000, 8203.000000
2245, 200805864.000000, 1402.250000, 8159.000000, 8197.500000, 8186.500000
2246, 200806024.000000, 1386.000000, 8154.500000, 8192.500000, 8177.000000
2247, 200806184.000000, 1363.750000, 8155.000000, 8193.000000, 8178.000000
2248, 200806344.000000, 1338.625000, 8158.500000, 8194.500000, 8180.500000
2249, 200806504.000000, 1309.500000, 8162.500000, 8196.000000, 8185.500000
2250, 200806664.000000, 1278.125000, 8166.500000, 8195.500000, 8186.000000
2251, 200806824.000000, 1239.000000, 8168.500000, 8191.500000, 8183.000000
2252, 200806984.000000, 1193.375000, 8170.000000, 8188.500000, 8179.500000
2253, 200807144.000000, 1147.250000, 8169.000000, 8187.000000, 8177.000000
2254, 200807304.000000, 1163.625000, 8169.000000, 8184.500000, 8174.500000
2255, 200807464.000000, 1339.250000, 8169.500000, 8183.000000, 8171.500000
2256, 200807624.000000, 1727.500000, 8170.500000, 8182.500000, 8170.500000
2257, 200807784.000000, 2231.500000, 8168.500000, 8182.000000, 8169.500000
2258, 200807944.000000, 2692.875000, 8170.000000, 8183.000000, 8172.000000
2259, 200808104.000000, 2990.500000, 8172.500000, 8183.000000, 8173.500000
2260, 200808264.000000, 3122.375000, 8174.000000, 8182.000000, 8173.000000
2261, 200808424.000000, 3109.375000, 8180.000000, 8192.000000, 8190.500000
2262, 200808584.000000, 3003.125000, 8186.500000, 8211.500000, 8222.000000
2263, 200808744.000000, 2830.125000, 8207.000000, 8219.500000, 8240.500000
2264, 200808904.000000, 2623.375000, 8193.000000, 8190.000000, 8191.500000
2265, 200809064.000000, 2452.750000, 8170.000000, 8173.500000, 8158.500000
2266, 200809224.000000, 2306.250000, 8169.000000, 8172.000000, 8154.000000
2267, 200809384.000000, 2204.500000, 8168.500000, 8172.000000, 8153.500000
2268, 200809544.000000, 2170.875000, 8199.000000, 8198.500000, 8189.500000
2269, 200809704.000000, 2170.625000, 8355.500000, 7946.500000, 8035.500000
2270, 200809864.000000, 2158.750000, 8082.000000, 7955.500000, 7878.500000
2271, 200810024.000000, 2122.500000, 8180.500000, 8196.000000, 8184.500000
2272, 200810184.000000, 2055.625000, 8188.000000, 8221.500000, 8216.500000
2273, 200810344.000000, 1959.750000, 8191.000000, 8228.500000, 8225.500000
2274, 200810504.000000, 1851.250000, 8198.000000, 8233.000000, 8234.000000
2275, 200810664.000000, 1737.500000, 8203.000000, 8235.000000, 8239.000000
2276, 200810824.000000, 1636.625000, 8211.500000, 8238.500000, 8246.500000
2277, 200810984.000000, 1554.250000, 8219.000000, 8241.500000, 8252.500000
2278, 200811144.000000, 1491.375000, 8227.500000, 8247.000000, 8263.500000
2279, 200811304.000000, 1446.625000, 8238.500000, 8250.500000, 8273.500000
2280, 200811464.000000, 1417.875000, 8250.000000, 8246.500000, 8274.500000
2281, 200811624.000000, 1396.625000, 8256.000000, 8239.500000, 8269.500000
2282, 200811784.000000, 1380.250000, 8252.500000, 8229.000000, 8259.500000
2283, 200811944.000000, 1365.250000, 8228.000000, 8215.500000, 8237.500000
2284, 200812104.000000, 1346.875000, 8190.000000, 8206.000000, 8213.500000
2285, 200812264.000000, 1323.750000, 8168.000000, 8196.000000, 8189.500000
2286, 200812424.000000, 1296.500000, 8158.000000, 8191.000000, 8178.000000
2287, 200812584.000000, 1266.500000, 8158.000000, 8191.500000, 8178.000000
2288, 200812744.000000, 1234.375000, 8161.000000, 8193.000000, 8180.000000
2289, 200812904.000000, 1200.625000, 8166.000000, 8193.500000, 8183.500000
2290, 200813064.000000, 1161.875000, 8169.500000, 8193.500000, 8184.000000
2291, 200813224.000000, 1117.125000, 8170.000000, 8192.500000, 8181.500000
2292, 200813384.000000, 1074.125000, 8172.000000, 8192.000000, 8182.000000
2293, 200813544.000000, 1088.250000, 8173.000000, 8190.000000, 8181.000000
2294, 200813704.000000, 1262.875000, 8171.500000, 8187.000000, 8178.500000
2295, 200813864.000000, 1635.125000, 8171.000000, 8185.500000, 8175.000000
2296, 200814024.000000, 2122.000000, 8171.500000, 8184.000000, 8173.500000
2297, 200814184.000000, 2557.000000, 8171.500000, 8186.000000, 8175.500000
2298, 200814344.000000, 2851.500000, 8172.000000, 8186.000000, 8176.000000
2299, 200814504.000000, 2969.375000, 8172.500000, 8186.000000, 8176.500000
2300, 200814664.000000, 2952.750000, 8173.000000, 8184.500000, 8173.500000
2301, 200814824.000000, 2845.875000, 8182.500000, 8202.500000, 8207.000000
2302, 200814984.000000, 2701.750000, 8190.500000, 8221.500000, 8238.500000
2303, 200815144.000000, 2556.125000, 8202.500000, 8212.000000, 8223.000000
2304, 200815304.000000, 2405.375000, 8179.500000, 8184.500000, 8176.500000
2305, 200815464.000000, 2254.125000, 8167.500000, 8173.500000, 8156.500000
2306, 200815624.000000, 2123.375000, 8167.000000, 8172.000000, 8153.000000
2307, 200815784.000000, 2049.875000, 8169.000000, 8173.000000, 8154.000000
2308, 200815944.000000, 2023.875000, 8256.500000, 8222.000000, 8252.000000
2309, 200816104.000000, 2024.625000, 8353.500000, 7902.500000, 7979.500000
2310, 200816264.000000, 2026.625000, 8115.500000, 8063.500000, 7999.000000
2311, 200816424.000000, 2010.125000, 8185.000000, 8205.500000, 8198.000000
2312, 200816584.000000, 1965.875000, 8186.000000, 8219.500000, 8212.500000
2313, 200816744.000000, 1891.125000, 8190.000000, 8225.500000, 8221.500000
2314, 200816904.000000, 1792.500000, 8198.000000, 8226.500000, 8227.500000
2315, 200817064.000000, 1680.875000, 8207.000000, 8229.000000, 8234.000000
2316, 200817224.000000, 1573.000000, 8213.000000, 8232.500000, 8239.500000
2317, 200817384.000000, 1479.750000, 8223.000000, 8237.000000, 8248.500000
2318, 200817544.000000, 1406.125000, 8235.000000, 8241.000000, 8259.000000
2319, 200817704.000000, 1353.750000, 8246.000000, 8242.000000, 8264.000000
2320, 200817864.000000, 1316.625000, 8258.500000, 8237.500000, 8264.000000
2321, 200818024.000000, 1294.625000, 8263.000000, 8229.000000, 8257.500000
2322, 200818184.000000, 1279.375000, 8254.000000, 8217.500000, 8244.000000
2323, 200818344.000000, 1266.250000, 8215.500000, 8211.500000, 8225.500000
2324, 200818504.000000, 1251.250000, 8180.000000, 8203.500000, 8203.500000
2325, 200818664.000000, 1235.625000, 8161.000000, 8196.500000, 8187.500000
2326, 200818824.000000, 1212.750000, 8156.000000, 8193.000000, 8182.000000
2327, 200818984.000000, 1185.500000, 8156.000000, 8192.500000, 8181.500000
2328, 200819144.000000, 1152.125000, 8162.000000, 8194.000000, 8185.500000
2329, 200819304.000000, 1111.750000, 8168.500000, 8192.500000, 8186.500000
2330, 200819464.000000, 1062.250000, 8172.000000, 8189.500000, 8184.500000
2331, 200819624.000000, 1005.625000, 8176.000000, 8186.000000, 8181.000000
2332, 200819784.000000, 955.500000, 8177.500000, 8183.000000, 8178.500000
2333, 200819944.000000, 954.250000, 8175.000000, 8180.000000, 8174.000000
2334, 200820104.000000, 1103.125000, 8174.500000, 8177.500000, 8171.000000
2335, 200820264.000000, 1440.625000, 8171.500000, 8175.000000, 8166.500000
2336, 200820424.000000, 1904.375000, 8170.000000, 8174.000000, 8163.000000
2337, 200820584.000000, 2333.000000, 8170.000000, 8175.000000, 8164.000000
2338, 200820744.000000, 2634.000000, 8171.000000, 8175.500000, 8166.500000
2339, 200820904.000000, 2761.250000, 8172.000000, 8175.000000, 8165.000000
2340, 200821064.000000, 2750.875000, 8180.500000, 8193.500000, 8197.000000
2341, 200821224.000000, 2644.875000, 8188.500000, 8211.000000, 8227.500000
2342, 200821384.000000, 2498.125000, 8198.000000, 8200.500000, 8211.500000
2343, 200821544.000000, 2339.375000, 8178.500000, 8174.500000, 8170.500000
2344, 200821704.000000, 2179.000000, 8165.000000, 8161.500000, 8146.500000
2345, 200821864.000000, 2025.750000, 8165.000000, 8159.000000, 8144.000000
2346, 200822024.000000, 1905.125000, 8166.000000, 8158.000000, 8140.000000
2347, 200822184.000000, 1847.875000, 8249.000000, 8197.500000, 8226.500000
2348, 200822344.000000, 1841.875000, 8337.000000, 7853.000000, 7922.500000
2349, 200822504.000000, 1864.875000, 8112.500000, 8054.500000, 7989.000000
2350, 200822664.000000, 1885.625000, 8182.000000, 8197.000000, 8190.000000
2351, 200822824.000000, 1884.625000, 8185.000000, 8209.500000, 8204.500000
2352, 200822984.000000, 1847.875000, 8190.000000, 8216.500000, 8214.500000
2353, 200823144.000000, 1773.125000, 8198.500000, 8221.000000, 8222.500000
2354, 200823304.000000, 1674.625000, 8205.500000, 8224.000000, 8229.000000
2355, 200823464.000000, 1568.750000, 8215.500000, 8228.000000, 8239.500000
2356, 200823624.000000, 1468.500000, 8222.500000, 8233.000000, 8246.500000
2357, 200823784.000000, 1384.625000, 8234.000000, 8239.500000, 8258.500000
2358, 200823944.000000, 1317.250000, 8244.500000, 8241.000000, 8265.000000
2359, 200824104.000000, 1269.000000, 8256.000000, 8236.500000, 8266.000000
2360, 200824264.000000, 1236.625000, 8261.000000, 8227.500000, 8258.500000
2361, 200824424.000000, 1215.250000, 8252.500000, 8213.500000, 8242.500000
2362, 200824584.000000, 1201.250000, 8215.500000, 8205.000000, 8221.000000
2363, 200824744.000000, 1190.125000, 8179.000000, 8197.500000, 8199.000000
2364, 200824904.000000, 1180.500000, 8162.000000, 8190.500000, 8184.000000
2365, 200825064.000000, 1169.875000, 8155.000000, 8187.000000, 8175.500000
2366, 200825224.000000, 1154.125000, 8154.000000, 8187.500000, 8175.500000
2367, 200825384.000000, 1134.375000, 8157.500000, 8190.000000, 8180.500000
2368, 200825544.000000, 1107.375000, 8161.000000, 8191.000000, 8183.500000
2369, 200825704.000000, 1070.375000, 8165.500000, 8191.000000, 8185.500000
2370, 200825864.000000, 1022.375000, 8165.500000, 8189.000000, 8181.500000
2371, 200826024.000000, 973.000000, 8167.500000, 8186.000000, 8179.000000
2372, 200826184.000000, 979.375000, 8168.500000, 8184.000000, 8177.500000
2373, 200826344.000000, 1130.625000, 8168.000000, 8181.500000, 8174.500000
2374, 200826504.000000, 1490.875000, 8168.500000, 8178.000000, 8171.500000
2375, 200826664.000000, 1968.250000, 8167.500000, 8175.000000, 8166.000000
2376, 200826824.000000, 2415.000000, 8166.000000, 8174.500000, 8164.500000
2377, 200826984.000000, 2710.625000, 8163.000000, 8173.000000, 8158.000000
2378, 200827144.000000, 2848.375000, 8160.000000, 8169.500000, 8149.500000
2379, 200827304.000000, 2833.000000, 8162.000000, 8180.000000, 8164.500000
2380, 200827464.000000, 2728.875000, 8168.500000, 8198.000000, 8193.500000
2381, 200827624.000000, 2579.000000, 8189.000000, 8207.500000, 8212.500000
2382, 200827784.000000, 2416.875000, 8173.500000, 8178.000000, 8165.000000
2383, 200827944.000000, 2251.125000, 8153.000000, 8161.000000, 8134.000000
2384, 200828104.000000, 2087.500000, 8153.000000, 8158.000000, 8131.000000
2385, 200828264.000000, 1957.750000, 8155.500000, 8157.000000, 8131.000000
2386, 200828424.000000, 1886.750000, 8191.000000, 8192.500000, 8180.000000
2387, 200828584.000000, 1877.875000, 8331.500000, 7904.000000, 7977.000000
2388, 200828744.000000, 1894.000000, 8070.500000, 7959.000000, 7870.000000
2389, 200828904.000000, 1911.125000, 8172.500000, 8192.500000, 8177.500000
2390, 200829064.000000, 1911.000000, 8177.500000, 8214.000000, 8204.500000
2391, 200829224.000000, 1877.500000, 8184.000000, 8220.500000, 8214.500000
2392, 200829384.000000, 1811.625000, 8189.000000, 8225.500000, 8222.500000
2393, 200829544.000000, 1715.750000, 8196.000000, 8228.500000, 8231.000000
2394, 200829704.000000, 1604.250000, 8202.500000, 8231.500000, 8237.500000
2395, 200829864.000000, 1492.125000, 8211.000000, 8236.000000, 8246.000000
2396, 200830024.000000, 1393.750000, 8218.500000, 8241.500000, 8256.000000
2397, 200830184.000000, 1317.750000, 8228.000000, 8243.500000, 8262.500000
2398, 200830344.000000, 1264.000000, 8239.500000, 8242.500000, 8267.500000
2399, 200830504.000000, 1228.500000, 8248.000000, 8235.500000, 8265.500000
2400, 200830664.000000, 1208.375000, 8244.500000, 8222.500000, 8249.500000
2401, 200830824.000000, 1196.500000, 8218.500000, 8211.500000, 8228.000000
2402, 200830984.000000, 1185.250000, 8181.500000, 8204.500000, 8204.500000
2403, 200831144.000000, 1169.625000, 8159.500000, 8198.500000, 8188.000000
2404, 200831304.000000, 1152.250000, 8153.000000, 8193.000000, 8178.000000
2405, 200831464.000000, 1137.250000, 8153.500000, 8192.000000, 8176.500000
2406, 200831624.000000, 1122.125000, 8156.000000, 8193.500000, 8178.500000
2407, 200831784.000000, 1100.125000, 8159.500000, 8195.000000, 8182.500000
2408, 200831944.000000, 1069.250000, 8165.000000, 8196.000000, 8187.000000
2409, 200832104.000000, 1028.125000, 8167.000000, 8193.000000, 8183.500000
2410, 200832264.000000, 978.000000, 8169.000000, 8189.500000, 8179.500000
2411, 200832424.000000, 959.750000, 8169.000000, 8187.000000, 8177.000000
2412, 200832584.000000, 1077.125000, 8168.000000, 8185.000000, 8174.000000
2413, 200832744.000000, 1412.875000, 8169.000000, 8184.500000, 8174.500000
2414, 200832904.000000, 1906.875000, 8168.500000, 8183.500000, 8172.000000
2415, 200833064.000000, 2388.250000, 8170.500000, 8185.000000, 8173.000000
2416, 200833224.000000, 2733.250000, 8171.500000, 8185.000000, 8174.500000
2417, 200833384.000000, 2890.625000, 8183.000000, 8208.500000, 8216.500000
2418, 200833544.000000, 2899.000000, 8194.000000, 8225.500000, 8246.000000
2419, 200833704.000000, 2790.625000, 8205.500000, 8218.000000, 8235.000000
2420, 200833864.000000, 2634.875000, 8182.500000, 8186.500000, 8181.500000
2421, 200834024.000000, 2473.000000, 8168.000000, 8174.000000, 8159.000000
2422, 200834184.000000, 2314.125000, 8167.500000, 8174.000000, 8158.000000
2423, 200834344.000000, 2159.500000, 8170.500000, 8176.500000, 8159.500000
2424, 200834504.000000, 2020.375000, 8245.000000, 8205.000000, 8229.500000
2425, 200834664.000000, 1933.625000, 8337.500000, 7834.000000, 7901.000000
2426, 200834824.000000, 1903.000000, 8112.000000, 8070.000000, 7999.000000
2427, 200834984.000000, 1909.125000, 8185.000000, 8218.000000, 8215.000000
2428, 200835144.000000, 1921.375000, 8187.000000, 8230.000000, 8228.000000
2429, 200835304.000000, 1921.500000, 8192.000000, 8231.000000, 8230.000000
2430, 200835464.000000, 1892.750000, 8199.500000, 8232.000000, 8234.000000
2431, 200835624.000000, 1834.250000, 8206.500000, 8235.500000, 8240.000000
2432, 200835784.000000, 1744.875000, 8216.000000, 8237.000000, 8248.000000
2433, 200835944.000000, 1638.500000, 8226.500000, 8239.000000, 8256.000000
2434, 200836104.000000, 1528.625000, 8233.500000, 8240.500000, 8260.000000
2435, 200836264.000000, 1427.250000, 8244.000000, 8243.000000, 8267.000000
2436, 200836424.000000, 1342.250000, 8251.500000, 8240.000000, 8268.500000
2437, 200836584.000000, 1272.375000, 8256.500000, 8233.000000, 8266.000000
2438, 200836744.000000, 1222.250000, 8249.000000, 8219.500000, 8251.500000
2439, 200836904.000000, 1191.125000, 8214.500000, 8208.000000, 8227.000000
2440, 200837064.000000, 1169.250000, 8178.500000, 8199.500000, 8201.500000
2441, 200837224.000000, 1154.250000, 8164.500000, 8193.000000, 8187.000000
2442, 200837384.000000, 1138.125000, 8160.500000, 8190.000000, 8180.500000
2443, 200837544.000000, 1120.625000, 8162.000000, 8190.000000, 8181.000000
2444, 200837704.000000, 1098.750000, 8165.500000, 8191.000000, 8183.500000
2445, 200837864.000000, 1072.500000, 8168.000000, 8191.000000, 8184.000000
2446, 200838024.000000, 1035.750000, 8172.000000, 8191.000000, 8186.000000
2447, 200838184.000000, 988.500000, 8174.000000, 8189.500000, 8184.500000
2448, 200838344.000000, 933.250000, 8176.500000, 8188.000000, 8184.000000
2449, 200838504.000000, 902.000000, 8175.000000, 8187.000000, 8179.000000
2450, 200838664.000000, 974.000000, 8175.000000, 8187.000000, 8179.000000
2451, 200838824.000000, 1240.000000, 8175.000000, 8185.000000, 8177.000000
2452, 200838984.000000, 1644.875000, 8175.000000, 8187.000000, 8179.000000
2453, 200839144.000000, 2061.000000, 8183.000000, 8199.500000, 8203.500000
2454, 200839304.000000, 2359.375000, 8191.000000, 8216.000000, 8232.000000
2455, 200839464.000000, 2508.375000, 8208.500000, 8225.500000, 8249.500000
2456, 200839624.000000, 2521.000000, 8197.000000, 8195.000000, 8199.500000
2457, 200839784.000000, 2432.625000, 8171.000000, 8175.500000, 8162.500000
2458, 200839944.000000, 2296.500000, 8170.000000, 8171.500000, 8156.500000
2459, 200840104.000000, 2145.500000, 8169.500000, 8170.000000, 8153.500000
2460, 200840264.000000, 1991.250000, 8193.500000, 8192.500000, 8181.000000
2461, 200840424.000000, 1838.500000, 8345.000000, 7975.000000, 8062.000000
2462, 200840584.000000, 1708.125000, 8075.000000, 7941.500000, 7861.000000
2463, 200840744.000000, 1633.750000, 8179.500000, 8191.500000, 8180.500000
2464, 200840904.000000, 1615.375000, 8185.500000, 8215.500000, 8211.500000
2465, 200841064.000000, 1629.000000, 8190.500000, 8221.500000, 8218.000000
2466, 200841224.000000, 1647.625000, 8197.500000, 8224.500000, 8225.000000
2467, 200841384.000000, 1651.750000, 8205.500000, 8228.000000, 8233.000000
2468, 200841544.000000, 1627.750000, 8215.000000, 8229.000000, 8239.500000
2469, 200841704.000000, 1573.125000, 8221.500000, 8232.000000, 8245.500000
2470, 200841864.000000, 1492.375000, 8230.000000, 8234.500000, 8252.500000
2471, 200842024.000000, 1395.000000, 8238.000000, 8237.500000, 8259.000000
2472, 200842184.000000, 1296.375000, 8248.000000, 8235.500000, 8261.500000
2473, 200842344.000000, 1205.750000, 8256.000000, 8228.500000, 8260.000000
2474, 200842504.000000, 1128.625000, 8252.000000, 8217.500000, 8247.500000
2475, 200842664.000000, 1068.875000, 8224.000000, 8206.000000, 8225.500000
2476, 200842824.000000, 1026.375000, 8186.000000, 8200.000000, 8204.000000
2477, 200842984.000000, 996.125000, 8164.500000, 8194.500000, 8187.500000
2478, 200843144.000000, 972.000000, 8157.000000, 8190.500000, 8178.500000
2479, 200843304.000000, 952.000000, 8156.000000, 8188.500000, 8175.500000
2480, 200843464.000000, 934.125000, 8158.000000, 8189.000000, 8176.000000
2481, 200843624.000000, 915.000000, 8161.000000, 8189.500000, 8178.500000
2482, 200843784.000000, 893.625000, 8164.000000, 8189.500000, 8180.500000
2483, 200843944.000000, 862.875000, 8166.500000, 8188.500000, 8180.000000
2484, 200844104.000000, 821.625000, 8167.000000, 8186.000000, 8177.000000
2485, 200844264.000000, 778.250000, 8163.500000, 8184.500000, 8173.000000
2486, 200844424.000000, 778.875000, 8164.500000, 8184.000000, 8173.000000
2487, 200844584.000000, 897.375000, 8162.500000, 8182.000000, 8171.500000
2488, 200844744.000000, 1169.125000, 8163.500000, 8182.000000, 8170.500000
2489, 200844904.000000, 1519.500000, 8163.500000, 8182.000000, 8170.500000
2490, 200845064.000000, 1829.625000, 8172.500000, 8197.500000, 8198.500000
2491, 200845224.000000, 2020.000000, 8179.000000, 8214.500000, 8226.000000
2492, 200845384.000000, 2091.125000, 8197.500000, 8220.500000, 8238.000000
2493, 200845544.000000, 2065.000000, 8181.000000, 8189.000000, 8186.000000
2494, 200845704.000000, 1976.625000, 8160.000000, 8170.500000, 8152.500000
2495, 200845864.000000, 1862.375000, 8158.000000, 8167.000000, 8146.000000
2496, 200846024.000000, 1737.625000, 8159.000000, 8169.000000, 8150.000000
2497, 200846184.000000, 1609.500000, 8208.000000, 8211.500000, 8217.000000
2498, 200846344.000000, 1490.375000, 8351.000000, 7932.000000, 8021.000000
2499, 200846504.000000, 1414.250000, 8082.000000, 7995.000000, 7918.000000
2500, 200846664.000000, 1391.500000, 8173.000000, 8195.500000, 8185.000000
2501, 200846824.000000, 1411.500000, 8177.500000, 8216.000000, 8210.500000
2502, 200846984.000000, 1443.500000, 8183.000000, 8223.000000, 8220.000000
2503, 200847144.000000, 1467.125000, 8189.000000, 8228.000000, 8228.000000
2504, 200847304.000000, 1468.000000, 8195.500000, 8232.000000, 8234.500000
2505, 200847464.000000, 1435.750000, 8203.500000, 8236.500000, 8243.000000
2506, 200847624.000000, 1379.500000, 8213.500000, 8239.500000, 8251.000000
2507, 200847784.000000, 1306.250000, 8222.500000, 8242.000000, 8257.500000
2508, 200847944.000000, 1227.125000, 8233.500000, 8243.000000, 8264.500000
2509, 200848104.000000, 1149.250000, 8240.500000, 8238.000000, 8260.500000
2510, 200848264.000000, 1083.000000, 8247.000000, 8231.500000, 8257.000000
2511, 200848424.000000, 1029.750000, 8242.000000, 8220.500000, 8245.000000
2512, 200848584.000000, 991.375000, 8212.000000, 8213.500000, 8228.000000
2513, 200848744.000000, 961.750000, 8178.000000, 8208.500000, 8210.000000
2514, 200848904.000000, 942.250000, 8159.500000, 8202.500000, 8192.500000
2515, 200849064.000000, 928.875000, 8155.000000, 8200.000000, 8187.000000
2516, 200849224.000000, 919.500000, 8157.000000, 8200.000000, 8188.000000
2517, 200849384.000000, 911.125000, 8161.000000, 8203.000000, 8194.000000
2518, 200849544.000000, 901.375000, 8164.500000, 8204.000000, 8195.000000
2519, 200849704.000000, 886.000000, 8167.500000, 8203.500000, 8194.500000
2520, 200849864.000000, 860.375000, 8169.000000, 8204.000000, 8196.000000
2521, 200850024.000000, 826.250000, 8171.000000, 8202.000000, 8195.000000
2522, 200850184.000000, 796.625000, 8170.000000, 8199.500000, 8190.500000
2523, 200850344.000000, 810.875000, 8169.000000, 8196.000000, 8187.000000
2524, 200850504.000000, 936.250000, 8168.500000, 8193.500000, 8183.000000
2525, 200850664.000000, 1198.250000, 8171.500000, 8198.500000, 8192.000000
2526, 200850824.000000, 1517.000000, 8180.000000, 8217.500000, 8224.500000
2527, 200850984.000000, 1780.750000, 8196.500000, 8234.500000, 8254.500000
2528, 200851144.000000, 1935.875000, 8190.000000, 8204.000000, 8206.500000
2529, 200851304.000000, 1975.375000, 8165.000000, 8177.500000, 8160.000000
2530, 200851464.000000, 1940.250000, 8164.500000, 8173.500000, 8155.500000
2531, 200851624.000000, 1855.250000, 8166.000000, 8171.000000, 8153.000000
2532, 200851784.000000, 1750.500000, 8182.500000, 8179.000000, 8162.000000
2533, 200851944.000000, 1639.875000, 8341.500000, 8141.000000, 8226.000000
2534, 200852104.000000, 1531.875000, 8104.000000, 7930.500000, 7887.000000
2535, 200852264.000000, 1441.500000, 8157.500000, 8150.000000, 8115.500000
2536, 200852424.000000, 1393.125000, 8184.000000, 8206.500000, 8198.500000
2537, 200852584.000000, 1395.625000, 8187.000000, 8215.000000, 8208.000000
2538, 200852744.000000, 1432.250000, 8192.000000, 8219.000000, 8214.000000
2539, 200852904.000000, 1478.250000, 8196.000000, 8223.000000, 8219.000000
2540, 200853064.000000, 1512.000000, 8205.000000, 8226.500000, 8226.500000
2541, 200853224.000000, 1522.375000, 8214.000000, 8233.000000, 8237.500000
2542, 200853384.000000, 1504.375000, 8222.000000, 8236.000000, 8245.000000
2543, 200853544.000000, 1466.125000, 8234.000000, 8237.500000, 8251.500000
2544, 200853704.000000, 1410.875000, 8244.000000, 8234.500000, 8252.000000
2545, 200853864.000000, 1350.000000, 8251.500000, 8224.500000, 8245.000000
2546, 200854024.000000, 1291.250000, 8250.500000, 8211.500000, 8232.500000
2547, 200854184.000000, 1239.750000, 8226.000000, 8202.000000, 8216.500000
2548, 200854344.000000, 1200.375000, 8187.000000, 8200.500000, 8202.000000
2549, 200854504.000000, 1173.375000, 8163.500000, 8196.500000, 8187.000000
2550, 200854664.000000, 1154.250000, 8155.500000, 8194.000000, 8180.000000
2551, 200854824.000000, 1143.125000, 8157.000000, 8193.000000, 8179.000000
2552, 200854984.000000, 1136.750000, 8162.000000, 8194.500000, 8183.500000
2553, 200855144.000000, 1131.125000, 8168.500000, 8194.000000, 8186.500000
2554, 200855304.000000, 1123.375000, 8172.000000, 8194.000000, 8188.000000
2555, 200855464.000000, 1109.000000, 8173.500000, 8191.500000, 8185.500000
2556, 200855624.000000, 1083.625000, 8175.000000, 8190.000000, 8184.000000
2557, 200855784.000000, 1052.875000, 8174.000000, 8186.500000, 8181.500000
2558, 200855944.000000, 1029.750000, 8173.500000, 8183.500000, 8176.500000
2559, 200856104.000000, 1059.000000, 8174.000000, 8181.000000, 8174.000000
2560, 200856264.000000, 1198.750000, 8185.000000, 8201.500000, 8212.500000
2561, 200856424.000000, 1440.875000, 8195.000000, 8218.500000, 8239.500000
2562, 200856584.000000, 1702.125000, 8207.000000, 8209.000000, 8227.000000
2563, 200856744.000000, 1893.750000, 8184.000000, 8178.500000, 8175.500000
2564, 200856904.000000, 1990.875000, 8169.000000, 8165.000000, 8151.000000
2565, 200857064.000000, 2003.000000, 8166.500000, 8164.500000, 8148.000000
2566, 200857224.000000, 1953.375000, 8167.500000, 8166.500000, 8149.500000
2567, 200857384.000000, 1870.875000, 8243.500000, 8206.500000, 8230.000000
2568, 200857544.000000, 1774.875000, 8334.000000, 7835.500000, 7905.500000
2569, 200857704.000000, 1671.750000, 8105.000000, 8042.000000, 7970.500000
2570, 200857864.000000, 1572.750000, 8181.000000, 8202.500000, 8196.500000
2571, 200858024.000000, 1501.250000, 8184.000000, 8216.500000, 8211.500000
2572, 200858184.000000, 1474.125000, 8189.000000, 8221.000000, 8218.000000
2573, 200858344.000000, 1489.500000, 8194.500000, 8224.000000, 8223.500000
2574, 200858504.000000, 1525.125000, 8200.500000, 8229.500000, 8231.000000
2575, 200858664.000000, 1563.125000, 8209.000000, 8233.500000, 8241.500000
2576, 200858824.000000, 1583.250000, 8216.000000, 8238.000000, 8248.000000
2577, 200858984.000000, 1577.625000, 8226.000000, 8242.000000, 8258.000000
2578, 200859144.000000, 1549.750000, 8235.500000, 8244.500000, 8265.500000
2579, 200859304.000000, 1500.875000, 8243.000000, 8239.500000, 8263.500000
2580, 200859464.000000, 1445.125000, 8247.000000, 8230.000000, 8256.000000
2581, 200859624.000000, 1389.250000, 8236.500000, 8215.500000, 8239.000000
2582, 200859784.000000, 1340.750000, 8202.500000, 8204.500000, 8215.500000
2583, 200859944.000000, 1298.000000, 8172.500000, 8195.500000, 8191.500000
2584, 200860104.000000, 1262.500000, 8158.000000, 8189.000000, 8176.000000
2585, 200860264.000000, 1237.000000, 8157.500000, 8187.000000, 8173.500000
2586, 200860424.000000, 1219.250000, 8159.000000, 8190.000000, 8177.500000
2587, 200860584.000000, 1207.500000, 8165.000000, 8191.000000, 8182.000000
2588, 200860744.000000, 1201.750000, 8169.000000, 8191.500000, 8183.500000
2589, 200860904.000000, 1196.750000, 8170.000000, 8191.000000, 8182.000000
2590, 200861064.000000, 1189.250000, 8170.000000, 8190.000000, 8181.000000
2591, 200861224.000000, 1171.000000, 8170.000000, 8188.000000, 8179.000000
2592, 200861384.000000, 1155.500000, 8170.000000, 8186.500000, 8177.000000
2593, 200861544.000000, 1203.750000, 8168.500000, 8183.000000, 8172.500000
2594, 200861704.000000, 1371.125000, 8167.000000, 8182.500000, 8169.500000
2595, 200861864.000000, 1662.375000, 8178.000000, 8204.500000, 8209.000000
2596, 200862024.000000, 1968.250000, 8188.000000, 8222.000000, 8238.500000
2597, 200862184.000000, 2198.625000, 8198.000000, 8210.500000, 8221.500000
2598, 200862344.000000, 2316.750000, 8174.000000, 8178.500000, 8168.000000
2599, 200862504.000000, 2339.875000, 8160.500000, 8166.500000, 8147.000000
2600, 200862664.000000, 2298.500000, 8161.000000, 8165.000000, 8146.000000
2601, 200862824.000000, 2220.750000, 8164.000000, 8163.500000, 8144.000000
2602, 200862984.000000, 2134.750000, 8243.000000, 8196.000000, 8220.000000
2603, 200863144.000000, 2046.875000, 8334.000000, 7826.500000, 7895.500000
2604, 200863304.000000, 1955.750000, 8109.000000, 8061.000000, 7991.000000
2605, 200863464.000000, 1881.000000, 8179.500000, 8210.500000, 8204.500000
2606, 200863624.000000, 1844.500000, 8182.500000, 8224.500000, 8220.500000
2607, 200863784.000000, 1848.375000, 8188.500000, 8231.000000, 8229.000000
2608, 200863944.000000, 1876.750000, 8194.000000, 8234.000000, 8234.000000
2609, 200864104.000000, 1909.500000, 8201.500000, 8238.000000, 8239.500000
2610, 200864264.000000, 1931.375000, 8209.500000, 8242.000000, 8248.500000
2611, 200864424.000000, 1929.500000, 8217.500000, 8245.000000, 8256.000000
2612, 200864584.000000, 1905.000000, 8227.000000, 8248.500000, 8264.500000
2613, 200864744.000000, 1858.250000, 8236.500000, 8246.500000, 8267.000000
2614, 200864904.000000, 1800.875000, 8244.000000, 8240.500000, 8264.000000
2615, 200865064.000000, 1738.375000, 8247.500000, 8231.500000, 8256.500000
2616, 200865224.000000, 1681.375000, 8238.500000, 8217.000000, 8241.000000
2617, 200865384.000000, 1633.375000, 8207.000000, 8207.500000, 8220.500000
2618, 200865544.000000, 1598.500000, 8177.000000, 8197.000000, 8194.500000
2619, 200865704.000000, 1573.000000, 8162.000000, 8189.500000, 8178.500000
2620, 200865864.000000, 1558.375000, 8160.500000, 8188.000000, 8174.500000
2621, 200866024.000000, 1546.500000, 8163.000000, 8188.000000, 8176.000000
2622, 200866184.000000, 1535.625000, 8168.500000, 8189.000000, 8180.500000
2623, 200866344.000000, 1525.875000, 8171.500000, 8190.000000, 8181.500000
2624, 200866504.000000, 1513.125000, 8174.500000, 8190.000000, 8181.500000
2625, 200866664.000000, 1492.750000, 8174.000000, 8189.000000, 8180.000000
2626, 200866824.000000, 1462.500000, 8172.000000, 8186.500000, 8176.500000
2627, 200866984.000000, 1440.125000, 8172.000000, 8183.500000, 8173.500000
2628, 200867144.000000, 1491.875000, 8173.000000, 8181.000000, 8170.000000
2629, 200867304.000000, 1677.500000, 8173.000000, 8180.000000, 8169.000000
2630, 200867464.000000, 1983.875000, 8172.000000, 8180.000000, 8168.000000
2631, 200867624.000000, 2305.125000, 8177.500000, 8187.000000, 8182.000000
2632, 200867784.000000, 2549.500000, 8188.000000, 8211.000000, 8223.000000
2633, 200867944.000000, 2677.000000, 8206.500000, 8224.500000, 8247.000000
2634, 200868104.000000, 2710.875000, 8197.500000, 8193.500000, 8197.000000
2635, 200868264.000000, 2671.000000, 8168.500000, 8171.000000, 8154.500000
2636, 200868424.000000, 2596.000000, 8168.500000, 8168.000000, 8149.500000
2637, 200868584.000000, 2513.750000, 8169.000000, 8166.500000, 8148.500000
2638, 200868744.000000, 2425.500000, 8188.000000, 8180.000000, 8163.500000
2639, 200868904.000000, 2336.125000, 8340.000000, 7975.000000, 8057.000000
2640, 200869064.000000, 2260.375000, 8080.500000, 7916.500000, 7839.500000
2641, 200869224.000000, 2223.000000, 8178.500000, 8186.000000, 8171.500000
2642, 200869384.000000, 2223.000000, 8185.000000, 8216.500000, 8211.500000
2643, 200869544.000000, 2245.250000, 8188.500000, 8224.000000, 8220.000000
2644, 200869704.000000, 2266.500000, 8194.500000, 8226.500000, 8224.500000
2645, 200869864.000000, 2273.000000, 8201.000000, 8232.000000, 8235.000000
2646, 200870024.000000, 2255.375000, 8208.000000, 8236.000000, 8242.000000
2647, 200870184.000000, 2212.250000, 8216.000000, 8239.000000, 8251.000000
2648, 200870344.000000, 2149.500000, 8224.000000, 8243.000000, 8259.500000
2649, 200870504.000000, 2075.625000, 8233.000000, 8245.500000, 8267.500000
2650, 200870664.000000, 2000.375000, 8241.000000, 8243.000000, 8268.500000
2651, 200870824.000000, 1931.750000, 8246.500000, 8236.500000, 8264.000000
2652, 200870984.000000, 1873.500000, 8244.000000, 8225.000000, 8252.500000
2653, 200871144.000000, 1826.375000, 8218.500000, 8212.000000, 8229.000000
2654, 200871304.000000, 1792.625000, 8183.500000, 8204.000000, 8207.000000
2655, 200871464.000000, 1768.375000, 8163.500000, 8196.000000, 8188.000000
2656, 200871624.000000, 1748.125000, 8158.000000, 8191.500000, 8180.500000
2657, 200871784.000000, 1729.000000, 8158.500000, 8191.000000, 8179.000000
2658, 200871944.000000, 1711.000000, 8162.000000, 8191.000000, 8180.000000
2659, 200872104.000000, 1691.000000, 8165.500000, 8193.500000, 8183.000000
2660, 200872264.000000, 1669.875000, 8167.000000, 8194.000000, 8183.000000
2661, 200872424.000000, 1643.500000, 8170.000000, 8194.500000, 8185.500000
2662, 200872584.000000, 1606.875000, 8171.500000, 8191.000000, 8182.500000
2663, 200872744.000000, 1565.875000, 8172.000000, 8187.500000, 8177.500000
2664, 200872904.000000, 1562.000000, 8170.000000, 8184.000000, 8172.500000
2665, 200873064.000000, 1679.625000, 8170.000000, 8184.000000, 8173.000000
2666, 200873224.000000, 1935.625000, 8170.000000, 8182.500000, 8171.500000
2667, 200873384.000000, 2278.250000, 8171.500000, 8182.000000, 8171.500000
2668, 200873544.000000, 2580.875000, 8172.500000, 8182.000000, 8171.500000
2669, 200873704.000000, 2780.500000, 8177.000000, 8193.000000, 8190.500000
2670, 200873864.000000, 2866.375000, 8186.500000, 8212.500000, 8224.000000
2671, 200874024.000000, 2862.000000, 8207.500000, 8223.000000, 8244.500000
2672, 200874184.000000, 2799.000000, 8192.000000, 8192.000000, 8192.000000
2673, 200874344.000000, 2712.875000, 8169.000000, 8173.500000, 8157.500000
2674, 200874504.000000, 2618.000000, 8167.000000, 8172.000000, 8153.000000
2675, 200874664.000000, 2516.375000, 8167.500000, 8173.500000, 8155.500000
2676, 200874824.000000, 2419.875000, 8198.500000, 8203.500000, 8198.000000
2677, 200874984.000000, 2349.875000, 8356.500000, 7967.000000, 8058.500000
2678, 200875144.000000, 2320.875000, 8082.500000, 7966.000000, 7891.500000
2679, 200875304.000000, 2323.500000, 8178.500000, 8195.000000, 8182.500000
2680, 200875464.000000, 2334.375000, 8186.000000, 8220.500000, 8215.500000
2681, 200875624.000000, 2335.750000, 8190.000000, 8226.000000, 8222.000000
2682, 200875784.000000, 2321.375000, 8195.000000, 8228.000000, 8225.500000
2683, 200875944.000000, 2278.875000, 8202.000000, 8231.000000, 8231.000000
2684, 200876104.000000, 2216.250000, 8210.000000, 8235.500000, 8238.500000
2685, 200876264.000000, 2139.000000, 8218.500000, 8240.000000, 8247.000000
2686, 200876424.000000, 2055.000000, 8228.500000, 8243.000000, 8255.500000
2687, 200876584.000000, 1976.625000, 8237.500000, 8244.000000, 8260.500000
2688, 200876744.000000, 1908.000000, 8244.000000, 8241.500000, 8261.000000
2689, 200876904.000000, 1852.500000, 8250.000000, 8233.000000, 8255.000000
2690, 200877064.000000, 1810.125000, 8244.500000, 8223.500000, 8245.500000
2691, 200877224.000000, 1778.750000, 8217.500000, 8214.500000, 8227.500000
2692, 200877384.000000, 1756.000000, 8181.000000, 8204.500000, 8204.000000
2693, 200877544.000000, 1736.000000, 8162.000000, 8197.500000, 8186.500000
2694, 200877704.000000, 1717.125000, 8157.000000, 8192.000000, 8178.000000
2695, 200877864.000000, 1697.375000, 8155.000000, 8192.000000, 8176.500000
2696, 200878024.000000, 1671.750000, 8161.000000, 8194.000000, 8183.000000
2697, 200878184.000000, 1643.875000, 8165.000000, 8194.500000, 8185.500000
2698, 200878344.000000, 1612.125000, 8167.500000, 8193.500000, 8185.500000
2699, 200878504.000000, 1572.375000, 8170.000000, 8192.500000, 8183.500000
2700, 200878664.000000, 1524.500000, 8171.500000, 8190.000000, 8183.500000
2701, 200878824.000000, 1475.750000, 8171.000000, 8186.000000, 8179.000000
2702, 200878984.000000, 1460.750000, 8167.500000, 8184.500000, 8174.500000
2703, 200879144.000000, 1550.250000, 8167.000000, 8183.000000, 8172.000000
2704, 200879304.000000, 1794.125000, 8167.500000, 8183.500000, 8171.500000
2705, 200879464.000000, 2137.375000, 8168.500000, 8184.500000, 8174.000000
2706, 200879624.000000, 2468.250000, 8170.000000, 8186.000000, 8175.000000
2707, 200879784.000000, 2694.000000, 8182.000000, 8208.500000, 8214.500000
2708, 200879944.000000, 2803.750000, 8198.500000, 8228.000000, 8251.500000
2709, 200880104.000000, 2811.125000, 8194.000000, 8201.000000, 8207.000000
2710, 200880264.000000, 2750.750000, 8169.500000, 8177.000000, 8165.000000
2711, 200880424.000000, 2660.625000, 8167.000000, 8171.500000, 8156.500000
2712, 200880584.000000, 2555.625000, 8169.000000, 8169.500000, 8155.500000
2713, 200880744.000000, 2444.875000, 8180.500000, 8167.000000, 8149.500000
2714, 200880904.000000, 2335.125000, 8319.500000, 8177.500000, 8250.500000
2715, 200881064.000000, 2252.750000, 8174.000000, 7906.000000, 7897.500000
2716, 200881224.000000, 2214.375000, 8153.000000, 8130.000000, 8090.500000
2717, 200881384.000000, 2211.500000, 8188.500000, 8204.500000, 8200.500000
2718, 200881544.000000, 2223.625000, 8192.500000, 8212.000000, 8207.500000
2719, 200881704.000000, 2227.750000, 8197.000000, 8215.500000, 8212.500000
2720, 200881864.000000, 2211.375000, 8202.500000, 8218.500000, 8219.500000
2721, 200882024.000000, 2167.250000, 8211.000000, 8223.000000, 8229.000000
2722, 200882184.000000, 2099.875000, 8218.500000, 8227.000000, 8237.500000
2723, 200882344.000000, 2015.125000, 8226.500000, 8230.000000, 8244.000000
2724, 200882504.000000, 1926.875000, 8235.500000, 8234.500000, 8251.500000
2725, 200882664.000000, 1845.625000, 8246.500000, 8232.500000, 8254.000000
2726, 200882824.000000, 1770.625000, 8257.000000, 8223.000000, 8249.000000
2727, 200882984.000000, 1708.625000, 8257.000000, 8210.000000, 8236.000000
2728, 200883144.000000, 1656.875000, 8235.000000, 8198.000000, 8216.500000
2729, 200883304.000000, 1617.250000, 8195.000000, 8197.500000, 8201.500000
2730, 200883464.000000, 1586.625000, 8171.000000, 8195.000000, 8190.000000
2731, 200883624.000000, 1561.375000, 8161.000000, 8189.500000, 8178.500000
2732, 200883784.000000, 1540.000000, 8158.000000, 8188.500000, 8175.500000
2733, 200883944.000000, 1517.125000, 8162.000000, 8188.500000, 8177.500000
2734, 200884104.000000, 1491.625000, 8166.500000, 8191.000000, 8181.500000
2735, 200884264.000000, 1461.875000, 8171.500000, 8192.500000, 8186.000000
2736, 200884424.000000, 1424.750000, 8175.000000, 8190.500000, 8185.500000
2737, 200884584.000000, 1375.875000, 8174.000000, 8186.500000, 8179.500000
2738, 200884744.000000, 1322.125000, 8173.000000, 8183.000000, 8174.000000
2739, 200884904.000000, 1269.375000, 8174.000000, 8182.000000, 8173.000000
2740, 200885064.000000, 1269.750000, 8172.000000, 8180.000000, 8170.000000
2741, 200885224.000000, 1396.375000, 8173.000000, 8179.500000, 8170.500000
2742, 200885384.000000, 1679.625000, 8172.500000, 8179.000000, 8169.500000
2743, 200885544.000000, 2043.250000, 8172.500000, 8176.000000, 8164.500000
2744, 200885704.000000, 2377.375000, 8173.500000, 8177.500000, 8165.500000
2745, 200885864.000000, 2595.000000, 8187.000000, 8205.500000, 8216.000000
2746, 200886024.000000, 2692.750000, 8202.000000, 8224.000000, 8249.500000
2747, 200886184.000000, 2676.500000, 8199.500000, 8195.000000, 8202.000000
2748, 200886344.000000, 2592.375000, 8171.500000, 8169.000000, 8155.000000
2749, 200886504.000000, 2474.750000, 8168.000000, 8164.500000, 8147.500000
2750, 200886664.000000, 2343.000000, 8170.000000, 8163.500000, 8146.500000
2751, 200886824.000000, 2200.375000, 8178.500000, 8163.500000, 8140.500000
2752, 200886984.000000, 2070.750000, 8305.500000, 8099.500000, 8166.000000
2753, 200887144.000000, 1988.250000, 8158.000000, 7853.500000, 7821.000000
2754, 200887304.000000, 1963.250000, 8159.000000, 8152.500000, 8118.000000
2755, 200887464.000000, 1977.625000, 8183.500000, 8211.500000, 8205.000000
2756, 200887624.000000, 2002.000000, 8188.000000, 8220.000000, 8215.000000
2757, 200887784.000000, 2017.875000, 8192.500000, 8223.000000, 8219.500000
2758, 200887944.000000, 2008.375000, 8199.000000, 8226.500000, 8226.000000
2759, 200888104.000000, 1965.625000, 8206.500000, 8231.500000, 8234.000000
2760, 200888264.000000, 1895.875000, 8214.500000, 8237.000000, 8244.000000
2761, 200888424.000000, 1808.250000, 8224.000000, 8241.000000, 8253.500000
2762, 200888584.000000, 1714.625000, 8234.500000, 8244.000000, 8260.500000
2763, 200888744.000000, 1630.000000, 8244.000000, 8245.000000, 8265.000000
2764, 200888904.000000, 1556.875000, 8250.500000, 8239.500000, 8262.500000
2765, 200889064.000000, 1500.500000, 8252.000000, 8230.000000, 8255.000000
2766, 200889224.000000, 1456.125000, 8233.000000, 8217.500000, 8237.000000
2767, 200889384.000000, 1424.125000, 8197.000000, 8210.000000, 8215.500000
2768, 200889544.000000, 1400.000000, 8168.000000, 8202.500000, 8192.000000
2769, 200889704.000000, 1380.625000, 8159.000000, 8198.000000, 8183.000000
2770, 200889864.000000, 1363.000000, 8157.500000, 8197.000000, 8181.500000
2771, 200890024.000000, 1343.000000, 8160.000000, 8197.000000, 8183.000000
2772, 200890184.000000, 1321.875000, 8163.000000, 8197.000000, 8185.000000
2773, 200890344.000000, 1299.375000, 8165.500000, 8197.500000, 8187.000000
2774, 200890504.000000, 1271.375000, 8166.500000, 8197.000000, 8185.500000
2775, 200890664.000000, 1234.375000, 8168.500000, 8194.000000, 8184.000000
2776, 200890824.000000, 1187.625000, 8169.500000, 8191.000000, 8181.500000
2777, 200890984.000000, 1154.250000, 8167.500000, 8187.500000, 8175.500000
2778, 200891144.000000, 1196.875000, 8166.000000, 8186.000000, 8172.000000
2779, 200891304.000000, 1420.625000, 8168.000000, 8184.500000, 8171.500000
2780, 200891464.000000, 1906.125000, 8169.000000, 8182.500000, 8170.500000
2781, 200891624.000000, 2436.125000, 8171.500000, 8181.000000, 8170.500000
2782, 200891784.000000, 2767.250000, 8171.500000, 8180.000000, 8169.500000
2783, 200891944.000000, 2945.375000, 8173.000000, 8180.500000, 8169.500000
2784, 200892104.000000, 2932.750000, 8187.500000, 8209.500000, 8220.500000
2785, 200892264.000000, 2809.000000, 8202.000000, 8228.500000, 8256.500000
2786, 200892424.000000, 2683.500000, 8196.500000, 8199.000000, 8208.000000
2787, 200892584.000000, 2551.250000, 8170.000000, 8173.000000, 8159.500000
2788, 200892744.000000, 2383.500000, 8164.000000, 8168.000000, 8149.000000
2789, 200892904.000000, 2252.500000, 8165.000000, 8168.000000, 8151.000000
2790, 200893064.000000, 2180.375000, 8176.500000, 8167.000000, 8145.000000
2791, 200893224.000000, 2161.750000, 8306.000000, 8104.500000, 8174.500000
2792, 200893384.000000, 2164.250000, 8163.500000, 7855.000000, 7828.500000
2793, 200893544.000000, 2166.375000, 8156.000000, 8153.500000, 8121.000000
2794, 200893704.000000, 2152.375000, 8181.000000, 8213.000000, 8209.000000
2795, 200893864.000000, 2109.250000, 8185.000000, 8221.000000, 8218.000000
2796, 200894024.000000, 2036.500000, 8191.000000, 8223.000000, 8223.000000
2797, 200894184.000000, 1940.375000, 8197.000000, 8225.500000, 8227.500000
2798, 200894344.000000, 1834.625000, 8204.500000, 8230.000000, 8233.500000
2799, 200894504.000000, 1730.000000, 8213.500000, 8235.500000, 8245.000000
2800, 200894664.000000, 1636.875000, 8222.500000, 8239.000000, 8254.500000
2801, 200894824.000000, 1559.500000, 8233.000000, 8242.000000, 8262.000000
2802, 200894984.000000, 1498.625000, 8241.000000, 8242.500000, 8264.500000
2803, 200895144.000000, 1455.625000, 8250.000000, 8237.500000, 8263.500000
2804, 200895304.000000, 1424.625000, 8251.000000, 8232.000000, 8260.000000
2805, 200895464.000000, 1400.375000, 8233.000000, 8221.500000, 8244.000000
2806, 200895624.000000, 1381.000000, 8196.500000, 8214.500000, 8222.500000
2807, 200895784.000000, 1360.000000, 8171.500000, 8208.500000, 8204.000000
2808, 200895944.000000, 1338.625000, 8160.000000, 8205.000000, 8193.000000
2809, 200896104.000000, 1310.500000, 8160.000000, 8206.500000, 8194.500000
2810, 200896264.000000, 1279.375000, 8163.000000, 8208.000000, 8198.000000
2811, 200896424.000000, 1245.250000, 8169.000000, 8209.500000, 8203.500000
2812, 200896584.000000, 1206.750000, 8170.500000, 8210.000000, 8204.000000
2813, 200896744.000000, 1160.500000, 8174.000000, 8209.500000, 8204.500000
2814, 200896904.000000, 1109.000000, 8174.000000, 8208.000000, 8203.000000
2815, 200897064.000000, 1100.000000, 8173.500000, 8205.500000, 8199.500000
2816, 200897224.000000, 1220.625000, 8173.500000, 8203.000000, 8197.000000
2817, 200897384.000000, 1554.625000, 8170.500000, 8201.000000, 8193.000000
2818, 200897544.000000, 2026.500000, 8169.500000, 8201.000000, 8191.500000
2819, 200897704.000000, 2493.125000, 8170.000000, 8202.000000, 8193.000000
2820, 200897864.000000, 2834.500000, 8170.000000, 8201.500000, 8192.000000
2821, 200898024.000000, 3009.625000, 8172.000000, 8201.500000, 8193.500000
2822, 200898184.000000, 3034.625000, 8171.000000, 8199.000000, 8188.000000
2823, 200898344.000000, 2955.875000, 8172.500000, 8201.000000, 8190.500000
2824, 200898504.000000, 2826.000000, 8184.000000, 8224.500000, 8232.500000
2825, 200898664.000000, 2683.750000, 8201.500000, 8242.000000, 8266.500000
2826, 200898824.000000, 2537.500000, 8198.500000, 8212.000000, 8217.500000
2827, 200898984.000000, 2384.875000, 8173.500000, 8187.000000, 8174.000000
2828, 200899144.000000, 2248.875000, 8171.000000, 8184.000000, 8167.000000
2829, 200899304.000000, 2166.625000, 8171.500000, 8182.000000, 8165.500000
2830, 200899464.000000, 2135.750000, 8186.500000, 8184.500000, 8166.500000
2831, 200899624.000000, 2137.250000, 8338.000000, 8116.500000, 8198.000000
2832, 200899784.000000, 2141.875000, 8125.500000, 7909.000000, 7865.000000
2833, 200899944.000000, 2132.625000, 8164.500000, 8164.000000, 8133.000000
2834, 200900104.000000, 2096.875000, 8189.500000, 8220.000000, 8215.500000
2835, 200900264.000000, 2025.375000, 8192.000000, 8227.000000, 8224.000000
2836, 200900424.000000, 1929.750000, 8200.000000, 8228.000000, 8229.000000
2837, 200900584.000000, 1820.250000, 8206.000000, 8230.000000, 8232.500000
2838, 200900744.000000, 1706.500000, 8214.000000, 8235.000000, 8241.000000
2839, 200900904.000000, 1603.250000, 8223.500000, 8239.000000, 8250.000000
2840, 200901064.000000, 1516.250000, 8232.500000, 8242.000000, 8257.000000
2841, 200901224.000000, 1448.625000, 8243.000000, 8244.000000, 8263.000000
2842, 200901384.000000, 1397.875000, 8252.500000, 8242.500000, 8265.000000
2843, 200901544.000000, 1361.500000, 8258.500000, 8236.000000, 8259.500000
2844, 200901704.000000, 1334.875000, 8259.500000, 8227.500000, 8253.500000
2845, 200901864.000000, 1312.375000, 8237.000000, 8216.000000, 8236.000000
2846, 200902024.000000, 1293.000000, 8196.500000, 8209.500000, 8215.500000
2847, 200902184.000000, 1271.375000, 8170.000000, 8203.000000, 8196.000000
2848, 200902344.000000, 1244.500000, 8158.500000, 8198.000000, 8186.000000
2849, 200902504.000000, 1214.500000, 8157.500000, 8198.000000, 8184.500000
2850, 200902664.000000, 1184.375000, 8160.500000, 8198.000000, 8186.500000
2851, 200902824.000000, 1150.250000, 8165.000000, 8197.500000, 8188.500000
2852, 200902984.000000, 1112.750000, 8169.000000, 8197.000000, 8189.000000
2853, 200903144.000000, 1063.250000, 8172.000000, 8195.500000, 8188.500000
2854, 200903304.000000, 1008.625000, 8175.500000, 8193.000000, 8187.500000
2855, 200903464.000000, 983.125000, 8176.000000, 8190.500000, 8185.500000
2856, 200903624.000000, 1067.250000, 8173.000000, 8185.500000, 8176.500000
