2778, 192884960.000000, 2155.500000, 8225.000000, 8228.000000, 8241.000000
2779, 192885120.000000, 2077.000000, 8234.000000, 8235.000000, 8252.000000
2780, 192885280.000000, 2005.000000, 8239.000000, 8233.000000, 8253.000000
2781, 192885440.000000, 1936.000000, 8240.000000, 8221.000000, 8240.000000
2782, 192885600.000000, 1875.500000, 8236.000000, 8205.000000, 8223.000000
2783, 192885760.000000, 1825.000000, 8213.000000, 8200.000000, 8211.000000
2784, 192885920.000000, 1782.500000, 8181.000000, 8204.000000, 8204.000000
2785, 192886080.000000, 1748.000000, 8163.000000, 8202.000000, 8194.000000
2786, 192886240.000000, 1721.000000, 8159.000000, 8196.000000, 8185.000000
2787, 192886400.000000, 1696.000000, 8162.000000, 8192.000000, 8181.000000
2788, 192886560.000000, 1676.000000, 8164.000000, 8196.000000, 8185.000000
2789, 192886720.000000, 1656.000000, 8171.000000, 8200.000000, 8195.000000
2790, 192886880.000000, 1631.500000, 8173.000000, 8199.000000, 8194.000000
2791, 192887040.000000, 1602.000000, 8171.000000, 8192.000000, 8185.000000
2792, 192887200.000000, 1553.000000, 8172.000000, 8186.000000, 8178.000000
2793, 192887360.000000, 1501.000000, 8172.000000, 8185.000000, 8177.000000
2794, 192887520.000000, 1493.500000, 8171.000000, 8188.000000, 8181.000000
2795, 192887680.000000, 1637.000000, 8172.000000, 8188.000000, 8180.000000
2796, 192887840.000000, 1955.000000, 8171.000000, 8181.000000, 8172.000000
2797, 192888000.000000, 2344.000000, 8174.000000, 8182.000000, 8175.000000
2798, 192888160.000000, 2633.000000, 8183.000000, 8206.000000, 8215.000000
2799, 192888320.000000, 2763.000000, 8200.000000, 8227.000000, 8251.000000
2800, 192888480.000000, 2737.500000, 8194.000000, 8199.000000, 8205.000000
2801, 192888640.000000, 2630.000000, 8168.000000, 8173.000000, 8160.000000
2802, 192888800.000000, 2494.500000, 8167.000000, 8165.000000, 8148.000000
2803, 192888960.000000, 2367.000000, 8168.000000, 8169.000000, 8154.000000
2804, 192889120.000000, 2252.000000, 8180.000000, 8172.000000, 8153.000000
2805, 192889280.000000, 2147.000000, 8324.000000, 8135.000000, 8214.000000
2806, 192889440.000000, 2064.000000, 8126.000000, 7911.000000, 7872.000000
2807, 192889600.000000, 2021.000000, 8158.000000, 8150.000000, 8117.000000
2808, 192889760.000000, 2031.500000, 8185.000000, 8207.000000, 8202.000000
2809, 192889920.000000, 2068.000000, 8188.000000, 8219.000000, 8216.000000
2810, 192890080.000000, 2109.500000, 8193.000000, 8222.000000, 8220.000000
2811, 192890240.000000, 2127.000000, 8198.000000, 8219.000000, 8218.000000
2812, 192890400.000000, 2112.500000, 8205.000000, 8220.000000, 8222.000000
2813, 192890560.000000, 2059.000000, 8215.000000, 8227.000000, 8235.000000
2814, 192890720.000000, 1982.000000, 8221.000000, 8236.000000, 8248.000000
2815, 192890880.000000, 1897.000000, 8230.000000, 8239.000000, 8255.000000
2816, 192891040.000000, 1812.500000, 8235.000000, 8233.000000, 8249.000000
2817, 192891200.000000, 1738.000000, 8241.000000, 8224.000000, 8244.000000
2818, 192891360.000000, 1676.500000, 8240.000000, 8217.000000, 8238.000000
2819, 192891520.000000, 1624.000000, 8225.000000, 8208.000000, 8225.000000
2820, 192891680.000000, 1583.000000, 8192.000000, 8204.000000, 8209.000000
2821, 192891840.000000, 1552.000000, 8171.000000, 8195.000000, 8190.000000
2822, 192892000.000000, 1529.000000, 8161.000000, 8191.000000, 8180.000000
2823, 192892160.000000, 1509.000000, 8162.000000, 8195.000000, 8184.000000
2824, 192892320.000000, 1489.500000, 8165.000000, 8199.000000, 8190.000000
2825, 192892480.000000, 1471.000000, 8168.000000, 8200.000000, 8193.000000
2826, 192892640.000000, 1449.000000, 8172.000000, 8194.000000, 8188.000000
2827, 192892800.000000, 1422.000000, 8173.000000, 8188.000000, 8181.000000
2828, 192892960.000000, 1383.000000, 8173.000000, 8189.000000, 8182.000000
2829, 192893120.000000, 1333.000000, 8173.000000, 8193.000000, 8186.000000
2830, 192893280.000000, 1311.000000, 8171.000000, 8190.000000, 8181.000000
2831, 192893440.000000, 1400.000000, 8171.000000, 8183.000000, 8174.000000
2832, 192893600.000000, 1700.000000, 8172.000000, 8179.000000, 8169.000000
2833, 192893760.000000, 2123.000000, 8173.000000, 8182.000000, 8173.000000
2834, 192893920.000000, 2505.500000, 8173.000000, 8186.000000, 8177.000000
2835, 192894080.000000, 2722.000000, 8177.000000, 8191.000000, 8188.000000
2836, 192894240.000000, 2763.000000, 8184.000000, 8206.000000, 8216.000000
2837, 192894400.000000, 2685.000000, 8202.000000, 8215.000000, 8237.000000
2838, 192894560.000000, 2553.500000, 8195.000000, 8194.000000, 8199.000000
2839, 192894720.000000, 2418.000000, 8171.000000, 8179.000000, 8168.000000
2840, 192894880.000000, 2307.000000, 8170.000000, 8176.000000, 8163.000000
2841, 192895040.000000, 2208.000000, 8169.000000, 8169.000000, 8155.000000
2842, 192895200.000000, 2124.000000, 8184.000000, 8170.000000, 8152.000000
2843, 192895360.000000, 2064.000000, 8331.000000, 8056.000000, 8138.000000
2844, 192895520.000000, 2050.500000, 8103.000000, 7927.000000, 7873.000000
2845, 192895680.000000, 2093.000000, 8171.000000, 8178.000000, 8159.000000
2846, 192895840.000000, 2136.500000, 8185.000000, 8212.000000, 8209.000000
2847, 192896000.000000, 2164.000000, 8188.000000, 8216.000000, 8211.000000
2848, 192896160.000000, 2157.000000, 8195.000000, 8222.000000, 8223.000000
2849, 192896320.000000, 2109.000000, 8202.000000, 8229.000000, 8233.000000
2850, 192896480.000000, 2020.000000, 8208.000000, 8231.000000, 8237.000000
2851, 192896640.000000, 1939.000000, 8215.000000, 8230.000000, 8240.000000
2852, 192896800.000000, 1861.000000, 8222.000000, 8230.000000, 8243.000000
2853, 192896960.000000, 1794.000000, 8231.000000, 8237.000000, 8254.000000
2854, 192897120.000000, 1737.000000, 8237.000000, 8242.000000, 8263.000000
2855, 192897280.000000, 1691.000000, 8240.000000, 8236.000000, 8259.000000
2856, 192897440.000000, 1652.500000, 8238.000000, 8223.000000, 8245.000000
2857, 192897600.000000, 1624.000000, 8223.000000, 8207.000000, 8223.000000
2858, 192897760.000000, 1605.000000, 8195.000000, 8205.000000, 8212.000000
2859, 192897920.000000, 1589.000000, 8173.000000, 8204.000000, 8199.000000
2860, 192898080.000000, 1574.000000, 8164.000000, 8200.000000, 8191.000000
2861, 192898240.000000, 1557.000000, 8165.000000, 8193.000000, 8184.000000
2862, 192898400.000000, 1530.500000, 8166.000000, 8193.000000, 8183.000000
2863, 192898560.000000, 1502.000000, 8169.000000, 8198.000000, 8190.000000
2864, 192898720.000000, 1470.000000, 8172.000000, 8200.000000, 8194.000000
2865, 192898880.000000, 1427.000000, 8174.000000, 8197.000000, 8192.000000
2866, 192899040.000000, 1394.000000, 8175.000000, 8189.000000, 8183.000000
2867, 192899200.000000, 1477.000000, 8173.000000, 8185.000000, 8178.000000
2868, 192899360.000000, 1773.500000, 8174.000000, 8188.000000, 8181.000000
2869, 192899520.000000, 2246.000000, 8173.000000, 8190.000000, 8183.000000
2870, 192899680.000000, 2707.000000, 8172.000000, 8187.000000, 8179.000000
2871, 192899840.000000, 3014.000000, 8173.000000, 8181.000000, 8172.000000
2872, 192900000.000000, 3106.500000, 8172.000000, 8180.000000, 8170.000000
2873, 192900160.000000, 3061.000000, 8173.000000, 8185.000000, 8176.000000
2874, 192900320.000000, 2941.500000, 8173.000000, 8188.000000, 8179.000000
2875, 192900480.000000, 2812.000000, 8174.000000, 8187.000000, 8180.000000
2876, 192900640.000000, 2705.000000, 8187.000000, 8202.000000, 8212.000000
2877, 192900800.000000, 2618.000000, 8199.000000, 8215.000000, 8235.000000
2878, 192900960.000000, 2533.000000, 8198.000000, 8197.000000, 8202.000000
2879, 192901120.000000, 2448.000000, 8177.000000, 8184.000000, 8177.000000
2880, 192901280.000000, 2397.500000, 8170.000000, 8177.000000, 8164.000000
2881, 192901440.000000, 2390.000000, 8171.000000, 8172.000000, 8159.000000
2882, 192901600.000000, 2414.000000, 8175.000000, 8165.000000, 8147.000000
2883, 192901760.000000, 2442.000000, 8279.000000, 8177.000000, 8228.000000
2884, 192901920.000000, 2454.500000, 8276.000000, 7876.000000, 7911.000000
2885, 192902080.000000, 2437.000000, 8145.000000, 8131.000000, 8085.000000
2886, 192902240.000000, 2384.000000, 8185.000000, 8210.000000, 8207.000000
2887, 192902400.000000, 2309.000000, 8188.000000, 8217.000000, 8214.000000
2888, 192902560.000000, 2219.500000, 8195.000000, 8225.000000, 8226.000000
2889, 192902720.000000, 2130.000000, 8201.000000, 8231.000000, 8234.000000
2890, 192902880.000000, 2046.000000, 8206.000000, 8231.000000, 8237.000000
2891, 192903040.000000, 1969.000000, 8212.000000, 8228.000000, 8236.000000
2892, 192903200.000000, 1902.500000, 8221.000000, 8231.000000, 8243.000000
2893, 192903360.000000, 1847.000000, 8227.000000, 8239.000000, 8255.000000
2894, 192903520.000000, 1805.000000, 8235.000000, 8244.000000, 8264.000000
2895, 192903680.000000, 1771.000000, 8238.000000, 8239.000000, 8259.000000
2896, 192903840.000000, 1750.500000, 8239.000000, 8226.000000, 8248.000000
2897, 192904000.000000, 1731.000000, 8230.000000, 8213.000000, 8233.000000
2898, 192904160.000000, 1712.500000, 8204.000000, 8209.000000, 8218.000000
2899, 192904320.000000, 1686.000000, 8180.000000, 8207.000000, 8206.000000
2900, 192904480.000000, 1650.000000, 8165.000000, 8200.000000, 8191.000000
2901, 192904640.000000, 1611.000000, 8163.000000, 8194.000000, 8182.000000
2902, 192904800.000000, 1567.000000, 8165.000000, 8193.000000, 8182.000000
2903, 192904960.000000, 1520.000000, 8168.000000, 8199.000000, 8190.000000
2904, 192905120.000000, 1479.500000, 8172.000000, 8202.000000, 8196.000000
2905, 192905280.000000, 1433.000000, 8173.000000, 8198.000000, 8191.000000
2906, 192905440.000000, 1381.000000, 8173.000000, 8190.000000, 8181.000000
2907, 192905600.000000, 1403.000000, 8172.000000, 8188.000000, 8178.000000
2908, 192905760.000000, 1626.000000, 8172.000000, 8189.000000, 8179.000000
2909, 192905920.000000, 2079.000000, 8173.000000, 8191.000000, 8182.000000
2910, 192906080.000000, 2609.000000, 8171.000000, 8188.000000, 8179.000000
2911, 192906240.000000, 3027.000000, 8171.000000, 8181.000000, 8170.000000
2912, 192906400.000000, 3215.000000, 8172.000000, 8181.000000, 8171.000000
2913, 192906560.000000, 3233.000000, 8173.000000, 8185.000000, 8176.000000
2914, 192906720.000000, 3135.000000, 8173.000000, 8190.000000, 8181.000000
2915, 192906880.000000, 2994.000000, 8173.000000, 8186.000000, 8177.000000
2916, 192907040.000000, 2862.500000, 8174.000000, 8181.000000, 8172.000000
2917, 192907200.000000, 2759.000000, 8176.000000, 8183.000000, 8176.000000
2918, 192907360.000000, 2666.500000, 8187.000000, 8208.000000, 8216.000000
2919, 192907520.000000, 2567.000000, 8197.000000, 8214.000000, 8226.000000
2920, 192907680.000000, 2485.500000, 8193.000000, 8192.000000, 8194.000000
2921, 192907840.000000, 2447.000000, 8174.000000, 8173.000000, 8162.000000
2922, 192908000.000000, 2455.500000, 8173.000000, 8172.000000, 8159.000000
2923, 192908160.000000, 2480.000000, 8174.000000, 8178.000000, 8167.000000
2924, 192908320.000000, 2495.000000, 8184.000000, 8180.000000, 8166.000000
2925, 192908480.000000, 2480.000000, 8329.000000, 8173.000000, 8253.000000
2926, 192908640.000000, 2431.000000, 8163.000000, 7933.000000, 7917.000000
2927, 192908800.000000, 2357.000000, 8158.000000, 8144.000000, 8109.000000
2928, 192908960.000000, 2264.000000, 8185.000000, 8212.000000, 8207.000000
2929, 192909120.000000, 2169.000000, 8189.000000, 8223.000000, 8220.000000
2930, 192909280.000000, 2075.500000, 8196.000000, 8221.000000, 8221.000000
2931, 192909440.000000, 1987.000000, 8203.000000, 8219.000000, 8221.000000
2932, 192909600.000000, 1912.000000, 8208.000000, 8221.000000, 8225.000000
2933, 192909760.000000, 1844.000000, 8217.000000, 8229.000000, 8237.000000
2934, 192909920.000000, 1785.000000, 8223.000000, 8237.000000, 8249.000000
2935, 192910080.000000, 1736.000000, 8231.000000, 8236.000000, 8251.000000
2936, 192910240.000000, 1692.500000, 8238.000000, 8230.000000, 8246.000000
2937, 192910400.000000, 1661.000000, 8244.000000, 8225.000000, 8245.000000
2938, 192910560.000000, 1632.000000, 8245.000000, 8222.000000, 8244.000000
2939, 192910720.000000, 1602.000000, 8232.000000, 8212.000000, 8230.000000
2940, 192910880.000000, 1570.000000, 8200.000000, 8203.000000, 8209.000000
2941, 192911040.000000, 1532.000000, 8174.000000, 8194.000000, 8189.000000
2942, 192911200.000000, 1486.000000, 8160.000000, 8192.000000, 8180.000000
2943, 192911360.000000, 1438.000000, 8158.000000, 8196.000000, 8183.000000
2944, 192911520.000000, 1387.500000, 8162.000000, 8200.000000, 8189.000000
2945, 192911680.000000, 1336.000000, 8167.000000, 8197.000000, 8188.000000
2946, 192911840.000000, 1283.000000, 8170.000000, 8191.000000, 8182.000000
2947, 192912000.000000, 1226.000000, 8175.000000, 8190.000000, 8184.000000
2948, 192912160.000000, 1167.000000, 8174.000000, 8194.000000, 8187.000000
2949, 192912320.000000, 1159.000000, 8174.000000, 8193.000000, 8186.000000
2950, 192912480.000000, 1336.500000, 8173.000000, 8187.000000, 8178.000000
2951, 192912640.000000, 1729.000000, 8173.000000, 8180.000000, 8171.000000
2952, 192912800.000000, 2240.500000, 8172.000000, 8180.000000, 8170.000000
2953, 192912960.000000, 2658.000000, 8173.000000, 8185.000000, 8176.000000
2954, 192913120.000000, 2868.500000, 8173.000000, 8187.000000, 8178.000000
2955, 192913280.000000, 2881.000000, 8173.000000, 8183.000000, 8174.000000
2956, 192913440.000000, 2767.000000, 8174.000000, 8178.000000, 8169.000000
2957, 192913600.000000, 2606.000000, 8174.000000, 8180.000000, 8171.000000
2958, 192913760.000000, 2458.500000, 8175.000000, 8186.000000, 8178.000000
2959, 192913920.000000, 2340.000000, 8186.000000, 8210.000000, 8221.000000
2960, 192914080.000000, 2238.000000, 8196.000000, 8210.000000, 8220.000000
2961, 192914240.000000, 2138.000000, 8193.000000, 8184.000000, 8184.000000
2962, 192914400.000000, 2052.000000, 8174.000000, 8172.000000, 8161.000000
2963, 192914560.000000, 2011.000000, 8173.000000, 8175.000000, 8164.000000
2964, 192914720.000000, 2016.500000, 8173.000000, 8178.000000, 8167.000000
2965, 192914880.000000, 2038.000000, 8180.000000, 8172.000000, 8155.000000
2966, 192915040.000000, 2052.500000, 8312.000000, 8142.000000, 8215.000000
2967, 192915200.000000, 2043.000000, 8168.000000, 7912.000000, 7895.000000
2968, 192915360.000000, 1998.000000, 8157.000000, 8154.000000, 8122.000000
2969, 192915520.000000, 1923.000000, 8185.000000, 8218.000000, 8215.000000
2970, 192915680.000000, 1831.500000, 8191.000000, 8220.000000, 8220.000000
2971, 192915840.000000, 1732.000000, 8197.000000, 8219.000000, 8221.000000
2972, 192916000.000000, 1638.500000, 8202.000000, 8222.000000, 8224.000000
2973, 192916160.000000, 1552.000000, 8208.000000, 8231.000000, 8237.000000
2974, 192916320.000000, 1475.500000, 8216.000000, 8237.000000, 8248.000000
2975, 192916480.000000, 1410.000000, 8223.000000, 8236.000000, 8248.000000
2976, 192916640.000000, 1353.500000, 8230.000000, 8234.000000, 8250.000000
2977, 192916800.000000, 1309.000000, 8241.000000, 8236.000000, 8258.000000
2978, 192916960.000000, 1271.500000, 8246.000000, 8237.000000, 8262.000000
2979, 192917120.000000, 1245.000000, 8248.000000, 8230.000000, 8258.000000
2980, 192917280.000000, 1218.000000, 8231.000000, 8210.000000, 8231.000000
2981, 192917440.000000, 1191.000000, 8200.000000, 8197.000000, 8205.000000
2982, 192917600.000000, 1160.500000, 8175.000000, 8195.000000, 8191.000000
2983, 192917760.000000, 1126.000000, 8163.000000, 8197.000000, 8187.000000
2984, 192917920.000000, 1085.000000, 8161.000000, 8197.000000, 8186.000000
2985, 192918080.000000, 1042.000000, 8162.000000, 8194.000000, 8183.000000
2986, 192918240.000000, 1001.000000, 8167.000000, 8191.000000, 8182.000000
2987, 192918400.000000, 960.000000, 8171.000000, 8193.000000, 8186.000000
2988, 192918560.000000, 914.500000, 8173.000000, 8197.000000, 8190.000000
2989, 192918720.000000, 867.000000, 8174.000000, 8196.000000, 8191.000000
2990, 192918880.000000, 863.000000, 8174.000000, 8189.000000, 8182.000000
2991, 192919040.000000, 993.000000, 8174.000000, 8182.000000, 8175.000000
2992, 192919200.000000, 1370.500000, 8173.000000, 8182.000000, 8173.000000
2993, 192919360.000000, 1862.000000, 8173.000000, 8187.000000, 8178.000000
2994, 192919520.000000, 2285.000000, 8173.000000, 8187.000000, 8178.000000
2995, 192919680.000000, 2504.000000, 8173.000000, 8182.000000, 8173.000000
2996, 192919840.000000, 2528.000000, 8175.000000, 8178.000000, 8170.000000
2997, 192920000.000000, 2429.000000, 8174.000000, 8180.000000, 8171.000000
2998, 192920160.000000, 2282.500000, 8175.000000, 8186.000000, 8178.000000
2999, 192920320.000000, 2141.000000, 8176.000000, 8187.000000, 8180.000000
3000, 192920480.000000, 2031.500000, 8177.000000, 8185.000000, 8180.000000
3001, 192920640.000000, 1937.000000, 8189.000000, 8205.000000, 8216.000000
3002, 192920800.000000, 1847.000000, 8198.000000, 8203.000000, 8214.000000
3003, 192920960.000000, 1764.000000, 8195.000000, 8192.000000, 8195.000000
3004, 192921120.000000, 1719.500000, 8173.000000, 8180.000000, 8169.000000
3005, 192921280.000000, 1726.000000, 8173.000000, 8174.000000, 8163.000000
3006, 192921440.000000, 1764.000000, 8172.000000, 8172.000000, 8160.000000
3007, 192921600.000000, 1804.000000, 8183.000000, 8170.000000, 8153.000000
3008, 192921760.000000, 1817.500000, 8324.000000, 8089.000000, 8170.000000
3009, 192921920.000000, 1801.000000, 8144.000000, 7913.000000, 7876.000000
3010, 192922080.000000, 1754.000000, 8170.000000, 8173.000000, 8152.000000
3011, 192922240.000000, 1686.000000, 8187.000000, 8215.000000, 8213.000000
3012, 192922400.000000, 1607.000000, 8193.000000, 8223.000000, 8225.000000
3013, 192922560.000000, 1533.000000, 8199.000000, 8231.000000, 8235.000000
3014, 192922720.000000, 1472.000000, 8203.000000, 8232.000000, 8238.000000
3015, 192922880.000000, 1423.000000, 8209.000000, 8230.000000, 8238.000000
3016, 192923040.000000, 1391.500000, 8216.000000, 8228.000000, 8239.000000
3017, 192923200.000000, 1378.000000, 8224.000000, 8233.000000, 8249.000000
3018, 192923360.000000, 1373.000000, 8234.000000, 8243.000000, 8264.000000
3019, 192923520.000000, 1369.000000, 8239.000000, 8244.000000, 8268.000000
3020, 192923680.000000, 1368.000000, 8246.000000, 8236.000000, 8263.000000
3021, 192923840.000000, 1358.000000, 8246.000000, 8224.000000, 8251.000000
3022, 192924000.000000, 1338.000000, 8233.000000, 8212.000000, 8236.000000
3023, 192924160.000000, 1313.000000, 8203.000000, 8208.000000, 8220.000000
3024, 192924320.000000, 1281.500000, 8175.000000, 8202.000000, 8200.000000
3025, 192924480.000000, 1252.000000, 8163.000000, 8193.000000, 8183.000000
3026, 192924640.000000, 1221.000000, 8161.000000, 8187.000000, 8174.000000
3027, 192924800.000000, 1194.000000, 8164.000000, 8192.000000, 8181.000000
3028, 192924960.000000, 1171.500000, 8167.000000, 8198.000000, 8189.000000
3029, 192925120.000000, 1154.000000, 8169.000000, 8197.000000, 8189.000000
3030, 192925280.000000, 1140.000000, 8173.000000, 8191.000000, 8184.000000
3031, 192925440.000000, 1118.000000, 8174.000000, 8186.000000, 8179.000000
3032, 192925600.000000, 1130.000000, 8176.000000, 8186.000000, 8179.000000
3033, 192925760.000000, 1285.000000, 8174.000000, 8191.000000, 8184.000000
3034, 192925920.000000, 1667.500000, 8173.000000, 8189.000000, 8180.000000
3035, 192926080.000000, 2160.000000, 8172.000000, 8182.000000, 8172.000000
3036, 192926240.000000, 2562.500000, 8172.000000, 8177.000000, 8167.000000
3037, 192926400.000000, 2762.000000, 8174.000000, 8182.000000, 8173.000000
3038, 192926560.000000, 2767.000000, 8175.000000, 8185.000000, 8177.000000
3039, 192926720.000000, 2667.000000, 8174.000000, 8186.000000, 8177.000000
3040, 192926880.000000, 2525.500000, 8176.000000, 8181.000000, 8172.000000
3041, 192927040.000000, 2395.000000, 8176.000000, 8179.000000, 8170.000000
3042, 192927200.000000, 2298.000000, 8177.000000, 8183.000000, 8176.000000
3043, 192927360.000000, 2224.000000, 8186.000000, 8210.000000, 8219.000000
3044, 192927520.000000, 2153.500000, 8194.000000, 8209.000000, 8217.000000
3045, 192927680.000000, 2080.000000, 8194.000000, 8188.000000, 8188.000000
3046, 192927840.000000, 2034.000000, 8175.000000, 8174.000000, 8162.000000
3047, 192928000.000000, 2023.000000, 8175.000000, 8176.000000, 8164.000000
3048, 192928160.000000, 2043.500000, 8174.000000, 8181.000000, 8170.000000
3049, 192928320.000000, 2067.000000, 8179.000000, 8177.000000, 8160.000000
3050, 192928480.000000, 2075.500000, 8295.000000, 8171.000000, 8229.000000
3051, 192928640.000000, 2060.000000, 8263.000000, 7877.000000, 7901.000000
3052, 192928800.000000, 2016.000000, 8152.000000, 8140.000000, 8099.000000
3053, 192928960.000000, 1955.000000, 8187.000000, 8221.000000, 8221.000000
3054, 192929120.000000, 1882.000000, 8191.000000, 8229.000000, 8231.000000
3055, 192929280.000000, 1806.000000, 8196.000000, 8226.000000, 8228.000000
3056, 192929440.000000, 1740.000000, 8202.000000, 8224.000000, 8226.000000
3057, 192929600.000000, 1685.000000, 8208.000000, 8229.000000, 8235.000000
3058, 192929760.000000, 1640.000000, 8214.000000, 8237.000000, 8247.000000
3059, 192929920.000000, 1605.000000, 8221.000000, 8240.000000, 8254.000000
3060, 192930080.000000, 1577.000000, 8230.000000, 8238.000000, 8254.000000
3061, 192930240.000000, 1557.000000, 8239.000000, 8236.000000, 8256.000000
3062, 192930400.000000, 1540.500000, 8248.000000, 8236.000000, 8262.000000
3063, 192930560.000000, 1526.000000, 8251.000000, 8235.000000, 8263.000000
3064, 192930720.000000, 1510.500000, 8241.000000, 8224.000000, 8248.000000
3065, 192930880.000000, 1494.000000, 8208.000000, 8208.000000, 8218.000000
3066, 192931040.000000, 1469.000000, 8177.000000, 8198.000000, 8195.000000
3067, 192931200.000000, 1439.000000, 8164.000000, 8196.000000, 8187.000000
3068, 192931360.000000, 1405.500000, 8160.000000, 8199.000000, 8187.000000
3069, 192931520.000000, 1371.000000, 8160.000000, 8197.000000, 8185.000000
3070, 192931680.000000, 1336.000000, 8164.000000, 8193.000000, 8182.000000
3071, 192931840.000000, 1304.000000, 8168.000000, 8191.000000, 8182.000000
3072, 192932000.000000, 1272.500000, 8170.000000, 8194.000000, 8185.000000
3073, 192932160.000000, 1235.000000, 8171.000000, 8196.000000, 8189.000000
3074, 192932320.000000, 1205.000000, 8172.000000, 8193.000000, 8185.000000
3075, 192932480.000000, 1260.000000, 8170.000000, 8186.000000, 8177.000000
3076, 192932640.000000, 1507.000000, 8172.000000, 8182.000000, 8172.000000
3077, 192932800.000000, 1940.000000, 8171.000000, 8183.000000, 8174.000000
3078, 192932960.000000, 2381.000000, 8171.000000, 8187.000000, 8178.000000
3079, 192933120.000000, 2680.000000, 8172.000000, 8186.000000, 8178.000000
3080, 192933280.000000, 2760.500000, 8170.000000, 8180.000000, 8169.000000
3081, 192933440.000000, 2701.000000, 8173.000000, 8178.000000, 8169.000000
3082, 192933600.000000, 2566.500000, 8175.000000, 8182.000000, 8174.000000
3083, 192933760.000000, 2423.000000, 8175.000000, 8186.000000, 8178.000000
3084, 192933920.000000, 2301.500000, 8179.000000, 8199.000000, 8201.000000
3085, 192934080.000000, 2212.000000, 8188.000000, 8197.000000, 8201.000000
3086, 192934240.000000, 2135.500000, 8194.000000, 8185.000000, 8185.000000
3087, 192934400.000000, 2056.000000, 8183.000000, 8180.000000, 8175.000000
3088, 192934560.000000, 1999.000000, 8176.000000, 8179.000000, 8170.000000
3089, 192934720.000000, 1979.000000, 8174.000000, 8178.000000, 8169.000000
3090, 192934880.000000, 1995.000000, 8174.000000, 8173.000000, 8162.000000
3091, 192935040.000000, 2026.000000, 8248.000000, 8224.000000, 8252.000000
3092, 192935200.000000, 2047.500000, 8366.000000, 7956.000000, 8047.000000
3093, 192935360.000000, 2044.000000, 8118.000000, 8058.000000, 8004.000000
3094, 192935520.000000, 2010.500000, 8185.000000, 8201.000000, 8198.000000
3095, 192935680.000000, 1953.000000, 8189.000000, 8210.000000, 8209.000000
3096, 192935840.000000, 1880.500000, 8194.000000, 8213.000000, 8213.000000
3097, 192936000.000000, 1803.000000, 8200.000000, 8219.000000, 8221.000000
3098, 192936160.000000, 1730.500000, 8208.000000, 8227.000000, 8233.000000
3099, 192936320.000000, 1662.000000, 8214.000000, 8228.000000, 8236.000000
3100, 192936480.000000, 1604.500000, 8223.000000, 8225.000000, 8235.000000
3101, 192936640.000000, 1558.000000, 8230.000000, 8227.000000, 8241.000000
3102, 192936800.000000, 1524.000000, 8244.000000, 8232.000000, 8252.000000
3103, 192936960.000000, 1503.000000, 8253.000000, 8233.000000, 8257.000000
3104, 192937120.000000, 1487.500000, 8256.000000, 8224.000000, 8248.000000
3105, 192937280.000000, 1475.000000, 8252.000000, 8205.000000, 8230.000000
3106, 192937440.000000, 1467.000000, 8221.000000, 8194.000000, 8208.000000
3107, 192937600.000000, 1455.000000, 8190.000000, 8197.000000, 8199.000000
3108, 192937760.000000, 1437.500000, 8171.000000, 8198.000000, 8193.000000
3109, 192937920.000000, 1415.000000, 8163.000000, 8195.000000, 8185.000000
3110, 192938080.000000, 1384.000000, 8166.000000, 8189.000000, 8179.000000
3111, 192938240.000000, 1349.000000, 8171.000000, 8188.000000, 8179.000000
3112, 192938400.000000, 1311.500000, 8177.000000, 8193.000000, 8188.000000
3113, 192938560.000000, 1271.000000, 8182.000000, 8196.000000, 8193.000000
3114, 192938720.000000, 1228.000000, 8183.000000, 8192.000000, 8189.000000
3115, 192938880.000000, 1182.000000, 8183.000000, 8185.000000, 8180.000000
3116, 192939040.000000, 1159.500000, 8182.000000, 8180.000000, 8173.000000
3117, 192939200.000000, 1243.000000, 8183.000000, 8182.000000, 8177.000000
3118, 192939360.000000, 1529.000000, 8182.000000, 8186.000000, 8181.000000
3119, 192939520.000000, 1953.000000, 8182.000000, 8183.000000, 8178.000000
3120, 192939680.000000, 2345.000000, 8182.000000, 8177.000000, 8172.000000
3121, 192939840.000000, 2585.000000, 8183.000000, 8175.000000, 8170.000000
3122, 192940000.000000, 2639.500000, 8183.000000, 8179.000000, 8174.000000
3123, 192940160.000000, 2567.000000, 8185.000000, 8185.000000, 8182.000000
3124, 192940320.000000, 2433.500000, 8193.000000, 8205.000000, 8217.000000
3125, 192940480.000000, 2294.000000, 8205.000000, 8206.000000, 8224.000000
3126, 192940640.000000, 2174.500000, 8203.000000, 8184.000000, 8190.000000
3127, 192940800.000000, 2079.000000, 8184.000000, 8175.000000, 8169.000000
3128, 192940960.000000, 1988.000000, 8180.000000, 8176.000000, 8169.000000
3129, 192941120.000000, 1914.000000, 8179.000000, 8174.000000, 8165.000000
3130, 192941280.000000, 1880.500000, 8185.000000, 8166.000000, 8153.000000
3131, 192941440.000000, 1900.000000, 8283.000000, 8173.000000, 8223.000000
3132, 192941600.000000, 1943.500000, 8285.000000, 7870.000000, 7909.000000
3133, 192941760.000000, 1982.000000, 8151.000000, 8126.000000, 8084.000000
3134, 192941920.000000, 1993.000000, 8190.000000, 8214.000000, 8214.000000
3135, 192942080.000000, 1973.000000, 8195.000000, 8218.000000, 8219.000000
3136, 192942240.000000, 1921.000000, 8199.000000, 8220.000000, 8222.000000
3137, 192942400.000000, 1851.000000, 8206.000000, 8226.000000, 8232.000000
3138, 192942560.000000, 1771.500000, 8211.000000, 8233.000000, 8241.000000
3139, 192942720.000000, 1696.000000, 8217.000000, 8234.000000, 8246.000000
3140, 192942880.000000, 1634.000000, 8224.000000, 8233.000000, 8247.000000
3141, 192943040.000000, 1584.000000, 8233.000000, 8235.000000, 8253.000000
3142, 192943200.000000, 1543.500000, 8244.000000, 8242.000000, 8266.000000
3143, 192943360.000000, 1518.000000, 8253.000000, 8244.000000, 8272.000000
3144, 192943520.000000, 1501.500000, 8256.000000, 8232.000000, 8262.000000
3145, 192943680.000000, 1493.000000, 8244.000000, 8213.000000, 8239.000000
3146, 192943840.000000, 1486.000000, 8209.000000, 8203.000000, 8215.000000
3147, 192944000.000000, 1479.000000, 8180.000000, 8200.000000, 8199.000000
3148, 192944160.000000, 1470.000000, 8166.000000, 8199.000000, 8191.000000
3149, 192944320.000000, 1458.000000, 8162.000000, 8194.000000, 8183.000000
3150, 192944480.000000, 1438.500000, 8162.000000, 8189.000000, 8178.000000
3151, 192944640.000000, 1417.000000, 8166.000000, 8190.000000, 8180.000000
3152, 192944800.000000, 1390.500000, 8168.000000, 8195.000000, 8186.000000
3153, 192944960.000000, 1364.000000, 8172.000000, 8199.000000, 8193.000000
3154, 192945120.000000, 1329.000000, 8174.000000, 8194.000000, 8189.000000
3155, 192945280.000000, 1294.000000, 8174.000000, 8187.000000, 8180.000000
3156, 192945440.000000, 1305.500000, 8175.000000, 8184.000000, 8176.000000
3157, 192945600.000000, 1470.000000, 8174.000000, 8187.000000, 8180.000000
3158, 192945760.000000, 1851.000000, 8173.000000, 8189.000000, 8180.000000
3159, 192945920.000000, 2334.000000, 8173.000000, 8186.000000, 8177.000000
3160, 192946080.000000, 2724.000000, 8172.000000, 8180.000000, 8170.000000
3161, 192946240.000000, 2932.000000, 8174.000000, 8179.000000, 8170.000000
3162, 192946400.000000, 2956.500000, 8175.000000, 8184.000000, 8176.000000
3163, 192946560.000000, 2877.000000, 8175.000000, 8188.000000, 8180.000000
3164, 192946720.000000, 2756.500000, 8180.000000, 8197.000000, 8198.000000
3165, 192946880.000000, 2642.000000, 8188.000000, 8208.000000, 8220.000000
3166, 192947040.000000, 2553.500000, 8199.000000, 8203.000000, 8211.000000
3167, 192947200.000000, 2479.000000, 8191.000000, 8188.000000, 8188.000000
3168, 192947360.000000, 2403.500000, 8172.000000, 8179.000000, 8169.000000
3169, 192947520.000000, 2331.000000, 8170.000000, 8176.000000, 8163.000000
3170, 192947680.000000, 2290.000000, 8173.000000, 8171.000000, 8158.000000
3171, 192947840.000000, 2293.000000, 8199.000000, 8191.000000, 8185.000000
3172, 192948000.000000, 2321.000000, 8357.000000, 7960.000000, 8053.000000
3173, 192948160.000000, 2349.000000, 8087.000000, 7978.000000, 7907.000000
3174, 192948320.000000, 2355.000000, 8182.000000, 8201.000000, 8194.000000
3175, 192948480.000000, 2334.000000, 8185.000000, 8217.000000, 8214.000000
3176, 192948640.000000, 2282.500000, 8191.000000, 8221.000000, 8221.000000
3177, 192948800.000000, 2210.000000, 8196.000000, 8229.000000, 8231.000000
3178, 192948960.000000, 2123.000000, 8202.000000, 8234.000000, 8238.000000
3179, 192949120.000000, 2037.000000, 8209.000000, 8234.000000, 8242.000000
3180, 192949280.000000, 1960.500000, 8215.000000, 8232.000000, 8242.000000
3181, 192949440.000000, 1892.000000, 8223.000000, 8235.000000, 8249.000000
3182, 192949600.000000, 1834.500000, 8233.000000, 8243.000000, 8263.000000
3183, 192949760.000000, 1789.000000, 8242.000000, 8246.000000, 8270.000000
3184, 192949920.000000, 1755.500000, 8251.000000, 8238.000000, 8266.000000
3185, 192950080.000000, 1732.000000, 8250.000000, 8223.000000, 8251.000000
3186, 192950240.000000, 1714.000000, 8228.000000, 8210.000000, 8231.000000
3187, 192950400.000000, 1697.000000, 8192.000000, 8206.000000, 8211.000000
3188, 192950560.000000, 1681.500000, 8169.000000, 8203.000000, 8197.000000
3189, 192950720.000000, 1658.000000, 8158.000000, 8195.000000, 8182.000000
3190, 192950880.000000, 1628.000000, 8156.000000, 8190.000000, 8175.000000
3191, 192951040.000000, 1593.000000, 8161.000000, 8190.000000, 8177.000000
3192, 192951200.000000, 1555.500000, 8166.000000, 8196.000000, 8186.000000
3193, 192951360.000000, 1516.000000, 8169.000000, 8200.000000, 8192.000000
3194, 192951520.000000, 1474.500000, 8170.000000, 8195.000000, 8186.000000
3195, 192951680.000000, 1429.000000, 8169.000000, 8189.000000, 8179.000000
3196, 192951840.000000, 1398.500000, 8173.000000, 8186.000000, 8177.000000
3197, 192952000.000000, 1459.000000, 8173.000000, 8188.000000, 8179.000000
3198, 192952160.000000, 1740.500000, 8173.000000, 8191.000000, 8182.000000
3199, 192952320.000000, 2201.000000, 8171.000000, 8187.000000, 8178.000000
3200, 192952480.000000, 2678.500000, 8171.000000, 8181.000000, 8170.000000
3201, 192952640.000000, 3014.000000, 8173.000000, 8181.000000, 8170.000000
3202, 192952800.000000, 3137.500000, 8173.000000, 8185.000000, 8176.000000
3203, 192952960.000000, 3107.000000, 8175.000000, 8189.000000, 8181.000000
3204, 192953120.000000, 2995.500000, 8175.000000, 8186.000000, 8178.000000
3205, 192953280.000000, 2867.000000, 8174.000000, 8181.000000, 8172.000000
3206, 192953440.000000, 2760.000000, 8183.000000, 8198.000000, 8203.000000
3207, 192953600.000000, 2683.000000, 8190.000000, 8208.000000, 8216.000000
3208, 192953760.000000, 2607.000000, 8194.000000, 8199.000000, 8201.000000
3209, 192953920.000000, 2525.000000, 8178.000000, 8183.000000, 8175.000000
3210, 192954080.000000, 2450.000000, 8171.000000, 8173.000000, 8160.000000
3211, 192954240.000000, 2420.000000, 8171.000000, 8173.000000, 8160.000000
3212, 192954400.000000, 2433.000000, 8172.000000, 8177.000000, 8163.000000
3213, 192954560.000000, 2464.000000, 8251.000000, 8211.000000, 8239.000000
3214, 192954720.000000, 2481.000000, 8374.000000, 7891.000000, 7977.000000
3215, 192954880.000000, 2475.000000, 8117.000000, 8069.000000, 8004.000000
3216, 192955040.000000, 2435.000000, 8183.000000, 8207.000000, 8202.000000
3217, 192955200.000000, 2367.000000, 8187.000000, 8224.000000, 8222.000000
3218, 192955360.000000, 2281.000000, 8192.000000, 8230.000000, 8231.000000
3219, 192955520.000000, 2188.000000, 8196.000000, 8229.000000, 8231.000000
3220, 192955680.000000, 2099.000000, 8201.000000, 8226.000000, 8229.000000
3221, 192955840.000000, 2019.000000, 8209.000000, 8229.000000, 8237.000000
3222, 192956000.000000, 1954.500000, 8219.000000, 8237.000000, 8250.000000
3223, 192956160.000000, 1907.000000, 8227.000000, 8243.000000, 8259.000000
3224, 192956320.000000, 1876.500000, 8236.000000, 8241.000000, 8261.000000
3225, 192956480.000000, 1852.000000, 8246.000000, 8233.000000, 8256.000000
3226, 192956640.000000, 1830.500000, 8253.000000, 8227.000000, 8253.000000
3227, 192956800.000000, 1809.000000, 8246.000000, 8222.000000, 8249.000000
3228, 192956960.000000, 1782.000000, 8217.000000, 8215.000000, 8231.000000
3229, 192957120.000000, 1752.000000, 8181.000000, 8205.000000, 8205.000000
3230, 192957280.000000, 1718.500000, 8161.000000, 8194.000000, 8183.000000
3231, 192957440.000000, 1679.000000, 8155.000000, 8192.000000, 8177.000000
3232, 192957600.000000, 1639.500000, 8158.000000, 8196.000000, 8183.000000
3233, 192957760.000000, 1597.000000, 8159.000000, 8200.000000, 8189.000000
3234, 192957920.000000, 1557.500000, 8162.000000, 8197.000000, 8186.000000
3235, 192958080.000000, 1520.000000, 8166.000000, 8190.000000, 8180.000000
3236, 192958240.000000, 1479.500000, 8170.000000, 8190.000000, 8181.000000
3237, 192958400.000000, 1434.000000, 8171.000000, 8193.000000, 8186.000000
3238, 192958560.000000, 1404.000000, 8170.000000, 8193.000000, 8184.000000
3239, 192958720.000000, 1474.000000, 8169.000000, 8187.000000, 8177.000000
3240, 192958880.000000, 1773.000000, 8169.000000, 8182.000000, 8172.000000
3241, 192959040.000000, 2241.000000, 8168.000000, 8180.000000, 8169.000000
3242, 192959200.000000, 2717.000000, 8169.000000, 8185.000000, 8175.000000
3243, 192959360.000000, 3032.000000, 8172.000000, 8187.000000, 8179.000000
3244, 192959520.000000, 3143.500000, 8170.000000, 8184.000000, 8175.000000
3245, 192959680.000000, 3105.000000, 8170.000000, 8179.000000, 8168.000000
3246, 192959840.000000, 2987.500000, 8181.000000, 8196.000000, 8200.000000
3247, 192960000.000000, 2855.000000, 8191.000000, 8209.000000, 8221.000000
3248, 192960160.000000, 2746.000000, 8191.000000, 8194.000000, 8196.000000
3249, 192960320.000000, 2660.000000, 8175.000000, 8179.000000, 8171.000000
3250, 192960480.000000, 2575.000000, 8169.000000, 8170.000000, 8158.000000
3251, 192960640.000000, 2480.000000, 8170.000000, 8171.000000, 8158.000000
3252, 192960800.000000, 2410.000000, 8175.000000, 8174.000000, 8162.000000
3253, 192960960.000000, 2391.000000, 8279.000000, 8221.000000, 8272.000000
3254, 192961120.000000, 2408.500000, 8308.000000, 7927.000000, 7985.000000
3255, 192961280.000000, 2436.000000, 8129.000000, 8091.000000, 8038.000000
3256, 192961440.000000, 2444.500000, 8185.000000, 8201.000000, 8198.000000
3257, 192961600.000000, 2423.000000, 8187.000000, 8217.000000, 8215.000000
3258, 192961760.000000, 2369.500000, 8192.000000, 8223.000000, 8224.000000
3259, 192961920.000000, 2288.000000, 8198.000000, 8220.000000, 8223.000000
3260, 192962080.000000, 2193.000000, 8206.000000, 8219.000000, 8225.000000
3261, 192962240.000000, 2095.000000, 8215.000000, 8223.000000, 8231.000000
3262, 192962400.000000, 2008.000000, 8222.000000, 8232.000000, 8245.000000
3263, 192962560.000000, 1929.000000, 8232.000000, 8238.000000, 8256.000000
3264, 192962720.000000, 1862.500000, 8243.000000, 8235.000000, 8256.000000
3265, 192962880.000000, 1809.000000, 8253.000000, 8225.000000, 8249.000000
3266, 192963040.000000, 1768.000000, 8260.000000, 8216.000000, 8244.000000
3267, 192963200.000000, 1739.000000, 8249.000000, 8208.000000, 8233.000000
3268, 192963360.000000, 1715.000000, 8210.000000, 8205.000000, 8218.000000
3269, 192963520.000000, 1692.000000, 8175.000000, 8199.000000, 8197.000000
3270, 192963680.000000, 1670.000000, 8159.000000, 8191.000000, 8180.000000
3271, 192963840.000000, 1643.000000, 8154.000000, 8191.000000, 8177.000000
3272, 192964000.000000, 1605.500000, 8157.000000, 8196.000000, 8184.000000
3273, 192964160.000000, 1563.000000, 8161.000000, 8200.000000, 8189.000000
3274, 192964320.000000, 1513.500000, 8166.000000, 8196.000000, 8188.000000
3275, 192964480.000000, 1459.000000, 8171.000000, 8192.000000, 8185.000000
3276, 192964640.000000, 1399.500000, 8173.000000, 8191.000000, 8184.000000
3277, 192964800.000000, 1337.000000, 8172.000000, 8193.000000, 8185.000000
3278, 192964960.000000, 1290.500000, 8170.000000, 8193.000000, 8184.000000
3279, 192965120.000000, 1310.000000, 8170.000000, 8186.000000, 8177.000000
3280, 192965280.000000, 1522.000000, 8168.000000, 8179.000000, 8168.000000
3281, 192965440.000000, 1913.000000, 8169.000000, 8181.000000, 8171.000000
3282, 192965600.000000, 2376.000000, 8169.000000, 8186.000000, 8176.000000
3283, 192965760.000000, 2730.000000, 8169.000000, 8187.000000, 8177.000000
3284, 192965920.000000, 2901.500000, 8169.000000, 8183.000000, 8173.000000
3285, 192966080.000000, 2917.000000, 8173.000000, 8187.000000, 8182.000000
3286, 192966240.000000, 2831.000000, 8182.000000, 8208.000000, 8218.000000
3287, 192966400.000000, 2710.000000, 8195.000000, 8212.000000, 8223.000000
3288, 192966560.000000, 2595.000000, 8187.000000, 8193.000000, 8193.000000
3289, 192966720.000000, 2496.000000, 8167.000000, 8175.000000, 8162.000000
3290, 192966880.000000, 2395.000000, 8166.000000, 8169.000000, 8155.000000
3291, 192967040.000000, 2296.000000, 8169.000000, 8171.000000, 8157.000000
3292, 192967200.000000, 2228.500000, 8188.000000, 8189.000000, 8178.000000
3293, 192967360.000000, 2213.000000, 8344.000000, 8014.000000, 8104.000000
3294, 192967520.000000, 2240.500000, 8089.000000, 7949.000000, 7884.000000
3295, 192967680.000000, 2279.000000, 8173.000000, 8183.000000, 8168.000000
3296, 192967840.000000, 2299.500000, 8183.000000, 8214.000000, 8211.000000
3297, 192968000.000000, 2291.000000, 8188.000000, 8225.000000, 8225.000000
3298, 192968160.000000, 2247.000000, 8193.000000, 8229.000000, 8229.000000
3299, 192968320.000000, 2173.000000, 8198.000000, 8227.000000, 8230.000000
3300, 192968480.000000, 2082.500000, 8206.000000, 8225.000000, 8231.000000
3301, 192968640.000000, 1989.000000, 8215.000000, 8231.000000, 8243.000000
3302, 192968800.000000, 1902.500000, 8223.000000, 8239.000000, 8253.000000
3303, 192968960.000000, 1825.000000, 8233.000000, 8245.000000, 8265.000000
3304, 192969120.000000, 1760.000000, 8244.000000, 8240.000000, 8264.000000
3305, 192969280.000000, 1707.000000, 8252.000000, 8230.000000, 8257.000000
3306, 192969440.000000, 1667.000000, 8252.000000, 8222.000000, 8251.000000
3307, 192969600.000000, 1641.000000, 8231.000000, 8214.000000, 8237.000000
3308, 192969760.000000, 1622.500000, 8191.000000, 8209.000000, 8215.000000
3309, 192969920.000000, 1606.000000, 8167.000000, 8197.000000, 8190.000000
3310, 192970080.000000, 1584.000000, 8159.000000, 8188.000000, 8175.000000
3311, 192970240.000000, 1560.000000, 8157.000000, 8190.000000, 8176.000000
3312, 192970400.000000, 1529.500000, 8160.000000, 8196.000000, 8184.000000
3313, 192970560.000000, 1495.000000, 8163.000000, 8199.000000, 8189.000000
3314, 192970720.000000, 1455.500000, 8165.000000, 8194.000000, 8185.000000
3315, 192970880.000000, 1407.000000, 8170.000000, 8189.000000, 8180.000000
3316, 192971040.000000, 1357.000000, 8172.000000, 8189.000000, 8181.000000
3317, 192971200.000000, 1304.000000, 8172.000000, 8191.000000, 8183.000000
3318, 192971360.000000, 1304.000000, 8170.000000, 8191.000000, 8182.000000
3319, 192971520.000000, 1447.000000, 8169.000000, 8184.000000, 8174.000000
3320, 192971680.000000, 1843.500000, 8169.000000, 8180.000000, 8168.000000
3321, 192971840.000000, 2367.000000, 8170.000000, 8181.000000, 8170.000000
3322, 192972000.000000, 2852.500000, 8170.000000, 8186.000000, 8175.000000
3323, 192972160.000000, 3150.000000, 8171.000000, 8187.000000, 8178.000000
3324, 192972320.000000, 3253.500000, 8172.000000, 8182.000000, 8172.000000
3325, 192972480.000000, 3221.000000, 8172.000000, 8179.000000, 8169.000000
3326, 192972640.000000, 3118.500000, 8174.000000, 8181.000000, 8172.000000
3327, 192972800.000000, 3007.000000, 8182.000000, 8205.000000, 8211.000000
3328, 192972960.000000, 2917.500000, 8189.000000, 8210.000000, 8219.000000
3329, 192973120.000000, 2837.000000, 8191.000000, 8192.000000, 8192.000000
3330, 192973280.000000, 2740.500000, 8177.000000, 8176.000000, 8167.000000
3331, 192973440.000000, 2637.000000, 8170.000000, 8174.000000, 8161.000000
3332, 192973600.000000, 2568.000000, 8170.000000, 8178.000000, 8165.000000
3333, 192973760.000000, 2549.000000, 8171.000000, 8179.000000, 8166.000000
3334, 192973920.000000, 2561.500000, 8249.000000, 8196.000000, 8223.000000
3335, 192974080.000000, 2579.000000, 8364.000000, 7864.000000, 7944.000000
3336, 192974240.000000, 2573.500000, 8122.000000, 8080.000000, 8017.000000
3337, 192974400.000000, 2536.000000, 8185.000000, 8216.000000, 8216.000000
3338, 192974560.000000, 2467.000000, 8185.000000, 8228.000000, 8228.000000
3339, 192974720.000000, 2371.000000, 8191.000000, 8226.000000, 8228.000000
3340, 192974880.000000, 2258.000000, 8198.000000, 8224.000000, 8227.000000
3341, 192975040.000000, 2145.000000, 8206.000000, 8228.000000, 8236.000000
3342, 192975200.000000, 2042.500000, 8211.000000, 8236.000000, 8246.000000
3343, 192975360.000000, 1952.000000, 8217.000000, 8240.000000, 8252.000000
3344, 192975520.000000, 1878.000000, 8225.000000, 8239.000000, 8254.000000
3345, 192975680.000000, 1816.000000, 8236.000000, 8237.000000, 8257.000000
3346, 192975840.000000, 1768.000000, 8247.000000, 8239.000000, 8265.000000
3347, 192976000.000000, 1729.000000, 8252.000000, 8237.000000, 8266.000000
3348, 192976160.000000, 1700.000000, 8246.000000, 8228.000000, 8257.000000
3349, 192976320.000000, 1673.000000, 8216.000000, 8211.000000, 8226.000000
3350, 192976480.000000, 1640.000000, 8180.000000, 8199.000000, 8198.000000
3351, 192976640.000000, 1601.000000, 8163.000000, 8196.000000, 8186.000000
3352, 192976800.000000, 1553.500000, 8158.000000, 8197.000000, 8184.000000
3353, 192976960.000000, 1503.000000, 8158.000000, 8198.000000, 8185.000000
3354, 192977120.000000, 1452.000000, 8160.000000, 8195.000000, 8183.000000
3355, 192977280.000000, 1399.000000, 8163.000000, 8191.000000, 8179.000000
3356, 192977440.000000, 1348.500000, 8166.000000, 8193.000000, 8183.000000
3357, 192977600.000000, 1301.000000, 8169.000000, 8198.000000, 8190.000000
3358, 192977760.000000, 1253.000000, 8170.000000, 8196.000000, 8187.000000
3359, 192977920.000000, 1209.000000, 8169.000000, 8189.000000, 8179.000000
3360, 192978080.000000, 1325.500000, 8171.000000, 8183.000000, 8174.000000
3361, 192978240.000000, 1714.000000, 8170.000000, 8183.000000, 8172.000000
3362, 192978400.000000, 2272.000000, 8169.000000, 8189.000000, 8179.000000
3363, 192978560.000000, 2820.000000, 8169.000000, 8188.000000, 8178.000000
3364, 192978720.000000, 3178.500000, 8170.000000, 8183.000000, 8172.000000
3365, 192978880.000000, 3336.000000, 8171.000000, 8180.000000, 8169.000000
3366, 192979040.000000, 3318.000000, 8171.000000, 8182.000000, 8171.000000
3367, 192979200.000000, 3190.000000, 8173.000000, 8187.000000, 8178.000000
3368, 192979360.000000, 3026.000000, 8174.000000, 8188.000000, 8181.000000
3369, 192979520.000000, 2907.000000, 8175.000000, 8189.000000, 8183.000000
3370, 192979680.000000, 2805.500000, 8184.000000, 8199.000000, 8203.000000
3371, 192979840.000000, 2688.000000, 8194.000000, 8199.000000, 8203.000000
3372, 192980000.000000, 2605.500000, 8188.000000, 8191.000000, 8191.000000
3373, 192980160.000000, 2574.000000, 8170.000000, 8181.000000, 8170.000000
3374, 192980320.000000, 2577.500000, 8170.000000, 8177.000000, 8164.000000
3375, 192980480.000000, 2582.000000, 8171.000000, 8174.000000, 8163.000000
3376, 192980640.000000, 2567.500000, 8192.000000, 8193.000000, 8186.000000
3377, 192980800.000000, 2522.000000, 8362.000000, 8060.000000, 8156.000000
3378, 192980960.000000, 2442.500000, 8100.000000, 7975.000000, 7923.000000
3379, 192981120.000000, 2336.000000, 8172.000000, 8181.000000, 8165.000000
3380, 192981280.000000, 2215.000000, 8185.000000, 8212.000000, 8209.000000
3381, 192981440.000000, 2091.000000, 8190.000000, 8220.000000, 8220.000000
3382, 192981600.000000, 1982.000000, 8196.000000, 8227.000000, 8229.000000
3383, 192981760.000000, 1887.000000, 8201.000000, 8230.000000, 8235.000000
3384, 192981920.000000, 1808.500000, 8207.000000, 8227.000000, 8234.000000
3385, 192982080.000000, 1739.000000, 8215.000000, 8227.000000, 8237.000000
3386, 192982240.000000, 1683.000000, 8225.000000, 8231.000000, 8244.000000
3387, 192982400.000000, 1638.000000, 8236.000000, 8239.000000, 8259.000000
3388, 192982560.000000, 1600.500000, 8246.000000, 8239.000000, 8262.000000
3389, 192982720.000000, 1566.000000, 8255.000000, 8227.000000, 8252.000000
3390, 192982880.000000, 1531.000000, 8256.000000, 8215.000000, 8241.000000
3391, 192983040.000000, 1495.000000, 8235.000000, 8207.000000, 8227.000000
3392, 192983200.000000, 1448.500000, 8196.000000, 8208.000000, 8214.000000
3393, 192983360.000000, 1397.000000, 8168.000000, 8202.000000, 8197.000000
3394, 192983520.000000, 1339.500000, 8155.000000, 8192.000000, 8179.000000
3395, 192983680.000000, 1282.000000, 8154.000000, 8188.000000, 8174.000000
3396, 192983840.000000, 1227.500000, 8157.000000, 8192.000000, 8180.000000
3397, 192984000.000000, 1171.000000, 8162.000000, 8198.000000, 8189.000000
3398, 192984160.000000, 1114.000000, 8164.000000, 8199.000000, 8190.000000
3399, 192984320.000000, 1055.000000, 8170.000000, 8191.000000, 8184.000000
3400, 192984480.000000, 997.500000, 8171.000000, 8186.000000, 8179.000000
3401, 192984640.000000, 1013.000000, 8172.000000, 8187.000000, 8179.000000
3402, 192984800.000000, 1221.000000, 8172.000000, 8189.000000, 8181.000000
3403, 192984960.000000, 1664.000000, 8170.000000, 8187.000000, 8178.000000
3404, 192985120.000000, 2209.500000, 8169.000000, 8180.000000, 8170.000000
3405, 192985280.000000, 2668.000000, 8169.000000, 8176.000000, 8166.000000
3406, 192985440.000000, 2909.500000, 8170.000000, 8179.000000, 8168.000000
3407, 192985600.000000, 2964.000000, 8172.000000, 8185.000000, 8177.000000
3408, 192985760.000000, 2872.500000, 8171.000000, 8185.000000, 8176.000000
3409, 192985920.000000, 2731.000000, 8177.000000, 8187.000000, 8184.000000
3410, 192986080.000000, 2592.500000, 8184.000000, 8201.000000, 8209.000000
3411, 192986240.000000, 2478.000000, 8197.000000, 8202.000000, 8210.000000
3412, 192986400.000000, 2371.000000, 8190.000000, 8189.000000, 8189.000000
3413, 192986560.000000, 2254.000000, 8169.000000, 8178.000000, 8166.000000
3414, 192986720.000000, 2150.500000, 8169.000000, 8171.000000, 8159.000000
3415, 192986880.000000, 2092.000000, 8171.000000, 8170.000000, 8157.000000
3416, 192987040.000000, 2089.500000, 8193.000000, 8194.000000, 8188.000000
3417, 192987200.000000, 2109.000000, 8348.000000, 8023.000000, 8114.000000
3418, 192987360.000000, 2122.000000, 8093.000000, 7970.000000, 7913.000000
3419, 192987520.000000, 2108.000000, 8172.000000, 8182.000000, 8166.000000
3420, 192987680.000000, 2056.500000, 8184.000000, 8210.000000, 8206.000000
3421, 192987840.000000, 1969.000000, 8191.000000, 8220.000000, 8220.000000
3422, 192988000.000000, 1856.500000, 8197.000000, 8228.000000, 8230.000000
3423, 192988160.000000, 1734.000000, 8200.000000, 8230.000000, 8234.000000
3424, 192988320.000000, 1619.500000, 8208.000000, 8228.000000, 8234.000000
3425, 192988480.000000, 1515.000000, 8216.000000, 8227.000000, 8238.000000
3426, 192988640.000000, 1425.000000, 8225.000000, 8235.000000, 8250.000000
3427, 192988800.000000, 1352.000000, 8237.000000, 8243.000000, 8264.000000
3428, 192988960.000000, 1294.500000, 8247.000000, 8242.000000, 8266.000000
3429, 192989120.000000, 1249.000000, 8256.000000, 8230.000000, 8258.000000
3430, 192989280.000000, 1210.000000, 8256.000000, 8216.000000, 8244.000000
3431, 192989440.000000, 1179.000000, 8232.000000, 8206.000000, 8226.000000
3432, 192989600.000000, 1148.500000, 8191.000000, 8207.000000, 8213.000000
3433, 192989760.000000, 1113.000000, 8165.000000, 8200.000000, 8193.000000
3434, 192989920.000000, 1075.000000, 8155.000000, 8191.000000, 8176.000000
3435, 192990080.000000, 1030.000000, 8153.000000, 8188.000000, 8173.000000
3436, 192990240.000000, 979.000000, 8157.000000, 8192.000000, 8178.000000
3437, 192990400.000000, 920.000000, 8162.000000, 8198.000000, 8187.000000
3438, 192990560.000000, 857.500000, 8165.000000, 8197.000000, 8188.000000
3439, 192990720.000000, 794.000000, 8168.000000, 8191.000000, 8182.000000
3440, 192990880.000000, 731.000000, 8169.000000, 8186.000000, 8176.000000
3441, 192991040.000000, 722.000000, 8172.000000, 8188.000000, 8178.000000
3442, 192991200.000000, 880.500000, 8171.000000, 8191.000000, 8182.000000
3443, 192991360.000000, 1276.000000, 8170.000000, 8188.000000, 8177.000000
3444, 192991520.000000, 1809.000000, 8170.000000, 8182.000000, 8171.000000
3445, 192991680.000000, 2287.000000, 8171.000000, 8178.000000, 8167.000000
3446, 192991840.000000, 2567.000000, 8171.000000, 8182.000000, 8171.000000
3447, 192992000.000000, 2660.000000, 8173.000000, 8187.000000, 8178.000000
3448, 192992160.000000, 2599.000000, 8173.000000, 8185.000000, 8176.000000
3449, 192992320.000000, 2476.000000, 8177.000000, 8190.000000, 8187.000000
3450, 192992480.000000, 2346.000000, 8187.000000, 8208.000000, 8220.000000
3451, 192992640.000000, 2236.000000, 8200.000000, 8209.000000, 8221.000000
3452, 192992800.000000, 2135.500000, 8194.000000, 8193.000000, 8197.000000
3453, 192992960.000000, 2028.000000, 8170.000000, 8178.000000, 8165.000000
3454, 192993120.000000, 1929.000000, 8171.000000, 8171.000000, 8158.000000
3455, 192993280.000000, 1871.000000, 8171.000000, 8169.000000, 8156.000000
3456, 192993440.000000, 1870.500000, 8191.000000, 8184.000000, 8171.000000
3457, 192993600.000000, 1898.000000, 8343.000000, 8003.000000, 8089.000000
3458, 192993760.000000, 1931.000000, 8091.000000, 7949.000000, 7881.000000
3459, 192993920.000000, 1939.000000, 8178.000000, 8188.000000, 8176.000000
3460, 192994080.000000, 1912.500000, 8184.000000, 8214.000000, 8210.000000
3461, 192994240.000000, 1848.000000, 8190.000000, 8223.000000, 8221.000000
3462, 192994400.000000, 1752.500000, 8196.000000, 8229.000000, 8229.000000
3463, 192994560.000000, 1643.000000, 8202.000000, 8232.000000, 8236.000000
3464, 192994720.000000, 1537.500000, 8208.000000, 8229.000000, 8235.000000
3465, 192994880.000000, 1445.000000, 8215.000000, 8230.000000, 8240.000000
3466, 192995040.000000, 1366.000000, 8225.000000, 8237.000000, 8252.000000
3467, 192995200.000000, 1303.000000, 8233.000000, 8245.000000, 8265.000000
3468, 192995360.000000, 1258.500000, 8245.000000, 8245.000000, 8271.000000
3469, 192995520.000000, 1227.000000, 8253.000000, 8234.000000, 8262.000000
3470, 192995680.000000, 1203.500000, 8254.000000, 8223.000000, 8253.000000
3471, 192995840.000000, 1184.000000, 8235.000000, 8214.000000, 8238.000000
3472, 192996000.000000, 1165.500000, 8195.000000, 8211.000000, 8218.000000
3473, 192996160.000000, 1141.000000, 8169.000000, 8202.000000, 8196.000000
3474, 192996320.000000, 1115.000000, 8160.000000, 8192.000000, 8180.000000
3475, 192996480.000000, 1081.000000, 8159.000000, 8188.000000, 8175.000000
3476, 192996640.000000, 1047.500000, 8162.000000, 8193.000000, 8182.000000
3477, 192996800.000000, 1012.000000, 8165.000000, 8199.000000, 8190.000000
3478, 192996960.000000, 971.500000, 8167.000000, 8198.000000, 8189.000000
3479, 192997120.000000, 932.000000, 8168.000000, 8191.000000, 8182.000000
3480, 192997280.000000, 885.500000, 8169.000000, 8187.000000, 8177.000000
3481, 192997440.000000, 891.000000, 8174.000000, 8188.000000, 8181.000000
3482, 192997600.000000, 1068.500000, 8172.000000, 8192.000000, 8184.000000
3483, 192997760.000000, 1488.000000, 8172.000000, 8189.000000, 8181.000000
3484, 192997920.000000, 2039.500000, 8169.000000, 8182.000000, 8170.000000
3485, 192998080.000000, 2524.000000, 8171.000000, 8180.000000, 8169.000000
3486, 192998240.000000, 2795.000000, 8173.000000, 8183.000000, 8174.000000
3487, 192998400.000000, 2879.000000, 8172.000000, 8188.000000, 8178.000000
3488, 192998560.000000, 2819.500000, 8174.000000, 8187.000000, 8178.000000
3489, 192998720.000000, 2698.000000, 8174.000000, 8182.000000, 8173.000000
3490, 192998880.000000, 2567.500000, 8185.000000, 8202.000000, 8210.000000
3491, 192999040.000000, 2461.000000, 8197.000000, 8215.000000, 8233.000000
3492, 192999200.000000, 2365.000000, 8196.000000, 8199.000000, 8203.000000
3493, 192999360.000000, 2262.000000, 8176.000000, 8182.000000, 8173.000000
3494, 192999520.000000, 2162.000000, 8169.000000, 8172.000000, 8158.000000
3495, 192999680.000000, 2091.000000, 8170.000000, 8171.000000, 8156.000000
3496, 192999840.000000, 2076.000000, 8176.000000, 8170.000000, 8153.000000
3497, 193000000.000000, 2092.000000, 8275.000000, 8186.000000, 8234.000000
3498, 193000160.000000, 2114.500000, 8299.000000, 7870.000000, 7912.000000
3499, 193000320.000000, 2119.000000, 8140.000000, 8122.000000, 8071.000000
3500, 193000480.000000, 2093.000000, 8184.000000, 8210.000000, 8206.000000
3501, 193000640.000000, 2036.000000, 8187.000000, 8222.000000, 8220.000000
3502, 193000800.000000, 1949.000000, 8193.000000, 8229.000000, 8229.000000
3503, 193000960.000000, 1852.000000, 8197.000000, 8229.000000, 8231.000000
3504, 193001120.000000, 1752.000000, 8203.000000, 8227.000000, 8231.000000
3505, 193001280.000000, 1658.000000, 8212.000000, 8228.000000, 8236.000000
3506, 193001440.000000, 1579.000000, 8221.000000, 8234.000000, 8246.000000
3507, 193001600.000000, 1515.000000, 8230.000000, 8243.000000, 8261.000000
3508, 193001760.000000, 1465.000000, 8238.000000, 8243.000000, 8263.000000
3509, 193001920.000000, 1431.000000, 8248.000000, 8235.000000, 8259.000000
3510, 193002080.000000, 1409.000000, 8254.000000, 8227.000000, 8255.000000
3511, 193002240.000000, 1390.000000, 8245.000000, 8219.000000, 8245.000000
3512, 193002400.000000, 1371.500000, 8210.000000, 8214.000000, 8227.000000
3513, 193002560.000000, 1350.000000, 8176.000000, 8206.000000, 8203.000000
3514, 193002720.000000, 1323.500000, 8161.000000, 8194.000000, 8181.000000
3515, 193002880.000000, 1294.000000, 8157.000000, 8190.000000, 8176.000000
3516, 193003040.000000, 1263.000000, 8159.000000, 8195.000000, 8182.000000
3517, 193003200.000000, 1229.000000, 8162.000000, 8200.000000, 8189.000000
3518, 193003360.000000, 1192.500000, 8165.000000, 8198.000000, 8189.000000
3519, 193003520.000000, 1155.000000, 8167.000000, 8191.000000, 8180.000000
3520, 193003680.000000, 1105.000000, 8167.000000, 8188.000000, 8177.000000
3521, 193003840.000000, 1066.000000, 8170.000000, 8190.000000, 8181.000000
3522, 193004000.000000, 1115.000000, 8169.000000, 8191.000000, 8181.000000
3523, 193004160.000000, 1376.000000, 8170.000000, 8189.000000, 8180.000000
3524, 193004320.000000, 1850.000000, 8169.000000, 8182.000000, 8170.000000
3525, 193004480.000000, 2379.000000, 8169.000000, 8179.000000, 8167.000000
3526, 193004640.000000, 2764.000000, 8170.000000, 8183.000000, 8172.000000
3527, 193004800.000000, 2952.000000, 8171.000000, 8187.000000, 8178.000000
3528, 193004960.000000, 2946.500000, 8172.000000, 8189.000000, 8181.000000
3529, 193005120.000000, 2844.000000, 8180.000000, 8202.000000, 8207.000000
3530, 193005280.000000, 2703.000000, 8194.000000, 8208.000000, 8220.000000
3531, 193005440.000000, 2571.000000, 8191.000000, 8191.000000, 8193.000000
3532, 193005600.000000, 2461.500000, 8168.000000, 8179.000000, 8166.000000
3533, 193005760.000000, 2351.000000, 8168.000000, 8177.000000, 8164.000000
3534, 193005920.000000, 2238.000000, 8169.000000, 8171.000000, 8157.000000
3535, 193006080.000000, 2143.000000, 8183.000000, 8173.000000, 8158.000000
3536, 193006240.000000, 2107.500000, 8346.000000, 8131.000000, 8219.000000
3537, 193006400.000000, 2116.000000, 8113.000000, 7956.000000, 7917.000000
3538, 193006560.000000, 2148.500000, 8157.000000, 8158.000000, 8126.000000
3539, 193006720.000000, 2172.000000, 8182.000000, 8204.000000, 8197.000000
3540, 193006880.000000, 2161.500000, 8187.000000, 8209.000000, 8205.000000
3541, 193007040.000000, 2115.000000, 8192.000000, 8215.000000, 8212.000000
3542, 193007200.000000, 2030.500000, 8200.000000, 8223.000000, 8225.000000
3543, 193007360.000000, 1929.000000, 8207.000000, 8225.000000, 8230.000000
3544, 193007520.000000, 1822.000000, 8214.000000, 8223.000000, 8229.000000
3545, 193007680.000000, 1716.000000, 8224.000000, 8224.000000, 8236.000000
3546, 193007840.000000, 1620.500000, 8236.000000, 8232.000000, 8250.000000
3547, 193008000.000000, 1541.000000, 8246.000000, 8236.000000, 8257.000000
3548, 193008160.000000, 1475.500000, 8255.000000, 8227.000000, 8252.000000
3549, 193008320.000000, 1426.000000, 8257.000000, 8210.000000, 8236.000000
3550, 193008480.000000, 1387.500000, 8237.000000, 8198.000000, 8217.000000
3551, 193008640.000000, 1362.000000, 8196.000000, 8201.000000, 8207.000000
3552, 193008800.000000, 1340.000000, 8170.000000, 8203.000000, 8198.000000
3553, 193008960.000000, 1320.000000, 8157.000000, 8196.000000, 8184.000000
3554, 193009120.000000, 1295.000000, 8154.000000, 8191.000000, 8177.000000
3555, 193009280.000000, 1266.000000, 8159.000000, 8191.000000, 8178.000000
3556, 193009440.000000, 1227.000000, 8165.000000, 8196.000000, 8187.000000
3557, 193009600.000000, 1181.000000, 8168.000000, 8200.000000, 8193.000000
3558, 193009760.000000, 1129.000000, 8169.000000, 8197.000000, 8189.000000
3559, 193009920.000000, 1070.000000, 8170.000000, 8190.000000, 8181.000000
3560, 193010080.000000, 1021.000000, 8171.000000, 8186.000000, 8177.000000
3561, 193010240.000000, 1044.000000, 8170.000000, 8187.000000, 8176.000000
3562, 193010400.000000, 1245.000000, 8169.000000, 8190.000000, 8180.000000
3563, 193010560.000000, 1640.000000, 8169.000000, 8187.000000, 8177.000000
3564, 193010720.000000, 2107.000000, 8172.000000, 8181.000000, 8171.000000
3565, 193010880.000000, 2478.000000, 8172.000000, 8179.000000, 8169.000000
3566, 193011040.000000, 2656.000000, 8183.000000, 8208.000000, 8217.000000
3567, 193011200.000000, 2678.000000, 8199.000000, 8230.000000, 8254.000000
3568, 193011360.000000, 2583.500000, 8193.000000, 8200.000000, 8204.000000
3569, 193011520.000000, 2450.000000, 8171.000000, 8174.000000, 8163.000000
3570, 193011680.000000, 2317.500000, 8168.000000, 8167.000000, 8152.000000
3571, 193011840.000000, 2197.000000, 8168.000000, 8171.000000, 8156.000000
3572, 193012000.000000, 2080.000000, 8176.000000, 8170.000000, 8149.000000
3573, 193012160.000000, 1966.000000, 8293.000000, 8158.000000, 8220.000000
3574, 193012320.000000, 1893.000000, 8208.000000, 7875.000000, 7873.000000
3575, 193012480.000000, 1876.000000, 8150.000000, 8137.000000, 8096.000000
3576, 193012640.000000, 1908.500000, 8185.000000, 8212.000000, 8209.000000
3577, 193012800.000000, 1951.000000, 8188.000000, 8223.000000, 8220.000000
3578, 193012960.000000, 1977.500000, 8193.000000, 8224.000000, 8224.000000
3579, 193013120.000000, 1973.000000, 8200.000000, 8220.000000, 8222.000000
3580, 193013280.000000, 1927.500000, 8206.000000, 8222.000000, 8226.000000
3581, 193013440.000000, 1858.000000, 8214.000000, 8230.000000, 8238.000000
3582, 193013600.000000, 1767.000000, 8223.000000, 8239.000000, 8253.000000
3583, 193013760.000000, 1676.000000, 8231.000000, 8241.000000, 8258.000000
3584, 193013920.000000, 1592.500000, 8241.000000, 8236.000000, 8256.000000
3585, 193014080.000000, 1523.000000, 8252.000000, 8231.000000, 8258.000000
3586, 193014240.000000, 1463.500000, 8254.000000, 8226.000000, 8254.000000
3587, 193014400.000000, 1418.000000, 8239.000000, 8217.000000, 8243.000000
3588, 193014560.000000, 1383.000000, 8202.000000, 8208.000000, 8218.000000
3589, 193014720.000000, 1358.000000, 8173.000000, 8196.000000, 8191.000000
3590, 193014880.000000, 1342.500000, 8162.000000, 8190.000000, 8179.000000
3591, 193015040.000000, 1329.000000, 8160.000000, 8193.000000, 8181.000000
3592, 193015200.000000, 1320.000000, 8161.000000, 8198.000000, 8187.000000
3593, 193015360.000000, 1309.000000, 8165.000000, 8197.000000, 8188.000000
3594, 193015520.000000, 1292.500000, 8167.000000, 8192.000000, 8183.000000
3595, 193015680.000000, 1262.000000, 8171.000000, 8189.000000, 8182.000000
3596, 193015840.000000, 1217.000000, 8172.000000, 8192.000000, 8184.000000
3597, 193016000.000000, 1171.000000, 8173.000000, 8193.000000, 8186.000000
3598, 193016160.000000, 1202.500000, 8172.000000, 8189.000000, 8181.000000
3599, 193016320.000000, 1400.000000, 8169.000000, 8182.000000, 8172.000000
3600, 193016480.000000, 1831.000000, 8171.000000, 8180.000000, 8171.000000
3601, 193016640.000000, 2344.000000, 8173.000000, 8183.000000, 8174.000000
3602, 193016800.000000, 2765.000000, 8172.000000, 8188.000000, 8180.000000
3603, 193016960.000000, 2996.000000, 8185.000000, 8211.000000, 8223.000000
3604, 193017120.000000, 3049.500000, 8199.000000, 8224.000000, 8250.000000
3605, 193017280.000000, 2987.000000, 8196.000000, 8196.000000, 8202.000000
3606, 193017440.000000, 2878.500000, 8174.000000, 8178.000000, 8169.000000
3607, 193017600.000000, 2765.000000, 8167.000000, 8176.000000, 8161.000000
3608, 193017760.000000, 2667.500000, 8168.000000, 8174.000000, 8161.000000
3609, 193017920.000000, 2566.000000, 8173.000000, 8164.000000, 8145.000000
3610, 193018080.000000, 2457.000000, 8277.000000, 8168.000000, 8216.000000
3611, 193018240.000000, 2372.000000, 8270.000000, 7861.000000, 7890.000000
3612, 193018400.000000, 2340.500000, 8143.000000, 8133.000000, 8086.000000
3613, 193018560.000000, 2357.000000, 8183.000000, 8214.000000, 8211.000000
3614, 193018720.000000, 2392.500000, 8185.000000, 8217.000000, 8212.000000
3615, 193018880.000000, 2417.000000, 8190.000000, 8218.000000, 8214.000000
3616, 193019040.000000, 2413.500000, 8197.000000, 8224.000000, 8224.000000
3617, 193019200.000000, 2371.000000, 8205.000000, 8231.000000, 8237.000000
3618, 193019360.000000, 2299.000000, 8211.000000, 8233.000000, 8241.000000
3619, 193019520.000000, 2203.000000, 8220.000000, 8231.000000, 8243.000000
3620, 193019680.000000, 2098.000000, 8230.000000, 8233.000000, 8249.000000
3621, 193019840.000000, 1994.000000, 8242.000000, 8238.000000, 8260.000000
3622, 193020000.000000, 1897.000000, 8251.000000, 8239.000000, 8267.000000
3623, 193020160.000000, 1816.000000, 8253.000000, 8229.000000, 8257.000000
3624, 193020320.000000, 1752.500000, 8240.000000, 8212.000000, 8237.000000
3625, 193020480.000000, 1707.000000, 8203.000000, 8204.000000, 8214.000000
3626, 193020640.000000, 1673.500000, 8175.000000, 8200.000000, 8198.000000
3627, 193020800.000000, 1645.000000, 8160.000000, 8200.000000, 8190.000000
3628, 193020960.000000, 1616.000000, 8158.000000, 8195.000000, 8182.000000
3629, 193021120.000000, 1584.000000, 8158.000000, 8191.000000, 8178.000000
3630, 193021280.000000, 1547.500000, 8162.000000, 8190.000000, 8179.000000
3631, 193021440.000000, 1508.000000, 8167.000000, 8196.000000, 8187.000000
3632, 193021600.000000, 1463.500000, 8169.000000, 8199.000000, 8191.000000
3633, 193021760.000000, 1409.000000, 8169.000000, 8195.000000, 8187.000000
3634, 193021920.000000, 1355.000000, 8170.000000, 8187.000000, 8178.000000
3635, 193022080.000000, 1362.000000, 8170.000000, 8183.000000, 8172.000000
3636, 193022240.000000, 1541.500000, 8170.000000, 8187.000000, 8176.000000
3637, 193022400.000000, 1944.000000, 8171.000000, 8189.000000, 8180.000000
3638, 193022560.000000, 2448.000000, 8171.000000, 8187.000000, 8178.000000
3639, 193022720.000000, 2882.000000, 8170.000000, 8181.000000, 8170.000000
3640, 193022880.000000, 3113.000000, 8180.000000, 8198.000000, 8203.000000
3641, 193023040.000000, 3177.000000, 8190.000000, 8219.000000, 8237.000000
3642, 193023200.000000, 3117.000000, 8200.000000, 8214.000000, 8226.000000
3643, 193023360.000000, 3005.000000, 8180.000000, 8189.000000, 8184.000000
3644, 193023520.000000, 2890.500000, 8167.000000, 8172.000000, 8155.000000
3645, 193023680.000000, 2792.000000, 8167.000000, 8168.000000, 8151.000000
3646, 193023840.000000, 2689.500000, 8167.000000, 8172.000000, 8155.000000
3647, 193024000.000000, 2575.000000, 8237.000000, 8212.000000, 8231.000000
3648, 193024160.000000, 2474.500000, 8375.000000, 7901.000000, 7990.000000
3649, 193024320.000000, 2423.000000, 8109.000000, 8052.000000, 7982.000000
3650, 193024480.000000, 2424.500000, 8181.000000, 8201.000000, 8193.000000
3651, 193024640.000000, 2445.000000, 8184.000000, 8217.000000, 8211.000000
3652, 193024800.000000, 2461.000000, 8189.000000, 8225.000000, 8222.000000
3653, 193024960.000000, 2448.000000, 8193.000000, 8225.000000, 8223.000000
3654, 193025120.000000, 2396.000000, 8200.000000, 8222.000000, 8224.000000
3655, 193025280.000000, 2309.000000, 8209.000000, 8224.000000, 8230.000000
3656, 193025440.000000, 2200.500000, 8219.000000, 8232.000000, 8243.000000
3657, 193025600.000000, 2087.000000, 8228.000000, 8240.000000, 8255.000000
3658, 193025760.000000, 1979.000000, 8239.000000, 8240.000000, 8260.000000
3659, 193025920.000000, 1881.000000, 8249.000000, 8230.000000, 8253.000000
3660, 193026080.000000, 1801.500000, 8255.000000, 8223.000000, 8248.000000
3661, 193026240.000000, 1737.000000, 8247.000000, 8217.000000, 8241.000000
3662, 193026400.000000, 1684.000000, 8213.000000, 8214.000000, 8227.000000
3663, 193026560.000000, 1641.000000, 8177.000000, 8207.000000, 8206.000000
3664, 193026720.000000, 1605.500000, 8160.000000, 8195.000000, 8183.000000
3665, 193026880.000000, 1574.000000, 8155.000000, 8190.000000, 8175.000000
3666, 193027040.000000, 1540.500000, 8154.000000, 8195.000000, 8179.000000
3667, 193027200.000000, 1502.000000, 8158.000000, 8200.000000, 8187.000000
3668, 193027360.000000, 1463.000000, 8163.000000, 8200.000000, 8190.000000
3669, 193027520.000000, 1417.000000, 8164.000000, 8193.000000, 8182.000000
3670, 193027680.000000, 1359.500000, 8167.000000, 8190.000000, 8179.000000
3671, 193027840.000000, 1294.000000, 8170.000000, 8191.000000, 8182.000000
3672, 193028000.000000, 1249.500000, 8168.000000, 8192.000000, 8183.000000
3673, 193028160.000000, 1320.000000, 8166.000000, 8188.000000, 8176.000000
3674, 193028320.000000, 1608.000000, 8166.000000, 8183.000000, 8171.000000
3675, 193028480.000000, 2062.000000, 8166.000000, 8181.000000, 8167.000000
3676, 193028640.000000, 2520.000000, 8167.000000, 8183.000000, 8170.000000
3677, 193028800.000000, 2827.000000, 8166.000000, 8189.000000, 8177.000000
3678, 193028960.000000, 2933.000000, 8177.000000, 8208.000000, 8213.000000
3679, 193029120.000000, 2896.000000, 8192.000000, 8221.000000, 8240.000000
3680, 193029280.000000, 2777.000000, 8189.000000, 8193.000000, 8194.000000
3681, 193029440.000000, 2645.000000, 8168.000000, 8177.000000, 8164.000000
3682, 193029600.000000, 2527.000000, 8165.000000, 8176.000000, 8161.000000
3683, 193029760.000000, 2417.000000, 8165.000000, 8174.000000, 8159.000000
3684, 193029920.000000, 2300.500000, 8171.000000, 8166.000000, 8147.000000
3685, 193030080.000000, 2190.000000, 8297.000000, 8198.000000, 8257.000000
3686, 193030240.000000, 2125.000000, 8235.000000, 7927.000000, 7947.000000
3687, 193030400.000000, 2116.000000, 8138.000000, 8121.000000, 8074.000000
3688, 193030560.000000, 2136.500000, 8180.000000, 8205.000000, 8198.000000
3689, 193030720.000000, 2156.000000, 8183.000000, 8209.000000, 8202.000000
3690, 193030880.000000, 2149.000000, 8190.000000, 8211.000000, 8207.000000
3691, 193031040.000000, 2107.000000, 8198.000000, 8218.000000, 8219.000000
3692, 193031200.000000, 2028.500000, 8205.000000, 8227.000000, 8231.000000
3693, 193031360.000000, 1928.000000, 8211.000000, 8227.000000, 8233.000000
3694, 193031520.000000, 1817.500000, 8221.000000, 8226.000000, 8236.000000
3695, 193031680.000000, 1714.000000, 8231.000000, 8228.000000, 8243.000000
3696, 193031840.000000, 1621.500000, 8244.000000, 8231.000000, 8251.000000
3697, 193032000.000000, 1538.000000, 8254.000000, 8230.000000, 8256.000000
3698, 193032160.000000, 1467.500000, 8255.000000, 8218.000000, 8243.000000
3699, 193032320.000000, 1413.000000, 8239.000000, 8201.000000, 8221.000000
3700, 193032480.000000, 1373.000000, 8201.000000, 8197.000000, 8204.000000
3701, 193032640.000000, 1343.000000, 8172.000000, 8200.000000, 8196.000000
3702, 193032800.000000, 1319.000000, 8158.000000, 8199.000000, 8188.000000
3703, 193032960.000000, 1296.000000, 8155.000000, 8196.000000, 8183.000000
3704, 193033120.000000, 1266.000000, 8156.000000, 8192.000000, 8179.000000
3705, 193033280.000000, 1233.000000, 8162.000000, 8190.000000, 8179.000000
3706, 193033440.000000, 1188.500000, 8169.000000, 8196.000000, 8188.000000
3707, 193033600.000000, 1129.000000, 8173.000000, 8199.000000, 8194.000000
3708, 193033760.000000, 1063.000000, 8172.000000, 8196.000000, 8190.000000
3709, 193033920.000000, 994.000000, 8172.000000, 8186.000000, 8178.000000
3710, 193034080.000000, 961.000000, 8171.000000, 8182.000000, 8173.000000
3711, 193034240.000000, 1050.000000, 8169.000000, 8186.000000, 8176.000000
3712, 193034400.000000, 1366.500000, 8171.000000, 8189.000000, 8182.000000
3713, 193034560.000000, 1815.000000, 8169.000000, 8186.000000, 8176.000000
3714, 193034720.000000, 2237.000000, 8168.000000, 8179.000000, 8168.000000
3715, 193034880.000000, 2495.000000, 8170.000000, 8178.000000, 8167.000000
3716, 193035040.000000, 2569.500000, 8174.000000, 8186.000000, 8179.000000
3717, 193035200.000000, 2509.000000, 8184.000000, 8213.000000, 8223.000000
3718, 193035360.000000, 2381.000000, 8197.000000, 8224.000000, 8246.000000
3719, 193035520.000000, 2245.000000, 8192.000000, 8192.000000, 8195.000000
3720, 193035680.000000, 2126.000000, 8170.000000, 8172.000000, 8159.000000
3721, 193035840.000000, 2014.000000, 8169.000000, 8173.000000, 8159.000000
3722, 193036000.000000, 1899.500000, 8167.000000, 8177.000000, 8162.000000
3723, 193036160.000000, 1805.000000, 8178.000000, 8170.000000, 8150.000000
3724, 193036320.000000, 1764.500000, 8301.000000, 8119.000000, 8185.000000
3725, 193036480.000000, 1772.000000, 8186.000000, 7877.000000, 7860.000000
3726, 193036640.000000, 1802.000000, 8161.000000, 8156.000000, 8125.000000
3727, 193036800.000000, 1826.000000, 8185.000000, 8219.000000, 8216.000000
3728, 193036960.000000, 1819.500000, 8187.000000, 8224.000000, 8222.000000
3729, 193037120.000000, 1781.000000, 8192.000000, 8222.000000, 8221.000000
3730, 193037280.000000, 1709.000000, 8200.000000, 8221.000000, 8223.000000
3731, 193037440.000000, 1619.000000, 8207.000000, 8228.000000, 8233.000000
3732, 193037600.000000, 1528.000000, 8216.000000, 8237.000000, 8248.000000
3733, 193037760.000000, 1449.000000, 8222.000000, 8238.000000, 8253.000000
3734, 193037920.000000, 1386.500000, 8231.000000, 8237.000000, 8254.000000
3735, 193038080.000000, 1336.000000, 8241.000000, 8236.000000, 8258.000000
3736, 193038240.000000, 1296.500000, 8249.000000, 8237.000000, 8264.000000
3737, 193038400.000000, 1263.000000, 8253.000000, 8233.000000, 8263.000000
3738, 193038560.000000, 1239.500000, 8235.000000, 8218.000000, 8242.000000
3739, 193038720.000000, 1224.000000, 8200.000000, 8205.000000, 8215.000000
3740, 193038880.000000, 1212.000000, 8173.000000, 8195.000000, 8190.000000
3741, 193039040.000000, 1196.000000, 8161.000000, 8195.000000, 8184.000000
3742, 193039200.000000, 1177.500000, 8160.000000, 8198.000000, 8188.000000
3743, 193039360.000000, 1155.000000, 8161.000000, 8197.000000, 8186.000000
3744, 193039520.000000, 1122.500000, 8162.000000, 8192.000000, 8181.000000
3745, 193039680.000000, 1088.000000, 8167.000000, 8191.000000, 8182.000000
3746, 193039840.000000, 1054.000000, 8170.000000, 8194.000000, 8187.000000
3747, 193040000.000000, 1010.000000, 8170.000000, 8197.000000, 8190.000000
3748, 193040160.000000, 968.500000, 8171.000000, 8192.000000, 8185.000000
3749, 193040320.000000, 986.000000, 8172.000000, 8185.000000, 8177.000000
3750, 193040480.000000, 1196.000000, 8171.000000, 8181.000000, 8172.000000
3751, 193040640.000000, 1617.000000, 8171.000000, 8184.000000, 8175.000000
3752, 193040800.000000, 2138.500000, 8172.000000, 8189.000000, 8181.000000
3753, 193040960.000000, 2559.000000, 8174.000000, 8185.000000, 8178.000000
3754, 193041120.000000, 2770.000000, 8172.000000, 8180.000000, 8170.000000
3755, 193041280.000000, 2800.000000, 8173.000000, 8179.000000, 8170.000000
3756, 193041440.000000, 2719.500000, 8175.000000, 8183.000000, 8175.000000
3757, 193041600.000000, 2600.000000, 8175.000000, 8187.000000, 8181.000000
3758, 193041760.000000, 2488.500000, 8183.000000, 8203.000000, 8210.000000
3759, 193041920.000000, 2404.000000, 8190.000000, 8207.000000, 8219.000000
3760, 193042080.000000, 2324.000000, 8196.000000, 8191.000000, 8193.000000
3761, 193042240.000000, 2234.000000, 8180.000000, 8182.000000, 8175.000000
3762, 193042400.000000, 2144.500000, 8173.000000, 8179.000000, 8168.000000
3763, 193042560.000000, 2098.000000, 8172.000000, 8177.000000, 8165.000000
3764, 193042720.000000, 2095.500000, 8172.000000, 8171.000000, 8157.000000
3765, 193042880.000000, 2112.000000, 8247.000000, 8191.000000, 8215.000000
3766, 193043040.000000, 2124.000000, 8373.000000, 7873.000000, 7957.000000
3767, 193043200.000000, 2115.000000, 8118.000000, 8077.000000, 8013.000000
3768, 193043360.000000, 2072.000000, 8185.000000, 8213.000000, 8210.000000
3769, 193043520.000000, 2004.000000, 8188.000000, 8218.000000, 8215.000000
3770, 193043680.000000, 1913.000000, 8192.000000, 8220.000000, 8219.000000
3771, 193043840.000000, 1820.000000, 8198.000000, 8227.000000, 8228.000000
3772, 193044000.000000, 1729.500000, 8204.000000, 8234.000000, 8239.000000
3773, 193044160.000000, 1649.000000, 8211.000000, 8234.000000, 8242.000000
3774, 193044320.000000, 1583.000000, 8217.000000, 8232.000000, 8242.000000
3775, 193044480.000000, 1529.000000, 8225.000000, 8234.000000, 8247.000000
3776, 193044640.000000, 1486.000000, 8239.000000, 8240.000000, 8262.000000
3777, 193044800.000000, 1456.000000, 8248.000000, 8242.000000, 8268.000000
3778, 193044960.000000, 1435.500000, 8255.000000, 8235.000000, 8264.000000
3779, 193045120.000000, 1417.000000, 8247.000000, 8218.000000, 8244.000000
3780, 193045280.000000, 1404.500000, 8218.000000, 8206.000000, 8222.000000
3781, 193045440.000000, 1391.000000, 8183.000000, 8204.000000, 8203.000000
3782, 193045600.000000, 1371.000000, 8166.000000, 8203.000000, 8195.000000
3783, 193045760.000000, 1343.000000, 8158.000000, 8198.000000, 8185.000000
3784, 193045920.000000, 1305.500000, 8156.000000, 8191.000000, 8176.000000
3785, 193046080.000000, 1267.000000, 8161.000000, 8192.000000, 8179.000000
3786, 193046240.000000, 1227.500000, 8164.000000, 8196.000000, 8185.000000
3787, 193046400.000000, 1188.000000, 8168.000000, 8200.000000, 8191.000000
3788, 193046560.000000, 1147.500000, 8168.000000, 8196.000000, 8187.000000
3789, 193046720.000000, 1102.000000, 8169.000000, 8188.000000, 8178.000000
3790, 193046880.000000, 1085.500000, 8170.000000, 8185.000000, 8174.000000
3791, 193047040.000000, 1186.000000, 8170.000000, 8187.000000, 8176.000000
3792, 193047200.000000, 1526.500000, 8169.000000, 8190.000000, 8180.000000
3793, 193047360.000000, 2026.000000, 8168.000000, 8187.000000, 8176.000000
3794, 193047520.000000, 2512.500000, 8169.000000, 8180.000000, 8168.000000
3795, 193047680.000000, 2817.000000, 8170.000000, 8179.000000, 8166.000000
3796, 193047840.000000, 2919.000000, 8170.000000, 8183.000000, 8172.000000
3797, 193048000.000000, 2877.000000, 8172.000000, 8188.000000, 8180.000000
3798, 193048160.000000, 2763.500000, 8180.000000, 8203.000000, 8206.000000
3799, 193048320.000000, 2640.000000, 8189.000000, 8206.000000, 8217.000000
3800, 193048480.000000, 2543.000000, 8192.000000, 8190.000000, 8189.000000
3801, 193048640.000000, 2462.000000, 8176.000000, 8181.000000, 8172.000000
3802, 193048800.000000, 2378.500000, 8170.000000, 8178.000000, 8165.000000
3803, 193048960.000000, 2279.000000, 8171.000000, 8177.000000, 8164.000000
3804, 193049120.000000, 2197.000000, 8171.000000, 8171.000000, 8156.000000
3805, 193049280.000000, 2159.000000, 8261.000000, 8218.000000, 8253.000000
3806, 193049440.000000, 2154.500000, 8344.000000, 7931.000000, 8005.000000
3807, 193049600.000000, 2161.000000, 8124.000000, 8081.000000, 8027.000000
3808, 193049760.000000, 2149.000000, 8182.000000, 8204.000000, 8197.000000
3809, 193049920.000000, 2114.000000, 8186.000000, 8210.000000, 8205.000000
3810, 193050080.000000, 2048.000000, 8190.000000, 8213.000000, 8209.000000
3811, 193050240.000000, 1960.000000, 8200.000000, 8219.000000, 8221.000000
3812, 193050400.000000, 1861.000000, 8207.000000, 8227.000000, 8232.000000
3813, 193050560.000000, 1762.000000, 8212.000000, 8228.000000, 8236.000000
3814, 193050720.000000, 1667.000000, 8222.000000, 8225.000000, 8236.000000
3815, 193050880.000000, 1583.000000, 8232.000000, 8227.000000, 8241.000000
3816, 193051040.000000, 1514.000000, 8244.000000, 8232.000000, 8252.000000
3817, 193051200.000000, 1455.000000, 8254.000000, 8232.000000, 8256.000000
3818, 193051360.000000, 1411.500000, 8259.000000, 8222.000000, 8248.000000
3819, 193051520.000000, 1377.000000, 8251.000000, 8205.000000, 8229.000000
3820, 193051680.000000, 1353.500000, 8213.000000, 8200.000000, 8211.000000
3821, 193051840.000000, 1332.000000, 8178.000000, 8202.000000, 8200.000000
3822, 193052000.000000, 1310.500000, 8159.000000, 8201.000000, 8192.000000
3823, 193052160.000000, 1283.000000, 8153.000000, 8196.000000, 8183.000000
3824, 193052320.000000, 1249.000000, 8155.000000, 8191.000000, 8178.000000
3825, 193052480.000000, 1204.000000, 8161.000000, 8192.000000, 8181.000000
3826, 193052640.000000, 1155.000000, 8165.000000, 8197.000000, 8188.000000
3827, 193052800.000000, 1101.000000, 8170.000000, 8200.000000, 8193.000000
3828, 193052960.000000, 1043.500000, 8173.000000, 8196.000000, 8189.000000
3829, 193053120.000000, 982.000000, 8173.000000, 8188.000000, 8179.000000
3830, 193053280.000000, 931.500000, 8171.000000, 8184.000000, 8175.000000
3831, 193053440.000000, 936.000000, 8169.000000, 8187.000000, 8177.000000
3832, 193053600.000000, 1125.000000, 8170.000000, 8190.000000, 8181.000000
3833, 193053760.000000, 1497.000000, 8170.000000, 8186.000000, 8177.000000
3834, 193053920.000000, 1965.000000, 8168.000000, 8181.000000, 8170.000000
3835, 193054080.000000, 2336.000000, 8171.000000, 8180.000000, 8171.000000
3836, 193054240.000000, 2524.500000, 8171.000000, 8184.000000, 8175.000000
3837, 193054400.000000, 2543.000000, 8174.000000, 8192.000000, 8187.000000
3838, 193054560.000000, 2446.500000, 8184.000000, 8212.000000, 8222.000000
3839, 193054720.000000, 2313.000000, 8198.000000, 8209.000000, 8222.000000
3840, 193054880.000000, 2190.500000, 8192.000000, 8186.000000, 8187.000000
3841, 193055040.000000, 2088.000000, 8170.000000, 8177.000000, 8164.000000
3842, 193055200.000000, 1989.000000, 8171.000000, 8179.000000, 8168.000000
3843, 193055360.000000, 1884.000000, 8171.000000, 8177.000000, 8166.000000
3844, 193055520.000000, 1802.500000, 8183.000000, 8177.000000, 8162.000000
3845, 193055680.000000, 1771.000000, 8329.000000, 8073.000000, 8155.000000
3846, 193055840.000000, 1787.500000, 8115.000000, 7931.000000, 7885.000000
3847, 193056000.000000, 1820.000000, 8166.000000, 8175.000000, 8153.000000
3848, 193056160.000000, 1838.000000, 8184.000000, 8218.000000, 8216.000000
3849, 193056320.000000, 1833.000000, 8190.000000, 8218.000000, 8218.000000
3850, 193056480.000000, 1786.500000, 8195.000000, 8220.000000, 8219.000000
3851, 193056640.000000, 1709.000000, 8202.000000, 8227.000000, 8231.000000
3852, 193056800.000000, 1613.500000, 8208.000000, 8233.000000, 8239.000000
3853, 193056960.000000, 1516.000000, 8217.000000, 8235.000000, 8247.000000
3854, 193057120.000000, 1428.500000, 8224.000000, 8233.000000, 8247.000000
3855, 193057280.000000, 1354.000000, 8235.000000, 8236.000000, 8254.000000
3856, 193057440.000000, 1294.000000, 8246.000000, 8241.000000, 8266.000000
3857, 193057600.000000, 1245.000000, 8255.000000, 8239.000000, 8268.000000
3858, 193057760.000000, 1200.500000, 8254.000000, 8227.000000, 8257.000000
3859, 193057920.000000, 1167.000000, 8235.000000, 8209.000000, 8231.000000
3860, 193058080.000000, 1140.500000, 8196.000000, 8201.000000, 8207.000000
3861, 193058240.000000, 1117.000000, 8170.000000, 8199.000000, 8194.000000
3862, 193058400.000000, 1097.500000, 8160.000000, 8199.000000, 8189.000000
3863, 193058560.000000, 1079.000000, 8159.000000, 8195.000000, 8184.000000
3864, 193058720.000000, 1054.000000, 8159.000000, 8191.000000, 8180.000000
3865, 193058880.000000, 1027.000000, 8162.000000, 8191.000000, 8180.000000
3866, 193059040.000000, 997.000000, 8167.000000, 8195.000000, 8186.000000
3867, 193059200.000000, 964.000000, 8170.000000, 8198.000000, 8191.000000
3868, 193059360.000000, 923.000000, 8171.000000, 8194.000000, 8187.000000
3869, 193059520.000000, 877.000000, 8170.000000, 8186.000000, 8177.000000
3870, 193059680.000000, 859.000000, 8171.000000, 8183.000000, 8174.000000
3871, 193059840.000000, 956.000000, 8171.000000, 8185.000000, 8176.000000
3872, 193060000.000000, 1290.500000, 8172.000000, 8188.000000, 8180.000000
3873, 193060160.000000, 1779.000000, 8171.000000, 8185.000000, 8176.000000
3874, 193060320.000000, 2262.500000, 8173.000000, 8179.000000, 8170.000000
3875, 193060480.000000, 2574.000000, 8172.000000, 8179.000000, 8169.000000
3876, 193060640.000000, 2686.000000, 8176.000000, 8193.000000, 8190.000000
3877, 193060800.000000, 2653.000000, 8187.000000, 8216.000000, 8230.000000
3878, 193060960.000000, 2544.500000, 8201.000000, 8217.000000, 8234.000000
3879, 193061120.000000, 2398.000000, 8194.000000, 8188.000000, 8192.000000
3880, 193061280.000000, 2284.000000, 8170.000000, 8172.000000, 8159.000000
3881, 193061440.000000, 2181.000000, 8169.000000, 8173.000000, 8159.000000
3882, 193061600.000000, 2048.000000, 8170.000000, 8177.000000, 8164.000000
3883, 193061760.000000, 1969.000000, 8190.000000, 8185.000000, 8173.000000
3884, 193061920.000000, 1967.500000, 8338.000000, 7995.000000, 8079.000000
3885, 193062080.000000, 1997.000000, 8089.000000, 7938.000000, 7869.000000
3886, 193062240.000000, 2023.500000, 8176.000000, 8189.000000, 8176.000000
3887, 193062400.000000, 2024.000000, 8185.000000, 8221.000000, 8218.000000
3888, 193062560.000000, 1988.000000, 8191.000000, 8224.000000, 8224.000000
3889, 193062720.000000, 1924.000000, 8196.000000, 8221.000000, 8221.000000
3890, 193062880.000000, 1839.000000, 8201.000000, 8223.000000, 8226.000000
3891, 193063040.000000, 1747.000000, 8211.000000, 8230.000000, 8238.000000
3892, 193063200.000000, 1660.000000, 8217.000000, 8238.000000, 8250.000000
3893, 193063360.000000, 1578.000000, 8226.000000, 8238.000000, 8254.000000
3894, 193063520.000000, 1507.500000, 8234.000000, 8237.000000, 8256.000000
3895, 193063680.000000, 1454.000000, 8246.000000, 8236.000000, 8261.000000
3896, 193063840.000000, 1412.000000, 8256.000000, 8236.000000, 8266.000000
3897, 193064000.000000, 1380.000000, 8254.000000, 8231.000000, 8263.000000
3898, 193064160.000000, 1358.500000, 8231.000000, 8216.000000, 8239.000000
3899, 193064320.000000, 1341.000000, 8194.000000, 8202.000000, 8208.000000
3900, 193064480.000000, 1324.000000, 8169.000000, 8194.000000, 8186.000000
3901, 193064640.000000, 1303.000000, 8162.000000, 8195.000000, 8184.000000
3902, 193064800.000000, 1276.500000, 8161.000000, 8198.000000, 8187.000000
3903, 193064960.000000, 1245.000000, 8162.000000, 8196.000000, 8185.000000
3904, 193065120.000000, 1207.500000, 8166.000000, 8190.000000, 8180.000000
3905, 193065280.000000, 1166.000000, 8169.000000, 8190.000000, 8182.000000
3906, 193065440.000000, 1121.500000, 8171.000000, 8193.000000, 8186.000000
3907, 193065600.000000, 1081.000000, 8172.000000, 8195.000000, 8187.000000
3908, 193065760.000000, 1122.000000, 8172.000000, 8190.000000, 8182.000000
3909, 193065920.000000, 1359.000000, 8172.000000, 8182.000000, 8172.000000
3910, 193066080.000000, 1821.000000, 8172.000000, 8180.000000, 8170.000000
3911, 193066240.000000, 2351.000000, 8173.000000, 8184.000000, 8175.000000
3912, 193066400.000000, 2747.500000, 8172.000000, 8187.000000, 8179.000000
3913, 193066560.000000, 2944.000000, 8171.000000, 8185.000000, 8176.000000
3914, 193066720.000000, 2956.000000, 8172.000000, 8179.000000, 8169.000000
3915, 193066880.000000, 2867.000000, 8181.000000, 8195.000000, 8199.000000
3916, 193067040.000000, 2739.000000, 8190.000000, 8219.000000, 8237.000000
3917, 193067200.000000, 2619.000000, 8202.000000, 8216.000000, 8230.000000
3918, 193067360.000000, 2524.500000, 8185.000000, 8188.000000, 8185.000000
3919, 193067520.000000, 2433.000000, 8168.000000, 8170.000000, 8155.000000
3920, 193067680.000000, 2326.500000, 8167.000000, 8168.000000, 8151.000000
3921, 193067840.000000, 2235.000000, 8168.000000, 8173.000000, 8156.000000
3922, 193068000.000000, 2188.000000, 8228.000000, 8211.000000, 8224.000000
3923, 193068160.000000, 2189.000000, 8373.000000, 7908.000000, 7998.000000
3924, 193068320.000000, 2218.000000, 8102.000000, 8033.000000, 7960.000000
3925, 193068480.000000, 2244.000000, 8183.000000, 8200.000000, 8193.000000
3926, 193068640.000000, 2244.500000, 8187.000000, 8219.000000, 8215.000000
3927, 193068800.000000, 2217.000000, 8189.000000, 8226.000000, 8223.000000
3928, 193068960.000000, 2158.000000, 8198.000000, 8225.000000, 8226.000000
3929, 193069120.000000, 2080.000000, 8201.000000, 8222.000000, 8223.000000
3930, 193069280.000000, 1987.000000, 8210.000000, 8225.000000, 8230.000000
3931, 193069440.000000, 1893.000000, 8218.000000, 8234.000000, 8244.000000
3932, 193069600.000000, 1803.500000, 8228.000000, 8241.000000, 8256.000000
3933, 193069760.000000, 1720.000000, 8235.000000, 8241.000000, 8259.000000
3934, 193069920.000000, 1651.000000, 8249.000000, 8233.000000, 8256.000000
3935, 193070080.000000, 1600.000000, 8252.000000, 8226.000000, 8251.000000
3936, 193070240.000000, 1566.000000, 8250.000000, 8222.000000, 8248.000000
3937, 193070400.000000, 1543.000000, 8220.000000, 8217.000000, 8233.000000
3938, 193070560.000000, 1526.000000, 8183.000000, 8207.000000, 8208.000000
3939, 193070720.000000, 1506.000000, 8163.000000, 8196.000000, 8186.000000
3940, 193070880.000000, 1479.500000, 8157.000000, 8192.000000, 8178.000000
3941, 193071040.000000, 1449.000000, 8157.000000, 8197.000000, 8183.000000
3942, 193071200.000000, 1411.000000, 8162.000000, 8200.000000, 8189.000000
3943, 193071360.000000, 1370.000000, 8165.000000, 8198.000000, 8189.000000
3944, 193071520.000000, 1319.000000, 8168.000000, 8192.000000, 8183.000000
3945, 193071680.000000, 1261.000000, 8169.000000, 8189.000000, 8179.000000
3946, 193071840.000000, 1210.500000, 8170.000000, 8191.000000, 8182.000000
3947, 193072000.000000, 1253.000000, 8171.000000, 8192.000000, 8185.000000
3948, 193072160.000000, 1500.500000, 8169.000000, 8188.000000, 8178.000000
3949, 193072320.000000, 1960.000000, 8170.000000, 8181.000000, 8170.000000
3950, 193072480.000000, 2466.000000, 8169.000000, 8179.000000, 8167.000000
3951, 193072640.000000, 2843.000000, 8173.000000, 8189.000000, 8182.000000
3952, 193072800.000000, 2994.000000, 8182.000000, 8210.000000, 8220.000000
3953, 193072960.000000, 2984.000000, 8198.000000, 8219.000000, 8238.000000
3954, 193073120.000000, 2865.000000, 8190.000000, 8187.000000, 8189.000000
3955, 193073280.000000, 2716.000000, 8166.000000, 8168.000000, 8152.000000
3956, 193073440.000000, 2581.000000, 8166.000000, 8172.000000, 8156.000000
3957, 193073600.000000, 2465.000000, 8167.000000, 8175.000000, 8160.000000
3958, 193073760.000000, 2354.000000, 8188.000000, 8183.000000, 8172.000000
3959, 193073920.000000, 2241.000000, 8345.000000, 8096.000000, 8183.000000
3960, 193074080.000000, 2155.500000, 8097.000000, 7953.000000, 7903.000000
3961, 193074240.000000, 2126.000000, 8164.000000, 8163.000000, 8136.000000
3962, 193074400.000000, 2140.500000, 8182.000000, 8209.000000, 8202.000000
3963, 193074560.000000, 2170.000000, 8186.000000, 8213.000000, 8208.000000
3964, 193074720.000000, 2183.500000, 8194.000000, 8210.000000, 8207.000000
3965, 193074880.000000, 2169.000000, 8200.000000, 8213.000000, 8213.000000
3966, 193075040.000000, 2113.000000, 8208.000000, 8222.000000, 8226.000000
3967, 193075200.000000, 2026.000000, 8217.000000, 8230.000000, 8238.000000
3968, 193075360.000000, 1921.500000, 8224.000000, 8230.000000, 8242.000000
3969, 193075520.000000, 1813.000000, 8236.000000, 8227.000000, 8243.000000
3970, 193075680.000000, 1709.500000, 8247.000000, 8225.000000, 8245.000000
3971, 193075840.000000, 1616.000000, 8258.000000, 8222.000000, 8247.000000
3972, 193076000.000000, 1534.500000, 8256.000000, 8214.000000, 8240.000000
3973, 193076160.000000, 1466.000000, 8228.000000, 8203.000000, 8220.000000
3974, 193076320.000000, 1413.500000, 8189.000000, 8196.000000, 8199.000000
3975, 193076480.000000, 1376.000000, 8164.000000, 8193.000000, 8184.000000
3976, 193076640.000000, 1347.500000, 8157.000000, 8195.000000, 8183.000000
3977, 193076800.000000, 1328.000000, 8154.000000, 8198.000000, 8184.000000
3978, 193076960.000000, 1307.500000, 8157.000000, 8197.000000, 8185.000000
3979, 193077120.000000, 1278.000000, 8164.000000, 8191.000000, 8180.000000
3980, 193077280.000000, 1235.500000, 8167.000000, 8190.000000, 8181.000000
3981, 193077440.000000, 1179.000000, 8171.000000, 8194.000000, 8187.000000
3982, 193077600.000000, 1114.500000, 8171.000000, 8195.000000, 8188.000000
3983, 193077760.000000, 1063.000000, 8168.000000, 8190.000000, 8181.000000
3984, 193077920.000000, 1123.500000, 8168.000000, 8182.000000, 8171.000000
3985, 193078080.000000, 1358.000000, 8169.000000, 8182.000000, 8172.000000
3986, 193078240.000000, 1756.000000, 8172.000000, 8189.000000, 8181.000000
3987, 193078400.000000, 2149.000000, 8182.000000, 8214.000000, 8224.000000
3988, 193078560.000000, 2404.500000, 8196.000000, 8227.000000, 8247.000000
3989, 193078720.000000, 2484.000000, 8192.000000, 8193.000000, 8196.000000
3990, 193078880.000000, 2422.500000, 8165.000000, 8170.000000, 8155.000000
3991, 193079040.000000, 2295.000000, 8166.000000, 8172.000000, 8156.000000
3992, 193079200.000000, 2151.000000, 8166.000000, 8174.000000, 8158.000000
3993, 193079360.000000, 2017.000000, 8181.000000, 8173.000000, 8155.000000
3994, 193079520.000000, 1890.500000, 8317.000000, 8096.000000, 8172.000000
3995, 193079680.000000, 1769.000000, 8113.000000, 7908.000000, 7859.000000
3996, 193079840.000000, 1672.000000, 8163.000000, 8164.000000, 8138.000000
3997, 193080000.000000, 1629.000000, 8182.000000, 8216.000000, 8211.000000
3998, 193080160.000000, 1642.000000, 8187.000000, 8219.000000, 8215.000000
3999, 193080320.000000, 1680.000000, 8193.000000, 8216.000000, 8214.000000
4000, 193080480.000000, 1712.000000, 8198.000000, 8218.000000, 8217.000000
4001, 193080640.000000, 1716.000000, 8207.000000, 8227.000000, 8232.000000
4002, 193080800.000000, 1685.500000, 8214.000000, 8234.000000, 8242.000000
4003, 193080960.000000, 1620.000000, 8223.000000, 8235.000000, 8247.000000
4004, 193081120.000000, 1540.500000, 8232.000000, 8233.000000, 8249.000000
4005, 193081280.000000, 1453.000000, 8245.000000, 8232.000000, 8254.000000
4006, 193081440.000000, 1370.500000, 8254.000000, 8232.000000, 8258.000000
4007, 193081600.000000, 1300.000000, 8254.000000, 8225.000000, 8253.000000
4008, 193081760.000000, 1243.000000, 8227.000000, 8210.000000, 8228.000000
4009, 193081920.000000, 1195.000000, 8190.000000, 8201.000000, 8205.000000
4010, 193082080.000000, 1154.000000, 8165.000000, 8194.000000, 8185.000000
4011, 193082240.000000, 1124.000000, 8156.000000, 8196.000000, 8183.000000
4012, 193082400.000000, 1104.000000, 8156.000000, 8199.000000, 8186.000000
4013, 193082560.000000, 1090.000000, 8160.000000, 8196.000000, 8184.000000
4014, 193082720.000000, 1077.500000, 8164.000000, 8191.000000, 8180.000000
4015, 193082880.000000, 1061.000000, 8166.000000, 8191.000000, 8181.000000
4016, 193083040.000000, 1033.000000, 8169.000000, 8195.000000, 8187.000000
4017, 193083200.000000, 994.000000, 8170.000000, 8195.000000, 8186.000000
4018, 193083360.000000, 978.500000, 8170.000000, 8189.000000, 8180.000000
4019, 193083520.000000, 1077.000000, 8170.000000, 8183.000000, 8172.000000
4020, 193083680.000000, 1366.500000, 8169.000000, 8181.000000, 8169.000000
4021, 193083840.000000, 1796.000000, 8172.000000, 8190.000000, 8184.000000
4022, 193084000.000000, 2181.500000, 8183.000000, 8215.000000, 8226.000000
4023, 193084160.000000, 2416.000000, 8197.000000, 8226.000000, 8248.000000
4024, 193084320.000000, 2457.500000, 8192.000000, 8192.000000, 8195.000000
4025, 193084480.000000, 2390.000000, 8166.000000, 8170.000000, 8154.000000
4026, 193084640.000000, 2269.000000, 8166.000000, 8172.000000, 8156.000000
4027, 193084800.000000, 2150.000000, 8166.000000, 8175.000000, 8159.000000
4028, 193084960.000000, 2055.500000, 8177.000000, 8172.000000, 8151.000000
4029, 193085120.000000, 1971.000000, 8319.000000, 8068.000000, 8144.000000
4030, 193085280.000000, 1883.000000, 8109.000000, 7906.000000, 7852.000000
4031, 193085440.000000, 1810.000000, 8167.000000, 8172.000000, 8149.000000
4032, 193085600.000000, 1782.500000, 8183.000000, 8217.000000, 8212.000000
4033, 193085760.000000, 1799.000000, 8186.000000, 8220.000000, 8217.000000
4034, 193085920.000000, 1841.500000, 8193.000000, 8216.000000, 8214.000000
4035, 193086080.000000, 1876.000000, 8199.000000, 8219.000000, 8219.000000
4036, 193086240.000000, 1883.500000, 8206.000000, 8228.000000, 8234.000000
4037, 193086400.000000, 1859.000000, 8215.000000, 8234.000000, 8244.000000
4038, 193086560.000000, 1804.000000, 8222.000000, 8236.000000, 8249.000000
4039, 193086720.000000, 1733.000000, 8233.000000, 8233.000000, 8251.000000
4040, 193086880.000000, 1655.000000, 8244.000000, 8233.000000, 8255.000000
4041, 193087040.000000, 1580.000000, 8251.000000, 8231.000000, 8257.000000
4042, 193087200.000000, 1515.500000, 8251.000000, 8226.000000, 8254.000000
4043, 193087360.000000, 1462.000000, 8226.000000, 8212.000000, 8230.000000
4044, 193087520.000000, 1415.000000, 8189.000000, 8200.000000, 8203.000000
4045, 193087680.000000, 1381.000000, 8168.000000, 8195.000000, 8188.000000
4046, 193087840.000000, 1356.000000, 8158.000000, 8195.000000, 8182.000000
4047, 193088000.000000, 1336.000000, 8158.000000, 8197.000000, 8184.000000
4048, 193088160.000000, 1317.500000, 8161.000000, 8196.000000, 8185.000000
4049, 193088320.000000, 1297.000000, 8165.000000, 8192.000000, 8183.000000
4050, 193088480.000000, 1274.500000, 8168.000000, 8190.000000, 8181.000000
4051, 193088640.000000, 1240.000000, 8171.000000, 8195.000000, 8188.000000
4052, 193088800.000000, 1198.000000, 8173.000000, 8195.000000, 8188.000000
4053, 193088960.000000, 1178.000000, 8172.000000, 8189.000000, 8181.000000
4054, 193089120.000000, 1292.000000, 8171.000000, 8182.000000, 8173.000000
4055, 193089280.000000, 1583.000000, 8172.000000, 8181.000000, 8171.000000
4056, 193089440.000000, 2004.500000, 8173.000000, 8188.000000, 8179.000000
4057, 193089600.000000, 2371.000000, 8186.000000, 8214.000000, 8227.000000
4058, 193089760.000000, 2571.000000, 8201.000000, 8230.000000, 8257.000000
4059, 193089920.000000, 2602.000000, 8197.000000, 8196.000000, 8204.000000
4060, 193090080.000000, 2530.000000, 8169.000000, 8173.000000, 8159.000000
4061, 193090240.000000, 2417.000000, 8167.000000, 8174.000000, 8157.000000
4062, 193090400.000000, 2313.000000, 8166.000000, 8177.000000, 8161.000000
4063, 193090560.000000, 2228.000000, 8174.000000, 8168.000000, 8145.000000
4064, 193090720.000000, 2150.000000, 8308.000000, 8132.000000, 8200.000000
4065, 193090880.000000, 2065.000000, 8181.000000, 7885.000000, 7865.000000
4066, 193091040.000000, 1990.000000, 8157.000000, 8156.000000, 8120.000000
4067, 193091200.000000, 1959.000000, 8183.000000, 8216.000000, 8211.000000
4068, 193091360.000000, 1968.000000, 8186.000000, 8219.000000, 8214.000000
4069, 193091520.000000, 2000.000000, 8191.000000, 8218.000000, 8213.000000
4070, 193091680.000000, 2028.000000, 8197.000000, 8221.000000, 8218.000000
4071, 193091840.000000, 2030.000000, 8206.000000, 8229.000000, 8233.000000
4072, 193092000.000000, 1994.000000, 8213.000000, 8236.000000, 8243.000000
4073, 193092160.000000, 1934.000000, 8219.000000, 8236.000000, 8245.000000
4074, 193092320.000000, 1860.500000, 8230.000000, 8234.000000, 8248.000000
4075, 193092480.000000, 1786.000000, 8243.000000, 8234.000000, 8253.000000
4076, 193092640.000000, 1716.500000, 8252.000000, 8233.000000, 8258.000000
4077, 193092800.000000, 1654.000000, 8251.000000, 8228.000000, 8254.000000
4078, 193092960.000000, 1608.500000, 8231.000000, 8215.000000, 8234.000000
4079, 193093120.000000, 1576.000000, 8190.000000, 8205.000000, 8207.000000
4080, 193093280.000000, 1553.500000, 8166.000000, 8199.000000, 8189.000000
4081, 193093440.000000, 1539.000000, 8159.000000, 8198.000000, 8185.000000
4082, 193093600.000000, 1527.000000, 8155.000000, 8201.000000, 8186.000000
4083, 193093760.000000, 1516.000000, 8159.000000, 8199.000000, 8186.000000
4084, 193093920.000000, 1502.000000, 8163.000000, 8195.000000, 8183.000000
4085, 193094080.000000, 1482.000000, 8167.000000, 8194.000000, 8183.000000
4086, 193094240.000000, 1452.000000, 8170.000000, 8197.000000, 8188.000000
4087, 193094400.000000, 1412.000000, 8170.000000, 8199.000000, 8190.000000
4088, 193094560.000000, 1384.000000, 8169.000000, 8192.000000, 8182.000000
4089, 193094720.000000, 1448.000000, 8168.000000, 8184.000000, 8173.000000
4090, 193094880.000000, 1691.500000, 8169.000000, 8183.000000, 8171.000000
4091, 193095040.000000, 2082.000000, 8169.000000, 8188.000000, 8178.000000
4092, 193095200.000000, 2467.500000, 8178.000000, 8210.000000, 8214.000000
4093, 193095360.000000, 2711.000000, 8190.000000, 8227.000000, 8245.000000
4094, 193095520.000000, 2771.000000, 8193.000000, 8199.000000, 8203.000000
4095, 193095680.000000, 2715.000000, 8171.000000, 8178.000000, 8167.000000
4096, 193095840.000000, 2608.000000, 8164.000000, 8176.000000, 8159.000000
4097, 193096000.000000, 2497.000000, 8165.000000, 8177.000000, 8160.000000
4098, 193096160.000000, 2402.000000, 8167.000000, 8172.000000, 8151.000000
4099, 193096320.000000, 2317.000000, 8272.000000, 8208.000000, 8250.000000
4100, 193096480.000000, 2226.000000, 8292.000000, 7915.000000, 7961.000000
4101, 193096640.000000, 2141.000000, 8132.000000, 8102.000000, 8047.000000
4102, 193096800.000000, 2096.000000, 8181.000000, 8206.000000, 8198.000000
4103, 193096960.000000, 2095.000000, 8182.000000, 8211.000000, 8202.000000
4104, 193097120.000000, 2124.000000, 8188.000000, 8209.000000, 8202.000000
4105, 193097280.000000, 2148.000000, 8198.000000, 8213.000000, 8212.000000
4106, 193097440.000000, 2145.500000, 8204.000000, 8221.000000, 8222.000000
4107, 193097600.000000, 2108.000000, 8212.000000, 8228.000000, 8234.000000
4108, 193097760.000000, 2043.500000, 8221.000000, 8228.000000, 8238.000000
4109, 193097920.000000, 1960.000000, 8231.000000, 8226.000000, 8239.000000
4110, 193098080.000000, 1873.000000, 8242.000000, 8226.000000, 8244.000000
4111, 193098240.000000, 1788.000000, 8253.000000, 8225.000000, 8247.000000
4112, 193098400.000000, 1713.000000, 8257.000000, 8219.000000, 8243.000000
4113, 193098560.000000, 1650.000000, 8239.000000, 8206.000000, 8226.000000
4114, 193098720.000000, 1598.500000, 8196.000000, 8200.000000, 8204.000000
4115, 193098880.000000, 1558.000000, 8169.000000, 8196.000000, 8190.000000
4116, 193099040.000000, 1533.000000, 8158.000000, 8198.000000, 8187.000000
4117, 193099200.000000, 1512.000000, 8154.000000, 8199.000000, 8187.000000
4118, 193099360.000000, 1492.000000, 8156.000000, 8196.000000, 8183.000000
4119, 193099520.000000, 1471.000000, 8162.000000, 8191.000000, 8180.000000
4120, 193099680.000000, 1438.500000, 8168.000000, 8192.000000, 8185.000000
4121, 193099840.000000, 1396.000000, 8172.000000, 8196.000000, 8190.000000
4122, 193100000.000000, 1343.500000, 8171.000000, 8196.000000, 8189.000000
4123, 193100160.000000, 1288.000000, 8171.000000, 8188.000000, 8181.000000
4124, 193100320.000000, 1279.000000, 8169.000000, 8182.000000, 8172.000000
4125, 193100480.000000, 1400.000000, 8168.000000, 8180.000000, 8169.000000
4126, 193100640.000000, 1700.000000, 8170.000000, 8186.000000, 8177.000000
4127, 193100800.000000, 2078.000000, 8180.000000, 8211.000000, 8220.000000
4128, 193100960.000000, 2361.000000, 8195.000000, 8224.000000, 8247.000000
4129, 193101120.000000, 2488.000000, 8189.000000, 8192.000000, 8195.000000
4130, 193101280.000000, 2463.000000, 8167.000000, 8170.000000, 8157.000000
4131, 193101440.000000, 2357.000000, 8162.000000, 8172.000000, 8155.000000
4132, 193101600.000000, 2233.000000, 8163.000000, 8173.000000, 8157.000000
4133, 193101760.000000, 2128.000000, 8177.000000, 8169.000000, 8150.000000
4134, 193101920.000000, 2043.000000, 8311.000000, 8127.000000, 8199.000000
4135, 193102080.000000, 1955.000000, 8139.000000, 7903.000000, 7871.000000
4136, 193102240.000000, 1872.500000, 8155.000000, 8153.000000, 8120.000000
4137, 193102400.000000, 1818.000000, 8178.000000, 8212.000000, 8206.000000
4138, 193102560.000000, 1810.500000, 8183.000000, 8214.000000, 8209.000000
4139, 193102720.000000, 1833.000000, 8188.000000, 8213.000000, 8208.000000
4140, 193102880.000000, 1858.000000, 8196.000000, 8217.000000, 8217.000000
4141, 193103040.000000, 1862.000000, 8203.000000, 8225.000000, 8229.000000
4142, 193103200.000000, 1831.500000, 8211.000000, 8233.000000, 8241.000000
4143, 193103360.000000, 1775.000000, 8220.000000, 8232.000000, 8244.000000
4144, 193103520.000000, 1697.000000, 8231.000000, 8229.000000, 8244.000000
4145, 193103680.000000, 1614.000000, 8245.000000, 8230.000000, 8252.000000
4146, 193103840.000000, 1535.000000, 8253.000000, 8228.000000, 8254.000000
4147, 193104000.000000, 1465.000000, 8251.000000, 8221.000000, 8247.000000
4148, 193104160.000000, 1404.500000, 8223.000000, 8207.000000, 8223.000000
4149, 193104320.000000, 1355.000000, 8186.000000, 8199.000000, 8202.000000
4150, 193104480.000000, 1315.000000, 8163.000000, 8195.000000, 8187.000000
4151, 193104640.000000, 1286.000000, 8155.000000, 8195.000000, 8182.000000
4152, 193104800.000000, 1265.000000, 8155.000000, 8198.000000, 8185.000000
4153, 193104960.000000, 1246.000000, 8158.000000, 8195.000000, 8182.000000
4154, 193105120.000000, 1226.000000, 8161.000000, 8191.000000, 8178.000000
4155, 193105280.000000, 1202.000000, 8166.000000, 8191.000000, 8181.000000
4156, 193105440.000000, 1171.000000, 8169.000000, 8196.000000, 8188.000000
4157, 193105600.000000, 1129.000000, 8172.000000, 8196.000000, 8188.000000
4158, 193105760.000000, 1096.500000, 8170.000000, 8189.000000, 8180.000000
4159, 193105920.000000, 1128.000000, 8168.000000, 8181.000000, 8170.000000
4160, 193106080.000000, 1335.500000, 8169.000000, 8181.000000, 8169.000000
4161, 193106240.000000, 1687.000000, 8170.000000, 8186.000000, 8175.000000
4162, 193106400.000000, 2067.000000, 8172.000000, 8187.000000, 8177.000000
4163, 193106560.000000, 2317.000000, 8183.000000, 8209.000000, 8218.000000
4164, 193106720.000000, 2397.500000, 8199.000000, 8222.000000, 8246.000000
4165, 193106880.000000, 2350.000000, 8196.000000, 8195.000000, 8201.000000
4166, 193107040.000000, 2247.000000, 8170.000000, 8178.000000, 8165.000000
4167, 193107200.000000, 2140.000000, 8166.000000, 8176.000000, 8160.000000
4168, 193107360.000000, 2059.500000, 8167.000000, 8171.000000, 8154.000000
4169, 193107520.000000, 1989.000000, 8176.000000, 8162.000000, 8139.000000
4170, 193107680.000000, 1914.500000, 8296.000000, 8132.000000, 8194.000000
4171, 193107840.000000, 1843.000000, 8191.000000, 7883.000000, 7870.000000
4172, 193108000.000000, 1807.000000, 8156.000000, 8154.000000, 8119.000000
4173, 193108160.000000, 1815.000000, 8182.000000, 8211.000000, 8204.000000
4174, 193108320.000000, 1850.000000, 8185.000000, 8214.000000, 8207.000000
4175, 193108480.000000, 1886.000000, 8192.000000, 8219.000000, 8214.000000
4176, 193108640.000000, 1898.500000, 8198.000000, 8227.000000, 8226.000000
4177, 193108800.000000, 1881.000000, 8206.000000, 8230.000000, 8234.000000
4178, 193108960.000000, 1831.000000, 8213.000000, 8229.000000, 8234.000000
4179, 193109120.000000, 1768.000000, 8223.000000, 8231.000000, 8241.000000
4180, 193109280.000000, 1700.500000, 8234.000000, 8235.000000, 8250.000000
4181, 193109440.000000, 1638.000000, 8245.000000, 8241.000000, 8263.000000
4182, 193109600.000000, 1586.000000, 8253.000000, 8238.000000, 8262.000000
4183, 193109760.000000, 1543.000000, 8251.000000, 8225.000000, 8249.000000
4184, 193109920.000000, 1510.000000, 8233.000000, 8209.000000, 8227.000000
4185, 193110080.000000, 1487.000000, 8195.000000, 8205.000000, 8208.000000
4186, 193110240.000000, 1476.500000, 8171.000000, 8204.000000, 8197.000000
4187, 193110400.000000, 1466.000000, 8160.000000, 8199.000000, 8185.000000
4188, 193110560.000000, 1455.000000, 8160.000000, 8194.000000, 8180.000000
4189, 193110720.000000, 1442.000000, 8162.000000, 8191.000000, 8178.000000
4190, 193110880.000000, 1422.500000, 8164.000000, 8193.000000, 8178.000000
4191, 193111040.000000, 1397.000000, 8169.000000, 8198.000000, 8188.000000
4192, 193111200.000000, 1363.500000, 8172.000000, 8199.000000, 8189.000000
4193, 193111360.000000, 1322.000000, 8173.000000, 8192.000000, 8181.000000
4194, 193111520.000000, 1289.500000, 8174.000000, 8186.000000, 8175.000000
4195, 193111680.000000, 1342.000000, 8174.000000, 8185.000000, 8174.000000
4196, 193111840.000000, 1577.500000, 8172.000000, 8189.000000, 8177.000000
4197, 193112000.000000, 1978.000000, 8173.000000, 8189.000000, 8178.000000
4198, 193112160.000000, 2374.000000, 8174.000000, 8184.000000, 8173.000000
4199, 193112320.000000, 2624.000000, 8174.000000, 8179.000000, 8166.000000
4200, 193112480.000000, 2672.000000, 8175.000000, 8182.000000, 8170.000000
4201, 193112640.000000, 2605.000000, 8187.000000, 8211.000000, 8219.000000
4202, 193112800.000000, 2493.500000, 8199.000000, 8231.000000, 8253.000000
4203, 193112960.000000, 2386.000000, 8196.000000, 8200.000000, 8204.000000
4204, 193113120.000000, 2309.000000, 8174.000000, 8175.000000, 8162.000000
4205, 193113280.000000, 2251.000000, 8169.000000, 8171.000000, 8153.000000
4206, 193113440.000000, 2184.000000, 8167.000000, 8177.000000, 8158.000000
4207, 193113600.000000, 2110.000000, 8175.000000, 8173.000000, 8151.000000
4208, 193113760.000000, 2059.500000, 8287.000000, 8166.000000, 8218.000000
4209, 193113920.000000, 2051.000000, 8252.000000, 7871.000000, 7884.000000
4210, 193114080.000000, 2067.500000, 8149.000000, 8135.000000, 8088.000000
4211, 193114240.000000, 2086.000000, 8180.000000, 8216.000000, 8207.000000
4212, 193114400.000000, 2089.000000, 8186.000000, 8224.000000, 8217.000000
4213, 193114560.000000, 2066.000000, 8191.000000, 8223.000000, 8218.000000
4214, 193114720.000000, 2020.500000, 8196.000000, 8221.000000, 8217.000000
4215, 193114880.000000, 1961.000000, 8204.000000, 8227.000000, 8228.000000
4216, 193115040.000000, 1891.500000, 8213.000000, 8235.000000, 8242.000000
4217, 193115200.000000, 1826.000000, 8220.000000, 8241.000000, 8249.000000
4218, 193115360.000000, 1769.500000, 8228.000000, 8239.000000, 8252.000000
4219, 193115520.000000, 1725.000000, 8240.000000, 8235.000000, 8252.000000
4220, 193115680.000000, 1690.000000, 8250.000000, 8233.000000, 8255.000000
4221, 193115840.000000, 1666.000000, 8254.000000, 8231.000000, 8257.000000
4222, 193116000.000000, 1648.500000, 8236.000000, 8223.000000, 8243.000000
4223, 193116160.000000, 1638.000000, 8200.000000, 8212.000000, 8220.000000
4224, 193116320.000000, 1630.500000, 8171.000000, 8200.000000, 8191.000000
4225, 193116480.000000, 1624.000000, 8160.000000, 8198.000000, 8184.000000
4226, 193116640.000000, 1607.000000, 8157.000000, 8201.000000, 8187.000000
4227, 193116800.000000, 1585.000000, 8158.000000, 8204.000000, 8189.000000
4228, 193116960.000000, 1560.500000, 8161.000000, 8200.000000, 8187.000000
4229, 193117120.000000, 1531.000000, 8165.000000, 8196.000000, 8185.000000
4230, 193117280.000000, 1496.000000, 8166.000000, 8195.000000, 8183.000000
4231, 193117440.000000, 1454.000000, 8171.000000, 8199.000000, 8190.000000
4232, 193117600.000000, 1416.000000, 8171.000000, 8197.000000, 8188.000000
4233, 193117760.000000, 1446.000000, 8170.000000, 8190.000000, 8179.000000
4234, 193117920.000000, 1661.000000, 8171.000000, 8183.000000, 8172.000000
4235, 193118080.000000, 2070.000000, 8171.000000, 8184.000000, 8173.000000
4236, 193118240.000000, 2519.000000, 8172.000000, 8188.000000, 8178.000000
4237, 193118400.000000, 2829.000000, 8173.000000, 8189.000000, 8180.000000
4238, 193118560.000000, 2915.500000, 8172.000000, 8184.000000, 8174.000000
4239, 193118720.000000, 2858.000000, 8178.000000, 8188.000000, 8184.000000
4240, 193118880.000000, 2727.000000, 8185.000000, 8206.000000, 8216.000000
4241, 193119040.000000, 2593.000000, 8199.000000, 8217.000000, 8231.000000
4242, 193119200.000000, 2491.000000, 8188.000000, 8193.000000, 8193.000000
4243, 193119360.000000, 2415.000000, 8171.000000, 8175.000000, 8162.000000
4244, 193119520.000000, 2345.000000, 8171.000000, 8168.000000, 8153.000000
4245, 193119680.000000, 2260.000000, 8170.000000, 8171.000000, 8156.000000
4246, 193119840.000000, 2193.500000, 8212.000000, 8214.000000, 8220.000000
4247, 193120000.000000, 2164.000000, 8366.000000, 8011.000000, 8106.000000
4248, 193120160.000000, 2174.500000, 8101.000000, 7999.000000, 7940.000000
4249, 193120320.000000, 2191.000000, 8178.000000, 8181.000000, 8167.000000
4250, 193120480.000000, 2191.000000, 8185.000000, 8206.000000, 8199.000000
4251, 193120640.000000, 2166.000000, 8191.000000, 8217.000000, 8214.000000
4252, 193120800.000000, 2111.000000, 8195.000000, 8220.000000, 8219.000000
4253, 193120960.000000, 2039.000000, 8201.000000, 8219.000000, 8220.000000
4254, 193121120.000000, 1960.000000, 8209.000000, 8218.000000, 8222.000000
4255, 193121280.000000, 1879.000000, 8218.000000, 8224.000000, 8232.000000
4256, 193121440.000000, 1802.500000, 8229.000000, 8233.000000, 8247.000000
4257, 193121600.000000, 1737.000000, 8239.000000, 8236.000000, 8256.000000
4258, 193121760.000000, 1682.000000, 8248.000000, 8228.000000, 8248.000000
4259, 193121920.000000, 1637.000000, 8255.000000, 8216.000000, 8239.000000
4260, 193122080.000000, 1600.500000, 8253.000000, 8208.000000, 8232.000000
4261, 193122240.000000, 1571.000000, 8222.000000, 8207.000000, 8222.000000
4262, 193122400.000000, 1543.000000, 8183.000000, 8207.000000, 8208.000000
4263, 193122560.000000, 1520.000000, 8161.000000, 8197.000000, 8188.000000
4264, 193122720.000000, 1491.000000, 8153.000000, 8191.000000, 8176.000000
4265, 193122880.000000, 1465.000000, 8154.000000, 8194.000000, 8180.000000
4266, 193123040.000000, 1432.000000, 8157.000000, 8200.000000, 8188.000000
4267, 193123200.000000, 1391.000000, 8162.000000, 8202.000000, 8193.000000
4268, 193123360.000000, 1343.500000, 8169.000000, 8196.000000, 8188.000000
4269, 193123520.000000, 1293.000000, 8171.000000, 8188.000000, 8181.000000
4270, 193123680.000000, 1237.000000, 8172.000000, 8189.000000, 8181.000000
4271, 193123840.000000, 1194.000000, 8170.000000, 8191.000000, 8182.000000
4272, 193124000.000000, 1238.000000, 8169.000000, 8191.000000, 8183.000000
4273, 193124160.000000, 1463.000000, 8165.000000, 8184.000000, 8173.000000
4274, 193124320.000000, 1879.000000, 8166.000000, 8179.000000, 8167.000000
4275, 193124480.000000, 2308.000000, 8169.000000, 8182.000000, 8172.000000
4276, 193124640.000000, 2582.000000, 8167.000000, 8187.000000, 8176.000000
4277, 193124800.000000, 2655.000000, 8178.000000, 8209.000000, 8215.000000
4278, 193124960.000000, 2572.000000, 8190.000000, 8224.000000, 8244.000000
4279, 193125120.000000, 2427.000000, 8192.000000, 8197.000000, 8202.000000
4280, 193125280.000000, 2281.000000, 8173.000000, 8178.000000, 8169.000000
4281, 193125440.000000, 2166.000000, 8165.000000, 8176.000000, 8161.000000
4282, 193125600.000000, 2078.500000, 8165.000000, 8176.000000, 8161.000000
4283, 193125760.000000, 1989.000000, 8174.000000, 8167.000000, 8150.000000
4284, 193125920.000000, 1906.500000, 8276.000000, 8174.000000, 8223.000000
4285, 193126080.000000, 1856.000000, 8260.000000, 7876.000000, 7902.000000
4286, 193126240.000000, 1852.500000, 8141.000000, 8125.000000, 8078.000000
4287, 193126400.000000, 1880.000000, 8182.000000, 8212.000000, 8207.000000
4288, 193126560.000000, 1905.500000, 8184.000000, 8215.000000, 8211.000000
4289, 193126720.000000, 1909.000000, 8189.000000, 8215.000000, 8212.000000
4290, 193126880.000000, 1880.000000, 8198.000000, 8220.000000, 8221.000000
4291, 193127040.000000, 1820.000000, 8204.000000, 8229.000000, 8234.000000
4292, 193127200.000000, 1746.000000, 8212.000000, 8233.000000, 8243.000000
4293, 193127360.000000, 1665.000000, 8220.000000, 8233.000000, 8245.000000
4294, 193127520.000000, 1587.000000, 8231.000000, 8232.000000, 8249.000000
4295, 193127680.000000, 1521.000000, 8243.000000, 8236.000000, 8259.000000
4296, 193127840.000000, 1466.000000, 8251.000000, 8237.000000, 8265.000000
4297, 193128000.000000, 1421.000000, 8254.000000, 8229.000000, 8259.000000
4298, 193128160.000000, 1383.500000, 8239.000000, 8211.000000, 8235.000000
4299, 193128320.000000, 1358.000000, 8199.000000, 8201.000000, 8209.000000
4300, 193128480.000000, 1339.000000, 8172.000000, 8197.000000, 8193.000000
4301, 193128640.000000, 1327.000000, 8160.000000, 8198.000000, 8188.000000
4302, 193128800.000000, 1312.000000, 8155.000000, 8196.000000, 8183.000000
4303, 193128960.000000, 1296.000000, 8157.000000, 8192.000000, 8178.000000
4304, 193129120.000000, 1275.500000, 8161.000000, 8189.000000, 8176.000000
4305, 193129280.000000, 1250.000000, 8166.000000, 8191.000000, 8181.000000
4306, 193129440.000000, 1219.000000, 8168.000000, 8196.000000, 8189.000000
4307, 193129600.000000, 1179.000000, 8170.000000, 8194.000000, 8187.000000
4308, 193129760.000000, 1136.500000, 8170.000000, 8186.000000, 8177.000000
4309, 193129920.000000, 1122.000000, 8169.000000, 8180.000000, 8170.000000
4310, 193130080.000000, 1251.500000, 8168.000000, 8183.000000, 8172.000000
4311, 193130240.000000, 1585.000000, 8169.000000, 8186.000000, 8176.000000
4312, 193130400.000000, 2071.000000, 8169.000000, 8186.000000, 8176.000000
4313, 193130560.000000, 2489.000000, 8169.000000, 8181.000000, 8171.000000
4314, 193130720.000000, 2709.000000, 8168.000000, 8178.000000, 8167.000000
4315, 193130880.000000, 2737.000000, 8184.000000, 8205.000000, 8215.000000
4316, 193131040.000000, 2644.500000, 8197.000000, 8230.000000, 8256.000000
4317, 193131200.000000, 2511.000000, 8194.000000, 8203.000000, 8211.000000
4318, 193131360.000000, 2387.500000, 8172.000000, 8177.000000, 8167.000000
4319, 193131520.000000, 2295.000000, 8166.000000, 8167.000000, 8151.000000
4320, 193131680.000000, 2220.000000, 8166.000000, 8169.000000, 8153.000000
4321, 193131840.000000, 2142.000000, 8174.000000, 8169.000000, 8150.000000
4322, 193132000.000000, 2067.500000, 8284.000000, 8156.000000, 8212.000000
4323, 193132160.000000, 2032.000000, 8232.000000, 7869.000000, 7875.000000
4324, 193132320.000000, 2042.500000, 8150.000000, 8136.000000, 8095.000000
4325, 193132480.000000, 2083.000000, 8182.000000, 8209.000000, 8204.000000
4326, 193132640.000000, 2117.000000, 8187.000000, 8221.000000, 8219.000000
4327, 193132800.000000, 2132.000000, 8192.000000, 8224.000000, 8223.000000
4328, 193132960.000000, 2112.000000, 8198.000000, 8221.000000, 8222.000000
4329, 193133120.000000, 2061.000000, 8205.000000, 8220.000000, 8224.000000
4330, 193133280.000000, 1991.500000, 8213.000000, 8227.000000, 8236.000000
4331, 193133440.000000, 1913.000000, 8222.000000, 8236.000000, 8251.000000
4332, 193133600.000000, 1840.000000, 8231.000000, 8241.000000, 8260.000000
4333, 193133760.000000, 1774.000000, 8241.000000, 8237.000000, 8259.000000
4334, 193133920.000000, 1717.000000, 8250.000000, 8229.000000, 8255.000000
4335, 193134080.000000, 1670.000000, 8253.000000, 8224.000000, 8254.000000
4336, 193134240.000000, 1633.500000, 8238.000000, 8218.000000, 8244.000000
4337, 193134400.000000, 1609.000000, 8200.000000, 8212.000000, 8222.000000
4338, 193134560.000000, 1590.500000, 8173.000000, 8198.000000, 8195.000000
4339, 193134720.000000, 1577.000000, 8161.000000, 8189.000000, 8178.000000
4340, 193134880.000000, 1565.000000, 8158.000000, 8192.000000, 8179.000000
4341, 193135040.000000, 1551.000000, 8160.000000, 8198.000000, 8186.000000
4342, 193135200.000000, 1528.000000, 8165.000000, 8198.000000, 8189.000000
4343, 193135360.000000, 1503.000000, 8167.000000, 8193.000000, 8184.000000
4344, 193135520.000000, 1468.500000, 8170.000000, 8189.000000, 8180.000000
4345, 193135680.000000, 1426.000000, 8171.000000, 8190.000000, 8183.000000
4346, 193135840.000000, 1378.000000, 8172.000000, 8192.000000, 8184.000000
4347, 193136000.000000, 1359.000000, 8171.000000, 8190.000000, 8181.000000
4348, 193136160.000000, 1490.000000, 8171.000000, 8184.000000, 8175.000000
4349, 193136320.000000, 1853.000000, 8172.000000, 8180.000000, 8170.000000
4350, 193136480.000000, 2366.500000, 8172.000000, 8183.000000, 8173.000000
4351, 193136640.000000, 2822.000000, 8173.000000, 8187.000000, 8178.000000
4352, 193136800.000000, 3047.000000, 8173.000000, 8187.000000, 8178.000000
4353, 193136960.000000, 3081.000000, 8184.000000, 8206.000000, 8216.000000
4354, 193137120.000000, 2987.000000, 8199.000000, 8221.000000, 8245.000000
4355, 193137280.000000, 2850.000000, 8198.000000, 8198.000000, 8205.000000
4356, 193137440.000000, 2726.500000, 8173.000000, 8181.000000, 8170.000000
