1984, 2027736.000000, 1501.000000, 8283.500000, 8334.500000, 8372.500000
1985, 2027896.000000, 1427.375000, 8276.000000, 8331.000000, 8364.000000
1986, 2028056.000000, 1364.750000, 8254.500000, 8307.000000, 8332.000000
1987, 2028216.000000, 1314.375000, 8217.500000, 8259.000000, 8269.000000
1988, 2028376.000000, 1272.375000, 8176.500000, 8207.000000, 8202.000000
1989, 2028536.000000, 1237.625000, 8147.000000, 8179.500000, 8163.000000
1990, 2028696.000000, 1210.250000, 8141.000000, 8174.500000, 8155.500000
1991, 2028856.000000, 1186.125000, 8146.500000, 8174.500000, 8157.500000
1992, 2029016.000000, 1164.750000, 8156.000000, 8175.500000, 8162.500000
1993, 2029176.000000, 1150.625000, 8159.500000, 8176.000000, 8165.500000
1994, 2029336.000000, 1137.750000, 8160.000000, 8175.500000, 8165.500000
1995, 2029496.000000, 1122.750000, 8160.000000, 8176.000000, 8165.000000
1996, 2029656.000000, 1095.750000, 8159.000000, 8172.500000, 8159.500000
1997, 2029816.000000, 1052.500000, 8155.500000, 8170.000000, 8155.000000
1998, 2029976.000000, 1035.125000, 8154.000000, 8168.000000, 8152.000000
1999, 2030136.000000, 1159.125000, 8153.000000, 8169.500000, 8154.500000
2000, 2030296.000000, 1532.750000, 8154.500000, 8171.000000, 8155.500000
2001, 2030456.000000, 2102.500000, 8157.500000, 8171.000000, 8156.500000
2002, 2030616.000000, 2682.750000, 8158.500000, 8172.000000, 8157.000000
2003, 2030776.000000, 3110.875000, 8159.000000, 8171.000000, 8156.500000
2004, 2030936.000000, 3320.250000, 8160.000000, 8173.000000, 8159.000000
2005, 2031096.000000, 3349.375000, 8162.000000, 8175.000000, 8162.000000
2006, 2031256.000000, 3243.250000, 8165.500000, 8176.000000, 8165.500000
2007, 2031416.000000, 3080.750000, 8172.000000, 8184.500000, 8184.500000
2008, 2031576.000000, 2897.125000, 8178.000000, 8190.000000, 8198.000000
2009, 2031736.000000, 2698.250000, 8180.500000, 8185.000000, 8186.500000
2010, 2031896.000000, 2493.750000, 8170.500000, 8177.000000, 8168.000000
2011, 2032056.000000, 2317.000000, 8169.000000, 8174.000000, 8162.000000
2012, 2032216.000000, 2205.875000, 8172.000000, 8196.500000, 8175.500000
2013, 2032376.000000, 2164.125000, 8340.500000, 8269.000000, 8333.000000
2014, 2032536.000000, 2172.375000, 8443.500000, 7576.500000, 7736.000000
2015, 2032696.000000, 2194.000000, 8015.000000, 7918.000000, 7807.500000
2016, 2032856.000000, 2201.500000, 8187.000000, 8234.500000, 8230.500000
2017, 2033016.000000, 2172.250000, 8191.000000, 8261.500000, 8261.500000
2018, 2033176.000000, 2106.875000, 8199.000000, 8271.500000, 8275.500000
2019, 2033336.000000, 2009.250000, 8208.000000, 8277.500000, 8285.000000
2020, 2033496.000000, 1895.375000, 8224.000000, 8285.000000, 8299.500000
2021, 2033656.000000, 1779.625000, 8241.000000, 8294.500000, 8316.000000
2022, 2033816.000000, 1669.625000, 8259.000000, 8308.500000, 8338.000000
2023, 2033976.000000, 1568.000000, 8277.500000, 8327.000000, 8364.000000
2024, 2034136.000000, 1479.000000, 8289.000000, 8337.500000, 8377.500000
2025, 2034296.000000, 1403.625000, 8283.000000, 8333.500000, 8371.000000
2026, 2034456.000000, 1341.750000, 8260.000000, 8310.000000, 8337.500000
2027, 2034616.000000, 1291.375000, 8218.000000, 8258.000000, 8269.000000
2028, 2034776.000000, 1249.750000, 8175.000000, 8205.500000, 8199.500000
2029, 2034936.000000, 1216.625000, 8148.000000, 8181.000000, 8164.000000
2030, 2035096.000000, 1189.625000, 8140.000000, 8177.000000, 8157.500000
2031, 2035256.000000, 1163.375000, 8147.000000, 8178.000000, 8161.000000
2032, 2035416.000000, 1138.625000, 8154.000000, 8177.000000, 8163.000000
2033, 2035576.000000, 1115.250000, 8159.000000, 8177.000000, 8166.000000
2034, 2035736.000000, 1096.375000, 8160.000000, 8176.500000, 8166.500000
2035, 2035896.000000, 1076.125000, 8161.500000, 8177.000000, 8165.000000
2036, 2036056.000000, 1046.000000, 8162.500000, 8174.500000, 8163.000000
2037, 2036216.000000, 1003.250000, 8160.000000, 8172.500000, 8158.500000
2038, 2036376.000000, 985.375000, 8158.000000, 8172.000000, 8156.500000
2039, 2036536.000000, 1106.375000, 8158.000000, 8173.500000, 8158.500000
2040, 2036696.000000, 1479.500000, 8157.000000, 8174.500000, 8158.500000
2041, 2036856.000000, 2060.625000, 8161.000000, 8174.000000, 8159.000000
2042, 2037016.000000, 2664.250000, 8160.000000, 8174.000000, 8159.000000
2043, 2037176.000000, 3119.500000, 8161.000000, 8175.000000, 8160.000000
2044, 2037336.000000, 3349.125000, 8163.000000, 8177.500000, 8163.500000
2045, 2037496.000000, 3384.250000, 8163.500000, 8179.000000, 8164.500000
2046, 2037656.000000, 3279.250000, 8169.000000, 8180.000000, 8168.000000
2047, 2037816.000000, 3078.000000, 8176.000000, 8188.000000, 8186.500000
2048, 2037976.000000, 2854.000000, 8177.000000, 8192.500000, 8197.500000
2049, 2038136.000000, 2650.250000, 8182.000000, 8189.500000, 8191.500000
2050, 2038296.000000, 2448.500000, 8174.500000, 8180.500000, 8172.000000
2051, 2038456.000000, 2259.250000, 8169.500000, 8174.500000, 8160.000000
2052, 2038616.000000, 2166.750000, 8171.000000, 8180.500000, 8163.000000
2053, 2038776.000000, 2148.625000, 8255.500000, 8324.500000, 8348.000000
2054, 2038936.000000, 2169.250000, 8523.000000, 7654.000000, 7850.500000
2055, 2039096.000000, 2176.125000, 7982.000000, 7840.500000, 7723.000000
2056, 2039256.000000, 2145.500000, 8183.000000, 8221.000000, 8211.500000
2057, 2039416.000000, 2079.000000, 8190.000000, 8258.500000, 8256.500000
2058, 2039576.000000, 1967.750000, 8198.500000, 8270.000000, 8273.500000
2059, 2039736.000000, 1834.125000, 8206.500000, 8276.500000, 8283.000000
2060, 2039896.000000, 1684.625000, 8221.000000, 8283.500000, 8297.000000
2061, 2040056.000000, 1569.375000, 8239.500000, 8293.500000, 8314.000000
2062, 2040216.000000, 1468.125000, 8257.000000, 8306.500000, 8335.000000
2063, 2040376.000000, 1382.125000, 8274.500000, 8322.500000, 8358.500000
2064, 2040536.000000, 1309.250000, 8292.000000, 8335.500000, 8379.000000
2065, 2040696.000000, 1249.750000, 8288.000000, 8334.500000, 8373.500000
2066, 2040856.000000, 1200.250000, 8267.500000, 8314.000000, 8345.000000
2067, 2041016.000000, 1159.875000, 8231.000000, 8268.000000, 8284.000000
2068, 2041176.000000, 1124.500000, 8184.000000, 8214.000000, 8209.000000
2069, 2041336.000000, 1096.375000, 8152.500000, 8185.000000, 8168.000000
2070, 2041496.000000, 1071.625000, 8142.500000, 8178.000000, 8156.500000
2071, 2041656.000000, 1050.000000, 8147.500000, 8177.500000, 8158.000000
2072, 2041816.000000, 1030.375000, 8153.500000, 8176.500000, 8161.000000
2073, 2041976.000000, 1012.000000, 8158.000000, 8177.500000, 8162.500000
2074, 2042136.000000, 992.250000, 8160.000000, 8177.500000, 8163.500000
2075, 2042296.000000, 961.750000, 8164.000000, 8177.000000, 8164.000000
2076, 2042456.000000, 922.375000, 8162.000000, 8175.000000, 8160.000000
2077, 2042616.000000, 914.750000, 8160.000000, 8172.500000, 8156.500000
2078, 2042776.000000, 1080.375000, 8159.000000, 8172.000000, 8155.000000
2079, 2042936.000000, 1485.875000, 8159.000000, 8173.500000, 8156.500000
2080, 2043096.000000, 2083.750000, 8160.500000, 8174.000000, 8157.500000
2081, 2043256.000000, 2666.750000, 8161.500000, 8174.500000, 8158.500000
2082, 2043416.000000, 3087.750000, 8161.500000, 8174.500000, 8158.500000
2083, 2043576.000000, 3279.875000, 8163.000000, 8175.500000, 8159.500000
2084, 2043736.000000, 3271.750000, 8163.500000, 8176.500000, 8161.000000
2085, 2043896.000000, 3140.000000, 8165.500000, 8176.000000, 8160.000000
2086, 2044056.000000, 2952.000000, 8167.000000, 8176.500000, 8163.500000
2087, 2044216.000000, 2746.500000, 8169.000000, 8176.000000, 8164.000000
2088, 2044376.000000, 2533.375000, 8175.500000, 8185.500000, 8183.000000
2089, 2044536.000000, 2322.250000, 8179.500000, 8188.500000, 8191.500000
2090, 2044696.000000, 2148.750000, 8187.500000, 8185.500000, 8186.500000
2091, 2044856.000000, 2045.875000, 8178.500000, 8177.500000, 8170.000000
2092, 2045016.000000, 2013.000000, 8171.000000, 8171.000000, 8158.000000
2093, 2045176.000000, 2028.625000, 8172.000000, 8176.000000, 8160.000000
2094, 2045336.000000, 2055.750000, 8254.500000, 8320.500000, 8343.500000
2095, 2045496.000000, 2066.250000, 8559.500000, 7683.500000, 7890.500000
2096, 2045656.000000, 2037.875000, 7983.000000, 7842.500000, 7727.500000
2097, 2045816.000000, 1967.375000, 8181.500000, 8209.500000, 8196.500000
2098, 2045976.000000, 1868.500000, 8189.500000, 8251.000000, 8246.500000
2099, 2046136.000000, 1755.750000, 8197.000000, 8262.500000, 8263.000000
2100, 2046296.000000, 1641.125000, 8208.000000, 8267.500000, 8273.000000
2101, 2046456.000000, 1532.375000, 8223.000000, 8274.000000, 8286.000000
2102, 2046616.000000, 1433.500000, 8238.000000, 8282.000000, 8300.000000
2103, 2046776.000000, 1349.000000, 8253.000000, 8294.500000, 8320.000000
2104, 2046936.000000, 1273.875000, 8274.000000, 8312.000000, 8345.500000
2105, 2047096.000000, 1213.750000, 8290.000000, 8322.500000, 8361.000000
2106, 2047256.000000, 1168.000000, 8283.000000, 8320.000000, 8355.500000
2107, 2047416.000000, 1132.625000, 8262.500000, 8302.500000, 8329.500000
2108, 2047576.000000, 1106.625000, 8226.000000, 8259.500000, 8272.500000
2109, 2047736.000000, 1086.875000, 8186.000000, 8210.000000, 8206.500000
2110, 2047896.000000, 1069.375000, 8153.000000, 8181.000000, 8164.500000
2111, 2048056.000000, 1052.875000, 8141.000000, 8171.500000, 8150.500000
2112, 2048216.000000, 1035.000000, 8145.000000, 8170.000000, 8150.000000
2113, 2048376.000000, 1015.000000, 8149.500000, 8171.500000, 8153.500000
2114, 2048536.000000, 999.375000, 8156.500000, 8172.500000, 8158.500000
2115, 2048696.000000, 980.125000, 8160.500000, 8173.000000, 8160.500000
2116, 2048856.000000, 954.500000, 8162.500000, 8170.500000, 8158.000000
2117, 2049016.000000, 920.000000, 8160.000000, 8168.000000, 8154.000000
2118, 2049176.000000, 900.875000, 8158.000000, 8167.500000, 8152.500000
2119, 2049336.000000, 995.125000, 8157.000000, 8168.000000, 8153.000000
2120, 2049496.000000, 1329.875000, 8158.000000, 8169.000000, 8154.000000
2121, 2049656.000000, 1885.375000, 8159.000000, 8168.500000, 8153.500000
2122, 2049816.000000, 2491.500000, 8159.500000, 8167.500000, 8153.000000
2123, 2049976.000000, 2968.250000, 8159.500000, 8167.500000, 8153.000000
2124, 2050136.000000, 3218.750000, 8161.000000, 8169.000000, 8155.500000
2125, 2050296.000000, 3267.750000, 8165.500000, 8171.000000, 8159.500000
2126, 2050456.000000, 3158.375000, 8165.000000, 8169.500000, 8157.000000
2127, 2050616.000000, 2974.250000, 8170.500000, 8174.000000, 8168.000000
2128, 2050776.000000, 2756.250000, 8172.500000, 8178.500000, 8177.500000
2129, 2050936.000000, 2529.375000, 8179.500000, 8182.000000, 8185.500000
2130, 2051096.000000, 2306.625000, 8180.500000, 8176.500000, 8175.000000
2131, 2051256.000000, 2121.375000, 8169.000000, 8167.500000, 8155.500000
2132, 2051416.000000, 2014.625000, 8170.000000, 8165.500000, 8154.500000
2133, 2051576.000000, 1982.375000, 8182.000000, 8257.500000, 8243.500000
2134, 2051736.000000, 2007.750000, 8560.500000, 8063.500000, 8239.000000
2135, 2051896.000000, 2055.625000, 8077.000000, 7760.500000, 7740.000000
2136, 2052056.000000, 2093.375000, 8112.000000, 8080.500000, 8013.500000
2137, 2052216.000000, 2096.625000, 8185.000000, 8224.500000, 8217.500000
2138, 2052376.000000, 2058.625000, 8193.500000, 8241.000000, 8240.000000
2139, 2052536.000000, 1984.250000, 8205.500000, 8247.500000, 8253.500000
2140, 2052696.000000, 1886.250000, 8218.000000, 8254.500000, 8265.000000
2141, 2052856.000000, 1781.250000, 8233.000000, 8260.500000, 8278.500000
2142, 2053016.000000, 1678.375000, 8249.000000, 8271.500000, 8295.500000
2143, 2053176.000000, 1582.750000, 8266.500000, 8288.000000, 8319.000000
2144, 2053336.000000, 1494.625000, 8284.000000, 8302.500000, 8340.000000
2145, 2053496.000000, 1419.375000, 8287.500000, 8306.000000, 8343.500000
2146, 2053656.000000, 1357.750000, 8272.000000, 8295.000000, 8325.500000
2147, 2053816.000000, 1311.875000, 8243.000000, 8262.500000, 8282.500000
2148, 2053976.000000, 1278.875000, 8199.500000, 8218.000000, 8222.000000
2149, 2054136.000000, 1252.250000, 8163.000000, 8182.000000, 8173.000000
2150, 2054296.000000, 1231.750000, 8145.000000, 8171.000000, 8155.000000
2151, 2054456.000000, 1216.750000, 8147.000000, 8169.000000, 8154.000000
2152, 2054616.000000, 1205.875000, 8152.500000, 8169.000000, 8156.000000
2153, 2054776.000000, 1195.625000, 8157.000000, 8172.000000, 8160.000000
2154, 2054936.000000, 1185.125000, 8160.500000, 8173.500000, 8164.000000
2155, 2055096.000000, 1170.750000, 8162.000000, 8173.500000, 8163.000000
2156, 2055256.000000, 1147.500000, 8161.000000, 8172.500000, 8161.500000
2157, 2055416.000000, 1109.125000, 8158.000000, 8171.500000, 8158.500000
2158, 2055576.000000, 1093.375000, 8155.000000, 8171.500000, 8158.000000
2159, 2055736.000000, 1208.000000, 8156.000000, 8174.000000, 8159.500000
2160, 2055896.000000, 1555.500000, 8158.500000, 8175.500000, 8162.500000
2161, 2056056.000000, 2090.250000, 8158.500000, 8175.500000, 8161.500000
2162, 2056216.000000, 2638.625000, 8160.500000, 8174.000000, 8162.500000
2163, 2056376.000000, 3037.250000, 8165.000000, 8182.500000, 8177.500000
2164, 2056536.000000, 3226.250000, 8166.500000, 8188.000000, 8187.000000
2165, 2056696.000000, 3229.750000, 8175.000000, 8184.000000, 8188.500000
2166, 2056856.000000, 3093.000000, 8176.500000, 8183.000000, 8179.000000
2167, 2057016.000000, 2890.875000, 8162.500000, 8173.500000, 8159.000000
2168, 2057176.000000, 2656.625000, 8163.500000, 8176.500000, 8161.000000
2169, 2057336.000000, 2410.375000, 8216.500000, 8312.000000, 8321.000000
2170, 2057496.000000, 2175.875000, 8564.000000, 7926.000000, 8118.000000
2171, 2057656.000000, 1998.500000, 7979.000000, 7849.500000, 7768.000000
2172, 2057816.000000, 1915.125000, 8149.000000, 8160.000000, 8118.500000
2173, 2057976.000000, 1913.875000, 8182.000000, 8237.000000, 8228.000000
2174, 2058136.000000, 1965.375000, 8193.500000, 8251.500000, 8249.000000
2175, 2058296.000000, 2027.125000, 8207.000000, 8258.500000, 8263.500000
2176, 2058456.000000, 2069.375000, 8219.500000, 8265.500000, 8275.000000
2177, 2058616.000000, 2068.000000, 8236.000000, 8273.500000, 8291.500000
2178, 2058776.000000, 2021.125000, 8252.000000, 8285.000000, 8309.000000
2179, 2058936.000000, 1936.750000, 8274.500000, 8304.000000, 8337.000000
2180, 2059096.000000, 1832.875000, 8291.500000, 8318.000000, 8356.500000
2181, 2059256.000000, 1723.500000, 8287.000000, 8318.500000, 8353.000000
2182, 2059416.000000, 1619.375000, 8266.000000, 8301.000000, 8328.500000
2183, 2059576.000000, 1529.250000, 8228.000000, 8262.500000, 8275.500000
2184, 2059736.000000, 1453.125000, 8181.000000, 8215.000000, 8211.000000
2185, 2059896.000000, 1388.000000, 8150.000000, 8186.000000, 8169.500000
2186, 2060056.000000, 1332.875000, 8138.000000, 8176.500000, 8155.500000
2187, 2060216.000000, 1291.000000, 8138.000000, 8175.000000, 8156.000000
2188, 2060376.000000, 1255.875000, 8148.000000, 8176.500000, 8162.500000
2189, 2060536.000000, 1234.000000, 8153.000000, 8178.500000, 8165.500000
2190, 2060696.000000, 1214.375000, 8157.500000, 8179.500000, 8167.000000
2191, 2060856.000000, 1196.000000, 8159.500000, 8178.500000, 8166.000000
2192, 2061016.000000, 1169.125000, 8156.500000, 8176.000000, 8161.500000
2193, 2061176.000000, 1133.875000, 8152.000000, 8174.500000, 8157.500000
2194, 2061336.000000, 1129.750000, 8150.500000, 8174.500000, 8158.000000
2195, 2061496.000000, 1268.875000, 8152.000000, 8175.500000, 8158.500000
2196, 2061656.000000, 1637.750000, 8153.000000, 8173.500000, 8158.500000
2197, 2061816.000000, 2164.375000, 8154.000000, 8174.000000, 8157.000000
2198, 2061976.000000, 2678.625000, 8156.500000, 8174.500000, 8159.000000
2199, 2062136.000000, 3047.625000, 8158.000000, 8179.000000, 8165.500000
2200, 2062296.000000, 3204.875000, 8164.000000, 8187.500000, 8180.500000
2201, 2062456.000000, 3180.875000, 8171.000000, 8190.000000, 8195.000000
2202, 2062616.000000, 3039.250000, 8170.000000, 8182.000000, 8178.500000
2203, 2062776.000000, 2836.750000, 8160.500000, 8175.500000, 8159.500000
2204, 2062936.000000, 2605.625000, 8159.000000, 8172.500000, 8155.500000
2205, 2063096.000000, 2365.000000, 8161.500000, 8227.500000, 8197.500000
2206, 2063256.000000, 2140.625000, 8441.000000, 8173.000000, 8285.000000
2207, 2063416.000000, 1975.500000, 8302.500000, 7632.000000, 7709.500000
2208, 2063576.000000, 1899.250000, 8056.000000, 8002.000000, 7906.500000
2209, 2063736.000000, 1906.500000, 8178.000000, 8232.500000, 8221.500000
2210, 2063896.000000, 1957.000000, 8186.000000, 8254.500000, 8249.500000
2211, 2064056.000000, 2015.250000, 8197.500000, 8261.000000, 8261.500000
2212, 2064216.000000, 2048.875000, 8207.500000, 8268.000000, 8273.500000
2213, 2064376.000000, 2041.250000, 8219.500000, 8275.500000, 8287.000000
2214, 2064536.000000, 1984.750000, 8240.000000, 8286.500000, 8306.500000
2215, 2064696.000000, 1897.750000, 8258.000000, 8304.000000, 8331.000000
2216, 2064856.000000, 1794.500000, 8280.500000, 8322.000000, 8359.000000
2217, 2065016.000000, 1685.375000, 8289.000000, 8330.000000, 8369.500000
2218, 2065176.000000, 1580.000000, 8276.500000, 8324.500000, 8359.000000
2219, 2065336.000000, 1484.625000, 8249.000000, 8291.500000, 8315.500000
2220, 2065496.000000, 1401.750000, 8205.500000, 8237.500000, 8244.500000
2221, 2065656.000000, 1334.125000, 8163.000000, 8190.000000, 8180.000000
2222, 2065816.000000, 1280.875000, 8139.000000, 8171.000000, 8151.000000
2223, 2065976.000000, 1241.750000, 8134.500000, 8167.000000, 8147.000000
2224, 2066136.000000, 1214.625000, 8139.000000, 8169.500000, 8150.500000
2225, 2066296.000000, 1196.750000, 8149.000000, 8171.500000, 8156.000000
2226, 2066456.000000, 1186.875000, 8154.500000, 8170.500000, 8157.000000
2227, 2066616.000000, 1176.625000, 8154.500000, 8170.000000, 8156.500000
2228, 2066776.000000, 1156.875000, 8154.500000, 8170.500000, 8157.000000
2229, 2066936.000000, 1125.625000, 8154.000000, 8172.000000, 8158.000000
2230, 2067096.000000, 1127.500000, 8154.500000, 8171.000000, 8156.500000
2231, 2067256.000000, 1280.500000, 8154.000000, 8169.500000, 8153.500000
2232, 2067416.000000, 1694.375000, 8153.500000, 8169.000000, 8153.500000
2233, 2067576.000000, 2298.875000, 8152.000000, 8171.000000, 8154.000000
2234, 2067736.000000, 2906.750000, 8154.500000, 8172.500000, 8157.000000
2235, 2067896.000000, 3348.375000, 8156.000000, 8172.500000, 8157.500000
2236, 2068056.000000, 3551.625000, 8158.500000, 8172.500000, 8158.500000
2237, 2068216.000000, 3555.000000, 8158.500000, 8173.500000, 8160.500000
2238, 2068376.000000, 3415.750000, 8167.000000, 8184.500000, 8181.500000
2239, 2068536.000000, 3222.250000, 8174.500000, 8191.000000, 8199.000000
2240, 2068696.000000, 3014.125000, 8177.000000, 8183.500000, 8184.500000
2241, 2068856.000000, 2798.875000, 8166.500000, 8172.500000, 8160.500000
2242, 2069016.000000, 2581.875000, 8163.000000, 8167.000000, 8151.000000
2243, 2069176.000000, 2388.875000, 8163.000000, 8196.500000, 8169.500000
2244, 2069336.000000, 2263.000000, 8364.500000, 8241.500000, 8314.500000
2245, 2069496.000000, 2211.375000, 8420.000000, 7568.500000, 7711.500000
2246, 2069656.000000, 2214.375000, 8026.000000, 7933.500000, 7826.000000
2247, 2069816.000000, 2240.625000, 8180.500000, 8229.500000, 8221.000000
2248, 2069976.000000, 2255.375000, 8185.500000, 8256.000000, 8252.000000
2249, 2070136.000000, 2235.750000, 8196.000000, 8265.500000, 8267.000000
2250, 2070296.000000, 2177.000000, 8210.000000, 8272.500000, 8280.500000
2251, 2070456.000000, 2083.250000, 8223.500000, 8280.000000, 8293.000000
2252, 2070616.000000, 1967.625000, 8238.000000, 8289.500000, 8309.500000
2253, 2070776.000000, 1847.000000, 8255.000000, 8304.000000, 8332.000000
2254, 2070936.000000, 1728.750000, 8278.500000, 8323.500000, 8361.500000
2255, 2071096.000000, 1617.375000, 8294.500000, 8335.000000, 8377.500000
2256, 2071256.000000, 1522.250000, 8288.000000, 8330.500000, 8369.500000
2257, 2071416.000000, 1442.750000, 8263.000000, 8304.000000, 8333.500000
2258, 2071576.000000, 1376.750000, 8215.500000, 8252.500000, 8263.000000
2259, 2071736.000000, 1326.375000, 8170.000000, 8201.500000, 8195.000000
2260, 2071896.000000, 1286.375000, 8144.000000, 8177.000000, 8158.500000
2261, 2072056.000000, 1255.375000, 8138.500000, 8169.500000, 8149.000000
2262, 2072216.000000, 1230.625000, 8138.500000, 8169.000000, 8149.500000
2263, 2072376.000000, 1210.875000, 8145.000000, 8171.500000, 8155.500000
2264, 2072536.000000, 1195.375000, 8152.500000, 8174.000000, 8161.000000
2265, 2072696.000000, 1177.000000, 8157.000000, 8173.500000, 8161.500000
2266, 2072856.000000, 1150.375000, 8159.000000, 8171.500000, 8159.000000
2267, 2073016.000000, 1106.375000, 8156.000000, 8170.500000, 8157.500000
2268, 2073176.000000, 1088.500000, 8154.000000, 8170.500000, 8154.500000
2269, 2073336.000000, 1200.250000, 8153.500000, 8171.500000, 8156.000000
2270, 2073496.000000, 1592.375000, 8154.500000, 8171.000000, 8154.500000
2271, 2073656.000000, 2193.500000, 8154.500000, 8169.500000, 8153.000000
2272, 2073816.000000, 2838.125000, 8153.000000, 8170.000000, 8153.500000
2273, 2073976.000000, 3322.875000, 8157.000000, 8171.500000, 8157.500000
2274, 2074136.000000, 3575.875000, 8156.000000, 8173.000000, 8158.500000
2275, 2074296.000000, 3603.625000, 8161.500000, 8177.500000, 8165.500000
2276, 2074456.000000, 3485.875000, 8167.500000, 8184.000000, 8180.000000
2277, 2074616.000000, 3305.375000, 8176.000000, 8188.500000, 8196.500000
2278, 2074776.000000, 3112.875000, 8177.500000, 8183.000000, 8184.500000
2279, 2074936.000000, 2919.875000, 8166.500000, 8173.000000, 8161.500000
2280, 2075096.000000, 2714.250000, 8164.000000, 8170.500000, 8155.000000
2281, 2075256.000000, 2518.375000, 8166.000000, 8200.000000, 8174.000000
2282, 2075416.000000, 2366.125000, 8371.500000, 8229.500000, 8307.000000
2283, 2075576.000000, 2283.000000, 8407.000000, 7565.000000, 7702.500000
2284, 2075736.000000, 2257.250000, 8026.500000, 7947.000000, 7840.000000
2285, 2075896.000000, 2261.500000, 8182.000000, 8234.000000, 8225.000000
2286, 2076056.000000, 2266.625000, 8188.500000, 8256.500000, 8252.500000
2287, 2076216.000000, 2244.000000, 8196.500000, 8265.500000, 8265.500000
2288, 2076376.000000, 2183.625000, 8208.500000, 8271.500000, 8278.500000
2289, 2076536.000000, 2086.375000, 8220.000000, 8278.500000, 8290.000000
2290, 2076696.000000, 1969.625000, 8238.000000, 8290.000000, 8309.500000
2291, 2076856.000000, 1846.250000, 8259.500000, 8303.500000, 8331.500000
2292, 2077016.000000, 1726.750000, 8280.500000, 8321.500000, 8358.500000
2293, 2077176.000000, 1619.125000, 8293.500000, 8332.500000, 8374.000000
2294, 2077336.000000, 1524.250000, 8286.000000, 8328.500000, 8366.000000
2295, 2077496.000000, 1442.875000, 8262.000000, 8302.000000, 8330.500000
2296, 2077656.000000, 1377.375000, 8216.500000, 8251.000000, 8261.500000
2297, 2077816.000000, 1326.375000, 8169.000000, 8201.000000, 8192.000000
2298, 2077976.000000, 1284.750000, 8140.000000, 8177.500000, 8158.000000
2299, 2078136.000000, 1252.500000, 8134.000000, 8173.500000, 8150.500000
2300, 2078296.000000, 1223.250000, 8140.000000, 8174.500000, 8155.000000
2301, 2078456.000000, 1200.125000, 8147.000000, 8174.500000, 8157.500000
2302, 2078616.000000, 1182.750000, 8154.500000, 8173.000000, 8158.500000
2303, 2078776.000000, 1162.250000, 8155.000000, 8173.500000, 8160.500000
2304, 2078936.000000, 1132.375000, 8157.000000, 8175.000000, 8161.000000
2305, 2079096.000000, 1087.500000, 8156.500000, 8173.500000, 8158.000000
2306, 2079256.000000, 1050.750000, 8156.000000, 8171.000000, 8154.500000
2307, 2079416.000000, 1119.625000, 8156.000000, 8169.000000, 8154.000000
2308, 2079576.000000, 1427.250000, 8152.500000, 8171.000000, 8153.000000
2309, 2079736.000000, 1959.375000, 8155.500000, 8172.000000, 8155.000000
2310, 2079896.000000, 2568.750000, 8157.000000, 8172.000000, 8155.000000
2311, 2080056.000000, 3067.125000, 8158.000000, 8170.500000, 8153.500000
2312, 2080216.000000, 3340.875000, 8159.500000, 8170.000000, 8153.500000
2313, 2080376.000000, 3397.750000, 8160.000000, 8172.000000, 8156.000000
2314, 2080536.000000, 3300.500000, 8169.500000, 8183.500000, 8179.000000
2315, 2080696.000000, 3132.000000, 8175.000000, 8188.000000, 8192.000000
2316, 2080856.000000, 2942.875000, 8179.000000, 8182.000000, 8182.000000
2317, 2081016.000000, 2751.750000, 8171.000000, 8173.500000, 8164.000000
2318, 2081176.000000, 2551.375000, 8159.500000, 8169.500000, 8153.000000
2319, 2081336.000000, 2361.000000, 8165.500000, 8176.000000, 8158.500000
2320, 2081496.000000, 2216.875000, 8245.500000, 8322.500000, 8343.000000
2321, 2081656.000000, 2142.375000, 8554.000000, 7705.500000, 7906.000000
2322, 2081816.000000, 2128.500000, 7975.000000, 7835.500000, 7722.000000
2323, 2081976.000000, 2146.875000, 8171.500000, 8205.000000, 8188.500000
2324, 2082136.000000, 2159.000000, 8180.500000, 8250.000000, 8243.500000
2325, 2082296.000000, 2145.375000, 8191.000000, 8261.000000, 8259.500000
2326, 2082456.000000, 2086.375000, 8201.000000, 8265.000000, 8268.000000
2327, 2082616.000000, 1995.125000, 8212.500000, 8270.500000, 8279.000000
2328, 2082776.000000, 1882.000000, 8229.000000, 8278.500000, 8296.000000
2329, 2082936.000000, 1761.000000, 8248.500000, 8292.000000, 8316.000000
2330, 2083096.000000, 1647.500000, 8270.500000, 8308.500000, 8341.000000
2331, 2083256.000000, 1543.000000, 8289.000000, 8319.000000, 8357.000000
2332, 2083416.000000, 1455.000000, 8285.000000, 8316.500000, 8352.500000
2333, 2083576.000000, 1379.625000, 8265.000000, 8299.000000, 8328.500000
2334, 2083736.000000, 1318.125000, 8227.000000, 8257.500000, 8271.000000
2335, 2083896.000000, 1272.125000, 8181.000000, 8207.500000, 8204.500000
2336, 2084056.000000, 1234.875000, 8148.000000, 8176.000000, 8159.000000
2337, 2084216.000000, 1210.125000, 8132.000000, 8165.500000, 8143.000000
2338, 2084376.000000, 1190.375000, 8137.000000, 8166.500000, 8145.500000
2339, 2084536.000000, 1173.750000, 8146.500000, 8169.500000, 8154.500000
2340, 2084696.000000, 1161.125000, 8154.500000, 8170.000000, 8157.500000
2341, 2084856.000000, 1146.750000, 8157.000000, 8167.500000, 8155.500000
2342, 2085016.000000, 1125.250000, 8157.500000, 8166.500000, 8154.000000
2343, 2085176.000000, 1093.875000, 8153.000000, 8166.500000, 8153.500000
2344, 2085336.000000, 1052.125000, 8152.500000, 8167.500000, 8152.500000
2345, 2085496.000000, 1056.125000, 8151.500000, 8168.000000, 8151.500000
2346, 2085656.000000, 1209.625000, 8154.500000, 8166.000000, 8150.500000
2347, 2085816.000000, 1607.375000, 8150.500000, 8165.000000, 8147.500000
2348, 2085976.000000, 2177.750000, 8152.500000, 8166.000000, 8150.000000
2349, 2086136.000000, 2748.500000, 8154.500000, 8167.000000, 8151.500000
2350, 2086296.000000, 3141.750000, 8157.000000, 8168.000000, 8154.000000
2351, 2086456.000000, 3318.625000, 8161.500000, 8172.000000, 8162.000000
2352, 2086616.000000, 3298.375000, 8162.000000, 8175.500000, 8168.500000
2353, 2086776.000000, 3159.375000, 8170.500000, 8181.000000, 8184.500000
2354, 2086936.000000, 2974.750000, 8175.500000, 8178.000000, 8175.500000
2355, 2087096.000000, 2777.000000, 8164.000000, 8170.500000, 8157.500000
2356, 2087256.000000, 2569.125000, 8164.500000, 8167.000000, 8153.000000
2357, 2087416.000000, 2360.125000, 8171.000000, 8240.000000, 8217.500000
2358, 2087576.000000, 2194.500000, 8519.500000, 8142.000000, 8289.500000
2359, 2087736.000000, 2103.000000, 8190.000000, 7736.000000, 7765.000000
2360, 2087896.000000, 2090.625000, 8077.000000, 8036.500000, 7952.500000
2361, 2088056.000000, 2123.000000, 8181.000000, 8220.500000, 8210.500000
2362, 2088216.000000, 2159.750000, 8188.000000, 8238.500000, 8233.500000
2363, 2088376.000000, 2171.000000, 8197.500000, 8247.500000, 8248.000000
2364, 2088536.000000, 2139.375000, 8210.000000, 8254.500000, 8261.500000
2365, 2088696.000000, 2064.500000, 8228.000000, 8260.500000, 8274.500000
2366, 2088856.000000, 1958.750000, 8242.500000, 8272.500000, 8292.000000
2367, 2089016.000000, 1842.750000, 8260.500000, 8288.000000, 8314.500000
2368, 2089176.000000, 1730.875000, 8282.000000, 8302.500000, 8336.500000
2369, 2089336.000000, 1629.750000, 8289.500000, 8307.000000, 8342.000000
2370, 2089496.000000, 1544.375000, 8275.500000, 8297.000000, 8326.500000
2371, 2089656.000000, 1475.125000, 8245.000000, 8270.000000, 8287.000000
2372, 2089816.000000, 1421.875000, 8197.000000, 8227.500000, 8227.000000
2373, 2089976.000000, 1378.875000, 8158.000000, 8191.000000, 8177.500000
2374, 2090136.000000, 1348.250000, 8137.000000, 8177.500000, 8156.500000
2375, 2090296.000000, 1327.875000, 8138.000000, 8175.000000, 8156.000000
2376, 2090456.000000, 1311.125000, 8145.000000, 8175.500000, 8157.500000
2377, 2090616.000000, 1299.500000, 8151.500000, 8175.500000, 8160.000000
2378, 2090776.000000, 1289.125000, 8158.000000, 8175.500000, 8164.000000
2379, 2090936.000000, 1274.750000, 8161.500000, 8181.500000, 8169.500000
2380, 2091096.000000, 1251.875000, 8161.500000, 8183.500000, 8172.500000
2381, 2091256.000000, 1220.750000, 8159.500000, 8182.000000, 8169.500000
2382, 2091416.000000, 1181.125000, 8154.500000, 8180.000000, 8164.500000
2383, 2091576.000000, 1192.125000, 8152.000000, 8181.500000, 8164.500000
2384, 2091736.000000, 1368.625000, 8155.500000, 8181.000000, 8166.000000
2385, 2091896.000000, 1771.125000, 8157.000000, 8181.500000, 8167.500000
2386, 2092056.000000, 2306.625000, 8159.000000, 8180.500000, 8167.500000
2387, 2092216.000000, 2803.250000, 8157.500000, 8181.000000, 8167.500000
2388, 2092376.000000, 3119.250000, 8165.500000, 8187.500000, 8183.000000
2389, 2092536.000000, 3233.750000, 8172.500000, 8190.500000, 8196.500000
2390, 2092696.000000, 3176.375000, 8177.000000, 8180.500000, 8181.500000
2391, 2092856.000000, 3025.750000, 8170.000000, 8174.000000, 8164.500000
2392, 2093016.000000, 2826.125000, 8163.500000, 8169.500000, 8155.000000
2393, 2093176.000000, 2606.250000, 8162.000000, 8189.500000, 8165.500000
2394, 2093336.000000, 2380.625000, 8337.000000, 8304.000000, 8368.500000
2395, 2093496.000000, 2175.500000, 8470.500000, 7720.000000, 7881.500000
2396, 2093656.000000, 2041.625000, 8004.500000, 7929.500000, 7821.000000
2397, 2093816.000000, 1995.875000, 8177.000000, 8229.500000, 8215.000000
2398, 2093976.000000, 2019.750000, 8185.000000, 8271.000000, 8264.000000
2399, 2094136.000000, 2069.500000, 8195.000000, 8286.500000, 8284.000000
2400, 2094296.000000, 2110.375000, 8208.500000, 8296.500000, 8300.500000
2401, 2094456.000000, 2109.875000, 8222.000000, 8306.000000, 8316.000000
2402, 2094616.000000, 2068.875000, 8237.000000, 8317.500000, 8335.500000
2403, 2094776.000000, 1987.500000, 8256.000000, 8332.000000, 8357.500000
2404, 2094936.000000, 1882.750000, 8281.500000, 8351.000000, 8387.000000
2405, 2095096.000000, 1769.500000, 8297.500000, 8360.000000, 8400.500000
2406, 2095256.000000, 1666.375000, 8288.500000, 8353.000000, 8390.000000
2407, 2095416.000000, 1575.250000, 8262.000000, 8325.500000, 8352.000000
2408, 2095576.000000, 1495.125000, 8213.000000, 8277.500000, 8285.500000
2409, 2095736.000000, 1430.000000, 8167.000000, 8230.000000, 8219.500000
2410, 2095896.000000, 1378.250000, 8143.000000, 8205.500000, 8186.000000
2411, 2096056.000000, 1338.750000, 8132.000000, 8197.500000, 8173.000000
2412, 2096216.000000, 1308.250000, 8136.000000, 8196.000000, 8174.000000
2413, 2096376.000000, 1284.125000, 8142.000000, 8197.000000, 8179.000000
2414, 2096536.000000, 1265.000000, 8149.500000, 8198.000000, 8183.000000
2415, 2096696.000000, 1249.625000, 8156.500000, 8196.500000, 8182.500000
2416, 2096856.000000, 1231.250000, 8156.500000, 8194.500000, 8180.000000
2417, 2097016.000000, 1200.750000, 8153.000000, 8192.000000, 8175.500000
2418, 2097176.000000, 1162.500000, 8150.500000, 8189.000000, 8172.500000
2419, 2097336.000000, 1156.125000, 8151.000000, 8189.000000, 8172.000000
2420, 2097496.000000, 1293.500000, 8152.500000, 8190.000000, 8174.000000
2421, 2097656.000000, 1638.625000, 8154.500000, 8188.000000, 8171.500000
2422, 2097816.000000, 2159.250000, 8152.500000, 8189.000000, 8172.000000
2423, 2097976.000000, 2681.000000, 8154.000000, 8189.500000, 8173.500000
2424, 2098136.000000, 3053.000000, 8156.500000, 8189.000000, 8174.500000
2425, 2098296.000000, 3214.625000, 8158.500000, 8188.500000, 8173.500000
2426, 2098456.000000, 3197.375000, 8168.000000, 8197.000000, 8193.000000
2427, 2098616.000000, 3068.500000, 8171.500000, 8202.500000, 8205.000000
2428, 2098776.000000, 2894.250000, 8173.500000, 8196.500000, 8196.000000
2429, 2098936.000000, 2708.375000, 8174.500000, 8190.500000, 8184.000000
2430, 2099096.000000, 2513.000000, 8165.000000, 8182.000000, 8167.500000
2431, 2099256.000000, 2313.750000, 8167.000000, 8182.500000, 8167.000000
2432, 2099416.000000, 2147.125000, 8203.000000, 8321.500000, 8318.000000
2433, 2099576.000000, 2052.250000, 8542.500000, 7844.500000, 8028.000000
2434, 2099736.000000, 2027.750000, 8002.000000, 7760.000000, 7673.000000
2435, 2099896.000000, 2046.625000, 8161.000000, 8180.500000, 8151.000000
2436, 2100056.000000, 2069.875000, 8187.000000, 8254.000000, 8250.000000
2437, 2100216.000000, 2071.500000, 8191.500000, 8267.500000, 8268.000000
2438, 2100376.000000, 2030.625000, 8201.500000, 8271.500000, 8277.000000
2439, 2100536.000000, 1951.625000, 8214.500000, 8277.500000, 8287.500000
2440, 2100696.000000, 1848.500000, 8232.500000, 8284.000000, 8302.000000
2441, 2100856.000000, 1735.750000, 8250.000000, 8294.500000, 8320.000000
2442, 2101016.000000, 1625.875000, 8272.500000, 8310.000000, 8345.000000
2443, 2101176.000000, 1526.625000, 8295.000000, 8325.500000, 8369.000000
2444, 2101336.000000, 1443.750000, 8300.500000, 8327.000000, 8371.500000
2445, 2101496.000000, 1372.375000, 8286.000000, 8310.000000, 8347.500000
2446, 2101656.000000, 1316.125000, 8248.000000, 8266.000000, 8287.500000
2447, 2101816.000000, 1268.250000, 8191.000000, 8210.000000, 8211.000000
2448, 2101976.000000, 1231.125000, 8151.000000, 8175.000000, 8159.000000
2449, 2102136.000000, 1202.375000, 8137.000000, 8161.500000, 8138.500000
2450, 2102296.000000, 1178.250000, 8138.000000, 8161.000000, 8138.500000
2451, 2102456.000000, 1154.125000, 8144.000000, 8162.000000, 8143.000000
2452, 2102616.000000, 1134.375000, 8149.500000, 8162.000000, 8146.000000
2453, 2102776.000000, 1116.875000, 8154.500000, 8162.000000, 8148.500000
2454, 2102936.000000, 1094.250000, 8160.000000, 8162.000000, 8150.000000
2455, 2103096.000000, 1062.875000, 8163.500000, 8161.500000, 8149.000000
2456, 2103256.000000, 1018.250000, 8162.000000, 8161.000000, 8146.500000
2457, 2103416.000000, 1000.625000, 8159.000000, 8160.000000, 8145.000000
2458, 2103576.000000, 1117.875000, 8157.500000, 8159.500000, 8144.000000
2459, 2103736.000000, 1474.250000, 8158.500000, 8159.000000, 8144.000000
2460, 2103896.000000, 2023.000000, 8160.500000, 8159.000000, 8143.500000
2461, 2104056.000000, 2601.625000, 8162.000000, 8160.000000, 8145.500000
2462, 2104216.000000, 3023.375000, 8160.000000, 8160.000000, 8145.000000
2463, 2104376.000000, 3237.750000, 8161.500000, 8162.000000, 8148.000000
2464, 2104536.000000, 3252.625000, 8163.000000, 8163.000000, 8149.000000
2465, 2104696.000000, 3150.500000, 8171.500000, 8172.000000, 8167.500000
2466, 2104856.000000, 3001.125000, 8174.500000, 8177.500000, 8178.000000
2467, 2105016.000000, 2853.250000, 8180.000000, 8173.500000, 8175.500000
2468, 2105176.000000, 2700.625000, 8178.000000, 8169.000000, 8165.000000
2469, 2105336.000000, 2529.875000, 8166.500000, 8161.000000, 8146.500000
2470, 2105496.000000, 2352.500000, 8170.000000, 8162.000000, 8147.000000
2471, 2105656.000000, 2205.250000, 8189.000000, 8271.000000, 8255.500000
2472, 2105816.000000, 2119.750000, 8524.500000, 7924.000000, 8089.500000
2473, 2105976.000000, 2085.000000, 8077.000000, 7659.500000, 7615.000000
2474, 2106136.000000, 2080.625000, 8144.000000, 8128.000000, 8083.500000
2475, 2106296.000000, 2073.500000, 8188.500000, 8240.000000, 8236.000000
2476, 2106456.000000, 2042.125000, 8198.000000, 8256.000000, 8257.000000
2477, 2106616.000000, 1977.750000, 8202.000000, 8262.500000, 8266.000000
2478, 2106776.000000, 1886.000000, 8214.500000, 8268.500000, 8278.500000
2479, 2106936.000000, 1780.500000, 8228.500000, 8276.500000, 8292.000000
2480, 2107096.000000, 1670.875000, 8251.000000, 8288.000000, 8313.500000
2481, 2107256.000000, 1567.000000, 8270.500000, 8303.500000, 8337.000000
2482, 2107416.000000, 1473.250000, 8294.000000, 8318.000000, 8361.000000
2483, 2107576.000000, 1395.625000, 8305.500000, 8323.500000, 8371.000000
2484, 2107736.000000, 1329.000000, 8294.500000, 8312.000000, 8353.500000
2485, 2107896.000000, 1274.500000, 8262.000000, 8273.000000, 8301.500000
2486, 2108056.000000, 1231.375000, 8206.000000, 8218.000000, 8223.000000
2487, 2108216.000000, 1199.375000, 8160.000000, 8178.500000, 8164.500000
2488, 2108376.000000, 1169.875000, 8139.000000, 8161.500000, 8139.500000
2489, 2108536.000000, 1145.250000, 8135.000000, 8160.500000, 8136.000000
2490, 2108696.000000, 1121.625000, 8142.500000, 8163.000000, 8142.500000
2491, 2108856.000000, 1100.875000, 8148.000000, 8165.000000, 8147.000000
2492, 2109016.000000, 1084.375000, 8155.000000, 8167.000000, 8152.000000
2493, 2109176.000000, 1063.125000, 8157.000000, 8165.000000, 8151.000000
2494, 2109336.000000, 1033.750000, 8160.000000, 8165.000000, 8152.000000
2495, 2109496.000000, 991.375000, 8159.500000, 8164.000000, 8150.500000
2496, 2109656.000000, 955.875000, 8154.500000, 8162.500000, 8145.000000
2497, 2109816.000000, 1016.125000, 8154.000000, 8162.000000, 8145.000000
2498, 2109976.000000, 1276.375000, 8152.000000, 8163.000000, 8144.000000
2499, 2110136.000000, 1758.250000, 8153.500000, 8164.500000, 8147.000000
2500, 2110296.000000, 2310.750000, 8157.000000, 8165.000000, 8148.000000
2501, 2110456.000000, 2774.875000, 8159.000000, 8165.500000, 8149.000000
2502, 2110616.000000, 3033.250000, 8159.000000, 8165.000000, 8148.500000
2503, 2110776.000000, 3104.750000, 8159.000000, 8166.000000, 8151.000000
2504, 2110936.000000, 3036.125000, 8162.000000, 8168.000000, 8153.500000
2505, 2111096.000000, 2906.875000, 8165.000000, 8172.000000, 8159.500000
2506, 2111256.000000, 2768.750000, 8169.500000, 8177.000000, 8170.500000
2507, 2111416.000000, 2632.875000, 8179.000000, 8182.000000, 8184.000000
2508, 2111576.000000, 2475.875000, 8177.500000, 8175.000000, 8170.500000
2509, 2111736.000000, 2305.500000, 8168.000000, 8167.000000, 8152.500000
2510, 2111896.000000, 2154.500000, 8168.500000, 8165.500000, 8151.000000
2511, 2112056.000000, 2052.875000, 8167.000000, 8208.000000, 8180.000000
2512, 2112216.000000, 2010.375000, 8427.000000, 8198.000000, 8300.500000
2513, 2112376.000000, 2003.000000, 8391.000000, 7607.000000, 7723.500000
2514, 2112536.000000, 2001.500000, 8046.500000, 7975.500000, 7876.500000
2515, 2112696.000000, 1982.375000, 8181.500000, 8224.500000, 8215.000000
2516, 2112856.000000, 1928.125000, 8188.500000, 8247.500000, 8243.500000
2517, 2113016.000000, 1847.375000, 8195.000000, 8255.500000, 8256.500000
2518, 2113176.000000, 1749.625000, 8208.500000, 8261.500000, 8268.500000
2519, 2113336.000000, 1644.250000, 8222.000000, 8269.500000, 8282.500000
2520, 2113496.000000, 1545.375000, 8240.000000, 8278.000000, 8298.000000
2521, 2113656.000000, 1455.250000, 8258.500000, 8291.500000, 8318.000000
2522, 2113816.000000, 1378.125000, 8282.000000, 8307.000000, 8343.000000
2523, 2113976.000000, 1312.875000, 8297.000000, 8314.000000, 8355.000000
2524, 2114136.000000, 1259.875000, 8293.500000, 8308.500000, 8347.000000
2525, 2114296.000000, 1218.750000, 8269.500000, 8285.000000, 8314.000000
2526, 2114456.000000, 1186.875000, 8221.000000, 8238.000000, 8249.000000
2527, 2114616.000000, 1160.250000, 8171.500000, 8192.500000, 8184.000000
2528, 2114776.000000, 1138.000000, 8143.000000, 8170.500000, 8151.000000
2529, 2114936.000000, 1118.875000, 8134.500000, 8165.000000, 8142.000000
2530, 2115096.000000, 1098.375000, 8140.000000, 8167.000000, 8146.000000
2531, 2115256.000000, 1081.750000, 8147.500000, 8167.500000, 8151.000000
2532, 2115416.000000, 1065.375000, 8153.500000, 8168.000000, 8153.500000
2533, 2115576.000000, 1048.875000, 8156.000000, 8169.000000, 8156.000000
2534, 2115736.000000, 1026.250000, 8159.000000, 8170.000000, 8157.000000
2535, 2115896.000000, 998.500000, 8159.500000, 8168.000000, 8155.500000
2536, 2116056.000000, 961.000000, 8157.000000, 8165.500000, 8150.500000
2537, 2116216.000000, 950.250000, 8154.500000, 8165.000000, 8148.500000
2538, 2116376.000000, 1067.750000, 8154.000000, 8161.000000, 8145.000000
2539, 2116536.000000, 1403.750000, 8154.500000, 8153.000000, 8136.500000
2540, 2116696.000000, 1914.250000, 8158.000000, 8151.000000, 8136.000000
2541, 2116856.000000, 2444.125000, 8159.000000, 8148.500000, 8133.500000
2542, 2117016.000000, 2824.125000, 8159.500000, 8147.000000, 8132.500000
2543, 2117176.000000, 3014.375000, 8160.000000, 8147.500000, 8133.500000
2544, 2117336.000000, 3025.000000, 8165.500000, 8153.500000, 8143.500000
2545, 2117496.000000, 2926.250000, 8170.000000, 8159.000000, 8152.000000
2546, 2117656.000000, 2780.750000, 8181.000000, 8163.500000, 8167.500000
2547, 2117816.000000, 2623.875000, 8180.500000, 8157.500000, 8156.000000
2548, 2117976.000000, 2454.750000, 8168.000000, 8147.000000, 8134.500000
2549, 2118136.000000, 2277.875000, 8168.000000, 8143.000000, 8130.500000
2550, 2118296.000000, 2119.375000, 8171.500000, 8185.000000, 8162.000000
2551, 2118456.000000, 2013.875000, 8435.000000, 8197.500000, 8307.500000
2552, 2118616.000000, 1973.875000, 8358.500000, 7681.000000, 7785.000000
2553, 2118776.000000, 1981.125000, 8041.000000, 7950.500000, 7853.000000
2554, 2118936.000000, 2001.625000, 8179.000000, 8189.000000, 8178.500000
2555, 2119096.000000, 2009.000000, 8189.000000, 8214.000000, 8209.500000
2556, 2119256.000000, 1983.250000, 8198.000000, 8222.500000, 8223.500000
2557, 2119416.000000, 1925.500000, 8208.000000, 8229.000000, 8235.000000
2558, 2119576.000000, 1838.750000, 8221.000000, 8239.500000, 8252.000000
2559, 2119736.000000, 1739.125000, 8240.000000, 8252.500000, 8273.500000
2560, 2119896.000000, 1638.000000, 8260.500000, 8269.000000, 8296.000000
2561, 2120056.000000, 1543.500000, 8283.000000, 8288.500000, 8326.000000
2562, 2120216.000000, 1459.750000, 8296.000000, 8297.500000, 8339.500000
2563, 2120376.000000, 1387.500000, 8287.500000, 8293.500000, 8331.000000
2564, 2120536.000000, 1319.875000, 8262.500000, 8270.500000, 8298.500000
2565, 2120696.000000, 1260.875000, 8216.000000, 8226.500000, 8234.500000
2566, 2120856.000000, 1223.875000, 8167.000000, 8184.000000, 8174.000000
2567, 2121016.000000, 1198.250000, 8139.500000, 8162.500000, 8142.000000
2568, 2121176.000000, 1176.375000, 8132.000000, 8158.000000, 8137.000000
2569, 2121336.000000, 1157.125000, 8137.000000, 8160.500000, 8141.000000
2570, 2121496.000000, 1140.875000, 8147.000000, 8162.500000, 8146.000000
2571, 2121656.000000, 1118.000000, 8154.000000, 8163.500000, 8149.500000
2572, 2121816.000000, 1088.500000, 8156.500000, 8165.500000, 8153.000000
2573, 2121976.000000, 1053.000000, 8157.000000, 8167.500000, 8154.500000
2574, 2122136.000000, 1009.750000, 8155.500000, 8167.000000, 8153.000000
2575, 2122296.000000, 1011.875000, 8155.000000, 8167.500000, 8151.500000
2576, 2122456.000000, 1157.625000, 8153.000000, 8166.500000, 8150.000000
2577, 2122616.000000, 1511.750000, 8151.500000, 8165.000000, 8147.500000
2578, 2122776.000000, 1989.375000, 8152.000000, 8167.500000, 8150.500000
2579, 2122936.000000, 2436.375000, 8154.500000, 8168.000000, 8151.500000
2580, 2123096.000000, 2728.125000, 8158.500000, 8169.500000, 8154.500000
2581, 2123256.000000, 2847.000000, 8158.500000, 8169.000000, 8153.000000
2582, 2123416.000000, 2814.250000, 8158.500000, 8169.500000, 8153.500000
2583, 2123576.000000, 2697.875000, 8159.000000, 8171.000000, 8156.000000
2584, 2123736.000000, 2545.000000, 8167.000000, 8180.500000, 8175.500000
2585, 2123896.000000, 2377.625000, 8174.500000, 8186.000000, 8187.500000
2586, 2124056.000000, 2199.625000, 8179.500000, 8182.500000, 8183.000000
2587, 2124216.000000, 2020.625000, 8173.500000, 8176.500000, 8170.500000
2588, 2124376.000000, 1885.375000, 8163.000000, 8170.500000, 8156.500000
2589, 2124536.000000, 1819.875000, 8168.000000, 8171.500000, 8158.500000
2590, 2124696.000000, 1819.000000, 8210.500000, 8312.500000, 8315.000000
2591, 2124856.000000, 1848.250000, 8551.500000, 7839.000000, 8025.500000
2592, 2125016.000000, 1879.000000, 7992.500000, 7780.000000, 7691.500000
2593, 2125176.000000, 1882.500000, 8158.500000, 8168.500000, 8135.500000
2594, 2125336.000000, 1847.750000, 8186.500000, 8244.500000, 8240.500000
2595, 2125496.000000, 1780.750000, 8194.500000, 8258.000000, 8258.500000
2596, 2125656.000000, 1691.750000, 8204.000000, 8263.000000, 8268.000000
2597, 2125816.000000, 1595.875000, 8213.000000, 8269.500000, 8278.500000
2598, 2125976.000000, 1502.125000, 8228.500000, 8278.500000, 8295.500000
2599, 2126136.000000, 1413.375000, 8248.500000, 8292.000000, 8316.000000
2600, 2126296.000000, 1334.500000, 8272.500000, 8312.500000, 8346.000000
2601, 2126456.000000, 1269.125000, 8293.500000, 8328.000000, 8369.500000
2602, 2126616.000000, 1216.250000, 8302.000000, 8331.000000, 8375.000000
2603, 2126776.000000, 1173.125000, 8287.000000, 8317.000000, 8355.500000
2604, 2126936.000000, 1140.875000, 8251.000000, 8274.500000, 8298.000000
2605, 2127096.000000, 1115.125000, 8197.000000, 8220.500000, 8222.000000
2606, 2127256.000000, 1094.000000, 8156.500000, 8182.500000, 8168.000000
2607, 2127416.000000, 1074.875000, 8138.000000, 8169.000000, 8146.500000
2608, 2127576.000000, 1058.750000, 8135.000000, 8169.500000, 8146.500000
2609, 2127736.000000, 1043.750000, 8141.500000, 8173.000000, 8152.500000
2610, 2127896.000000, 1028.375000, 8150.000000, 8175.000000, 8158.000000
2611, 2128056.000000, 1008.125000, 8155.500000, 8174.500000, 8159.500000
2612, 2128216.000000, 979.375000, 8156.000000, 8173.000000, 8158.000000
2613, 2128376.000000, 938.125000, 8159.500000, 8173.500000, 8160.000000
2614, 2128536.000000, 913.500000, 8159.000000, 8174.500000, 8159.500000
2615, 2128696.000000, 1001.875000, 8159.000000, 8173.000000, 8158.000000
2616, 2128856.000000, 1300.250000, 8157.500000, 8172.000000, 8154.500000
2617, 2129016.000000, 1776.250000, 8156.500000, 8171.000000, 8153.500000
2618, 2129176.000000, 2275.375000, 8156.500000, 8172.000000, 8154.500000
2619, 2129336.000000, 2654.625000, 8158.500000, 8174.500000, 8157.500000
2620, 2129496.000000, 2852.625000, 8163.000000, 8174.500000, 8158.500000
2621, 2129656.000000, 2888.750000, 8162.000000, 8174.000000, 8157.500000
2622, 2129816.000000, 2808.750000, 8162.000000, 8176.000000, 8161.000000
2623, 2129976.000000, 2679.875000, 8160.500000, 8177.500000, 8161.000000
2624, 2130136.000000, 2542.750000, 8165.000000, 8182.500000, 8168.000000
2625, 2130296.000000, 2403.250000, 8174.000000, 8191.500000, 8187.000000
2626, 2130456.000000, 2249.000000, 8178.500000, 8195.000000, 8196.000000
2627, 2130616.000000, 2090.750000, 8183.000000, 8191.000000, 8188.500000
2628, 2130776.000000, 1965.375000, 8178.500000, 8185.000000, 8177.500000
2629, 2130936.000000, 1893.500000, 8171.000000, 8180.500000, 8167.500000
2630, 2131096.000000, 1877.000000, 8173.000000, 8184.000000, 8168.000000
2631, 2131256.000000, 1885.375000, 8234.500000, 8338.000000, 8349.500000
2632, 2131416.000000, 1891.250000, 8538.000000, 7728.000000, 7917.500000
2633, 2131576.000000, 1873.375000, 7985.000000, 7812.000000, 7700.500000
2634, 2131736.000000, 1823.500000, 8179.500000, 8233.000000, 8217.000000
2635, 2131896.000000, 1746.125000, 8192.000000, 8289.000000, 8286.000000
2636, 2132056.000000, 1650.625000, 8200.500000, 8302.500000, 8304.000000
2637, 2132216.000000, 1550.000000, 8210.000000, 8308.500000, 8315.500000
2638, 2132376.000000, 1454.125000, 8222.000000, 8313.000000, 8326.000000
2639, 2132536.000000, 1366.250000, 8237.500000, 8318.500000, 8337.500000
2640, 2132696.000000, 1287.125000, 8257.000000, 8328.000000, 8354.500000
2641, 2132856.000000, 1221.125000, 8277.500000, 8341.500000, 8376.500000
2642, 2133016.000000, 1163.500000, 8300.000000, 8354.500000, 8399.500000
2643, 2133176.000000, 1116.250000, 8306.000000, 8356.000000, 8403.000000
2644, 2133336.000000, 1079.125000, 8291.500000, 8339.500000, 8379.000000
2645, 2133496.000000, 1051.250000, 8255.500000, 8292.000000, 8315.500000
2646, 2133656.000000, 1026.625000, 8198.500000, 8233.000000, 8233.500000
2647, 2133816.000000, 1006.000000, 8154.000000, 8195.000000, 8177.000000
2648, 2133976.000000, 982.625000, 8137.000000, 8181.000000, 8157.500000
2649, 2134136.000000, 959.250000, 8135.500000, 8179.500000, 8154.000000
2650, 2134296.000000, 938.000000, 8143.500000, 8180.000000, 8158.000000
2651, 2134456.000000, 917.125000, 8148.000000, 8180.500000, 8160.500000
2652, 2134616.000000, 893.500000, 8153.000000, 8179.000000, 8162.000000
2653, 2134776.000000, 861.750000, 8155.500000, 8179.000000, 8163.000000
2654, 2134936.000000, 820.625000, 8157.000000, 8178.500000, 8163.500000
2655, 2135096.000000, 797.750000, 8158.500000, 8176.500000, 8160.500000
2656, 2135256.000000, 891.000000, 8156.500000, 8175.500000, 8159.000000
2657, 2135416.000000, 1200.375000, 8153.500000, 8177.000000, 8158.500000
2658, 2135576.000000, 1685.125000, 8154.500000, 8180.500000, 8163.000000
2659, 2135736.000000, 2199.250000, 8153.500000, 8184.500000, 8167.000000
2660, 2135896.000000, 2587.875000, 8156.000000, 8190.000000, 8173.000000
2661, 2136056.000000, 2807.375000, 8158.000000, 8193.000000, 8176.000000
2662, 2136216.000000, 2850.625000, 8157.000000, 8196.000000, 8179.000000
2663, 2136376.000000, 2783.000000, 8159.000000, 8198.000000, 8183.000000
2664, 2136536.000000, 2661.125000, 8162.000000, 8199.000000, 8184.500000
2665, 2136696.000000, 2530.375000, 8164.000000, 8199.000000, 8184.000000
2666, 2136856.000000, 2400.000000, 8169.500000, 8201.500000, 8192.000000
2667, 2137016.000000, 2255.375000, 8170.500000, 8205.000000, 8200.000000
2668, 2137176.000000, 2106.625000, 8180.500000, 8208.000000, 8207.500000
2669, 2137336.000000, 1981.500000, 8178.500000, 8202.500000, 8197.000000
2670, 2137496.000000, 1910.250000, 8168.000000, 8195.000000, 8182.000000
2671, 2137656.000000, 1883.625000, 8170.000000, 8192.000000, 8177.000000
2672, 2137816.000000, 1886.125000, 8181.500000, 8285.000000, 8269.000000
2673, 2137976.000000, 1890.875000, 8549.000000, 8045.500000, 8212.500000
2674, 2138136.000000, 1877.500000, 8105.500000, 7742.000000, 7721.500000
2675, 2138296.000000, 1836.500000, 8117.000000, 8106.000000, 8039.500000
2676, 2138456.000000, 1767.625000, 8185.000000, 8246.500000, 8241.500000
2677, 2138616.000000, 1679.625000, 8193.000000, 8262.500000, 8262.500000
2678, 2138776.000000, 1586.125000, 8200.500000, 8268.500000, 8273.000000
2679, 2138936.000000, 1495.500000, 8212.500000, 8276.500000, 8284.000000
2680, 2139096.000000, 1407.625000, 8229.000000, 8285.500000, 8301.000000
2681, 2139256.000000, 1331.625000, 8245.500000, 8296.500000, 8318.000000
2682, 2139416.000000, 1265.375000, 8265.500000, 8311.000000, 8340.000000
2683, 2139576.000000, 1211.625000, 8287.500000, 8325.500000, 8364.000000
2684, 2139736.000000, 1172.125000, 8302.000000, 8327.500000, 8370.000000
2685, 2139896.000000, 1142.375000, 8291.000000, 8315.500000, 8353.500000
2686, 2140056.000000, 1118.625000, 8261.000000, 8282.500000, 8308.500000
2687, 2140216.000000, 1098.000000, 8210.000000, 8225.000000, 8232.000000
2688, 2140376.000000, 1080.750000, 8164.500000, 8157.000000, 8146.000000
2689, 2140536.000000, 1064.875000, 8141.500000, 8130.500000, 8110.000000
2690, 2140696.000000, 1046.750000, 8137.500000, 8124.500000, 8102.500000
2691, 2140856.000000, 1031.750000, 8141.000000, 8124.000000, 8103.500000
2692, 2141016.000000, 1016.750000, 8149.000000, 8125.500000, 8108.500000
2693, 2141176.000000, 1002.750000, 8153.500000, 8127.500000, 8114.000000
2694, 2141336.000000, 981.625000, 8157.000000, 8129.000000, 8116.000000
2695, 2141496.000000, 953.625000, 8159.000000, 8131.000000, 8118.000000
2696, 2141656.000000, 914.750000, 8157.000000, 8130.000000, 8116.000000
2697, 2141816.000000, 918.125000, 8151.500000, 8132.000000, 8116.500000
2698, 2141976.000000, 1063.625000, 8151.000000, 8134.000000, 8118.000000
2699, 2142136.000000, 1425.875000, 8153.000000, 8137.500000, 8121.000000
2700, 2142296.000000, 1921.500000, 8153.500000, 8140.000000, 8123.500000
2701, 2142456.000000, 2391.625000, 8157.000000, 8141.000000, 8125.000000
2702, 2142616.000000, 2699.000000, 8156.000000, 8142.500000, 8127.500000
2703, 2142776.000000, 2835.625000, 8159.000000, 8147.500000, 8132.500000
2704, 2142936.000000, 2819.750000, 8160.500000, 8149.500000, 8135.000000
2705, 2143096.000000, 2711.500000, 8164.000000, 8152.500000, 8139.500000
2706, 2143256.000000, 2567.125000, 8166.500000, 8158.000000, 8147.500000
2707, 2143416.000000, 2413.750000, 8167.000000, 8163.000000, 8156.000000
2708, 2143576.000000, 2252.875000, 8179.500000, 8169.000000, 8170.500000
2709, 2143736.000000, 2089.125000, 8177.000000, 8166.000000, 8161.500000
2710, 2143896.000000, 1949.750000, 8167.500000, 8160.500000, 8147.500000
2711, 2144056.000000, 1865.000000, 8169.500000, 8159.000000, 8145.500000
2712, 2144216.000000, 1842.375000, 8172.500000, 8224.000000, 8201.500000
2713, 2144376.000000, 1857.750000, 8487.500000, 8148.500000, 8282.500000
2714, 2144536.000000, 1887.375000, 8261.000000, 7701.500000, 7758.500000
2715, 2144696.000000, 1900.750000, 8068.000000, 8010.500000, 7920.500000
2716, 2144856.000000, 1881.375000, 8182.500000, 8216.500000, 8208.500000
2717, 2145016.000000, 1829.250000, 8189.000000, 8237.500000, 8236.500000
2718, 2145176.000000, 1749.875000, 8200.000000, 8246.500000, 8250.500000
2719, 2145336.000000, 1655.875000, 8212.000000, 8253.500000, 8262.000000
2720, 2145496.000000, 1561.125000, 8226.000000, 8260.500000, 8276.000000
2721, 2145656.000000, 1471.375000, 8242.000000, 8272.000000, 8294.000000
2722, 2145816.000000, 1394.500000, 8259.500000, 8289.500000, 8319.500000
2723, 2145976.000000, 1331.875000, 8283.500000, 8309.500000, 8348.500000
2724, 2146136.000000, 1281.250000, 8298.500000, 8321.500000, 8365.500000
2725, 2146296.000000, 1239.875000, 8290.500000, 8315.000000, 8354.000000
2726, 2146456.000000, 1206.500000, 8263.000000, 8286.500000, 8315.500000
2727, 2146616.000000, 1178.375000, 8214.500000, 8234.500000, 8243.500000
2728, 2146776.000000, 1151.625000, 8168.000000, 8190.000000, 8180.500000
2729, 2146936.000000, 1130.000000, 8142.000000, 8170.500000, 8150.500000
2730, 2147096.000000, 1112.375000, 8137.000000, 8166.000000, 8143.000000
2731, 2147256.000000, 1096.625000, 8142.000000, 8166.000000, 8146.000000
2732, 2147416.000000, 1082.125000, 8148.000000, 8166.500000, 8150.500000
2733, 2147576.000000, 1067.875000, 8151.000000, 8169.500000, 8154.500000
2734, 2147736.000000, 1048.625000, 8157.000000, 8170.000000, 8158.000000
2735, 2147896.000000, 1022.500000, 8157.500000, 8169.500000, 8157.000000
2736, 2148056.000000, 984.625000, 8156.500000, 8168.000000, 8154.500000
2737, 2148216.000000, 957.625000, 8153.000000, 8167.000000, 8150.500000
2738, 2148376.000000, 1028.750000, 8152.000000, 8168.000000, 8153.000000
2739, 2148536.000000, 1300.125000, 8153.500000, 8169.000000, 8153.500000
2740, 2148696.000000, 1751.750000, 8155.000000, 8168.000000, 8152.000000
2741, 2148856.000000, 2245.250000, 8155.000000, 8168.000000, 8151.000000
2742, 2149016.000000, 2617.500000, 8154.500000, 8169.000000, 8152.500000
2743, 2149176.000000, 2821.375000, 8156.000000, 8171.000000, 8156.000000
2744, 2149336.000000, 2855.625000, 8161.000000, 8172.500000, 8159.500000
2745, 2149496.000000, 2768.875000, 8162.500000, 8173.500000, 8160.000000
2746, 2149656.000000, 2623.625000, 8162.500000, 8173.000000, 8159.000000
2747, 2149816.000000, 2460.250000, 8171.500000, 8181.500000, 8177.000000
2748, 2149976.000000, 2291.125000, 8174.000000, 8188.000000, 8190.000000
2749, 2150136.000000, 2116.750000, 8180.000000, 8185.500000, 8183.000000
2750, 2150296.000000, 1960.375000, 8175.500000, 8177.500000, 8169.500000
2751, 2150456.000000, 1852.000000, 8166.000000, 8172.000000, 8157.000000
2752, 2150616.000000, 1813.875000, 8168.500000, 8175.000000, 8160.500000
2753, 2150776.000000, 1824.750000, 8226.500000, 8325.000000, 8335.000000
2754, 2150936.000000, 1857.500000, 8537.500000, 7737.000000, 7926.500000
2755, 2151096.000000, 1881.125000, 7984.500000, 7795.500000, 7687.500000
2756, 2151256.000000, 1876.250000, 8173.500000, 8200.000000, 8181.000000
2757, 2151416.000000, 1838.500000, 8186.000000, 8284.500000, 8281.500000
2758, 2151576.000000, 1767.250000, 8195.500000, 8314.000000, 8316.500000
2759, 2151736.000000, 1677.625000, 8204.000000, 8323.500000, 8329.500000
2760, 2151896.000000, 1583.125000, 8217.500000, 8328.000000, 8339.000000
2761, 2152056.000000, 1491.500000, 8232.000000, 8334.000000, 8352.000000
2762, 2152216.000000, 1406.000000, 8248.000000, 8346.000000, 8372.500000
2763, 2152376.000000, 1330.625000, 8271.000000, 8363.000000, 8400.500000
2764, 2152536.000000, 1266.750000, 8296.500000, 8378.500000, 8424.500000
2765, 2152696.000000, 1214.500000, 8305.500000, 8378.000000, 8426.500000
2766, 2152856.000000, 1172.750000, 8291.000000, 8359.500000, 8402.500000
2767, 2153016.000000, 1141.375000, 8252.000000, 8309.500000, 8335.500000
2768, 2153176.000000, 1118.375000, 8198.000000, 8249.500000, 8254.500000
2769, 2153336.000000, 1102.750000, 8155.000000, 8210.000000, 8196.500000
2770, 2153496.000000, 1089.500000, 8139.500000, 8194.500000, 8173.000000
2771, 2153656.000000, 1078.625000, 8138.000000, 8189.000000, 8166.000000
2772, 2153816.000000, 1065.500000, 8140.000000, 8188.000000, 8167.000000
2773, 2153976.000000, 1055.500000, 8146.000000, 8188.500000, 8169.500000
2774, 2154136.000000, 1041.750000, 8152.000000, 8189.000000, 8173.500000
2775, 2154296.000000, 1023.125000, 8155.000000, 8186.500000, 8169.500000
2776, 2154456.000000, 991.375000, 8155.500000, 8183.500000, 8167.500000
2777, 2154616.000000, 954.625000, 8151.500000, 8182.000000, 8164.500000
2778, 2154776.000000, 978.875000, 8150.000000, 8181.500000, 8162.500000
2779, 2154936.000000, 1181.250000, 8150.500000, 8179.000000, 8159.500000
2780, 2155096.000000, 1613.875000, 8151.000000, 8178.500000, 8158.500000
2781, 2155256.000000, 2167.000000, 8152.000000, 8175.500000, 8154.500000
2782, 2155416.000000, 2653.875000, 8153.000000, 8176.000000, 8157.000000
2783, 2155576.000000, 2974.000000, 8153.000000, 8175.500000, 8156.500000
2784, 2155736.000000, 3097.875000, 8156.000000, 8177.500000, 8159.000000
2785, 2155896.000000, 3066.750000, 8160.500000, 8176.500000, 8160.000000
2786, 2156056.000000, 2945.500000, 8160.000000, 8174.500000, 8156.500000
2787, 2156216.000000, 2790.875000, 8165.000000, 8182.500000, 8174.500000
2788, 2156376.000000, 2638.125000, 8167.500000, 8188.500000, 8184.500000
2789, 2156536.000000, 2482.000000, 8176.000000, 8188.000000, 8184.000000
2790, 2156696.000000, 2317.625000, 8176.000000, 8182.500000, 8173.500000
2791, 2156856.000000, 2166.875000, 8164.500000, 8174.500000, 8156.500000
2792, 2157016.000000, 2060.375000, 8164.500000, 8174.500000, 8155.500000
2793, 2157176.000000, 2008.625000, 8193.500000, 8300.500000, 8290.500000
2794, 2157336.000000, 1998.750000, 8570.500000, 7897.500000, 8081.000000
2795, 2157496.000000, 2008.375000, 8022.000000, 7749.500000, 7675.500000
2796, 2157656.000000, 2008.125000, 8147.500000, 8153.000000, 8108.500000
2797, 2157816.000000, 1986.625000, 8180.500000, 8245.500000, 8236.000000
2798, 2157976.000000, 1931.500000, 8187.500000, 8260.500000, 8256.000000
2799, 2158136.000000, 1849.500000, 8198.500000, 8265.500000, 8266.000000
2800, 2158296.000000, 1749.625000, 8212.000000, 8272.000000, 8278.500000
2801, 2158456.000000, 1644.250000, 8226.000000, 8278.500000, 8290.500000
2802, 2158616.000000, 1542.375000, 8242.500000, 8288.500000, 8307.500000
2803, 2158776.000000, 1446.625000, 8265.000000, 8306.000000, 8335.500000
2804, 2158936.000000, 1364.125000, 8289.500000, 8322.500000, 8359.500000
2805, 2159096.000000, 1297.125000, 8299.500000, 8324.500000, 8365.000000
2806, 2159256.000000, 1242.250000, 8289.000000, 8312.500000, 8348.000000
2807, 2159416.000000, 1203.750000, 8255.000000, 8277.500000, 8302.500000
2808, 2159576.000000, 1175.625000, 8204.000000, 8226.000000, 8231.000000
2809, 2159736.000000, 1154.875000, 8159.000000, 8186.500000, 8174.000000
2810, 2159896.000000, 1138.750000, 8139.500000, 8170.000000, 8148.500000
2811, 2160056.000000, 1121.875000, 8135.000000, 8167.500000, 8144.500000
2812, 2160216.000000, 1109.500000, 8140.000000, 8168.000000, 8147.000000
2813, 2160376.000000, 1099.500000, 8146.500000, 8169.000000, 8151.000000
2814, 2160536.000000, 1089.500000, 8153.500000, 8171.500000, 8156.000000
2815, 2160696.000000, 1077.750000, 8154.500000, 8174.500000, 8159.000000
2816, 2160856.000000, 1055.500000, 8154.000000, 8177.000000, 8161.000000
2817, 2161016.000000, 1019.000000, 8150.500000, 8165.000000, 8147.500000
2818, 2161176.000000, 1003.250000, 8148.000000, 8147.500000, 8129.500000
2819, 2161336.000000, 1102.250000, 8150.500000, 8143.000000, 8125.500000
2820, 2161496.000000, 1426.875000, 8150.000000, 8138.500000, 8120.000000
2821, 2161656.000000, 1933.625000, 8153.000000, 8134.500000, 8117.500000
2822, 2161816.000000, 2461.375000, 8152.500000, 8134.500000, 8117.500000
2823, 2161976.000000, 2860.750000, 8154.500000, 8136.000000, 8120.500000
2824, 2162136.000000, 3063.375000, 8157.000000, 8139.500000, 8125.500000
2825, 2162296.000000, 3088.625000, 8165.500000, 8149.000000, 8144.500000
2826, 2162456.000000, 2992.000000, 8167.500000, 8152.500000, 8152.000000
2827, 2162616.000000, 2835.375000, 8171.000000, 8148.500000, 8147.500000
2828, 2162776.000000, 2663.750000, 8166.500000, 8147.000000, 8137.500000
2829, 2162936.000000, 2487.875000, 8160.000000, 8143.500000, 8127.500000
2830, 2163096.000000, 2308.375000, 8163.500000, 8151.500000, 8133.000000
2831, 2163256.000000, 2141.625000, 8261.500000, 8296.500000, 8327.500000
2832, 2163416.000000, 2023.625000, 8528.500000, 7789.000000, 7976.500000
2833, 2163576.000000, 1972.375000, 7978.000000, 7855.000000, 7754.500000
2834, 2163736.000000, 1974.000000, 8164.000000, 8167.000000, 8138.500000
2835, 2163896.000000, 2000.500000, 8184.000000, 8219.500000, 8212.500000
2836, 2164056.000000, 2025.250000, 8195.000000, 8230.000000, 8230.000000
2837, 2164216.000000, 2026.625000, 8203.000000, 8237.500000, 8241.500000
2838, 2164376.000000, 1988.125000, 8216.000000, 8245.500000, 8255.500000
2839, 2164536.000000, 1921.000000, 8232.500000, 8254.500000, 8270.500000
2840, 2164696.000000, 1828.375000, 8252.000000, 8269.500000, 8293.500000
2841, 2164856.000000, 1727.125000, 8271.500000, 8290.000000, 8321.000000
2842, 2165016.000000, 1628.750000, 8289.000000, 8305.500000, 8343.000000
2843, 2165176.000000, 1539.250000, 8291.000000, 8308.000000, 8345.000000
2844, 2165336.000000, 1460.750000, 8274.500000, 8293.500000, 8324.500000
2845, 2165496.000000, 1394.000000, 8236.500000, 8252.500000, 8269.000000
2846, 2165656.000000, 1342.625000, 8187.500000, 8201.500000, 8199.000000
2847, 2165816.000000, 1302.875000, 8148.000000, 8171.500000, 8153.500000
2848, 2165976.000000, 1273.875000, 8134.500000, 8163.000000, 8141.000000
2849, 2166136.000000, 1250.125000, 8138.000000, 8164.500000, 8144.000000
2850, 2166296.000000, 1233.750000, 8146.500000, 8166.000000, 8149.000000
2851, 2166456.000000, 1219.625000, 8151.000000, 8166.000000, 8150.000000
2852, 2166616.000000, 1207.750000, 8155.500000, 8167.500000, 8152.500000
2853, 2166776.000000, 1191.875000, 8157.000000, 8168.500000, 8154.500000
2854, 2166936.000000, 1168.500000, 8158.000000, 8169.000000, 8154.000000
2855, 2167096.000000, 1131.125000, 8156.000000, 8167.500000, 8150.500000
2856, 2167256.000000, 1103.750000, 8153.500000, 8165.500000, 8148.000000
2857, 2167416.000000, 1180.250000, 8155.500000, 8166.000000, 8149.000000
2858, 2167576.000000, 1450.250000, 8154.500000, 8167.500000, 8150.000000
2859, 2167736.000000, 1908.125000, 8159.000000, 8168.500000, 8153.500000
2860, 2167896.000000, 2398.125000, 8159.000000, 8169.000000, 8154.000000
2861, 2168056.000000, 2782.750000, 8161.500000, 8169.000000, 8155.000000
2862, 2168216.000000, 2974.750000, 8161.500000, 8169.500000, 8156.500000
2863, 2168376.000000, 3002.625000, 8169.000000, 8181.000000, 8179.000000
2864, 2168536.000000, 2905.625000, 8175.500000, 8186.000000, 8193.000000
2865, 2168696.000000, 2742.750000, 8178.000000, 8178.500000, 8180.000000
2866, 2168856.000000, 2558.125000, 8172.500000, 8172.000000, 8164.000000
2867, 2169016.000000, 2362.875000, 8163.500000, 8167.000000, 8152.500000
2868, 2169176.000000, 2165.125000, 8165.000000, 8180.500000, 8161.500000
2869, 2169336.000000, 1990.875000, 8297.500000, 8304.500000, 8348.500000
2870, 2169496.000000, 1887.625000, 8489.500000, 7615.500000, 7797.000000
2871, 2169656.000000, 1856.250000, 7989.000000, 7866.500000, 7747.500000
2872, 2169816.000000, 1881.375000, 8178.500000, 8220.000000, 8209.500000
2873, 2169976.000000, 1925.750000, 8186.500000, 8272.000000, 8269.500000
2874, 2170136.000000, 1962.000000, 8196.500000, 8296.000000, 8298.000000
2875, 2170296.000000, 1965.500000, 8207.500000, 8308.000000, 8315.000000
2876, 2170456.000000, 1927.375000, 8219.000000, 8316.500000, 8328.500000
2877, 2170616.000000, 1857.125000, 8233.500000, 8326.500000, 8345.000000
2878, 2170776.000000, 1765.750000, 8253.000000, 8341.000000, 8368.500000
2879, 2170936.000000, 1668.875000, 8279.000000, 8360.000000, 8397.000000
2880, 2171096.000000, 1575.500000, 8299.000000, 8372.000000, 8418.000000
2881, 2171256.000000, 1490.125000, 8298.500000, 8370.500000, 8414.500000
2882, 2171416.000000, 1415.250000, 8278.500000, 8346.500000, 8383.000000
2883, 2171576.000000, 1353.000000, 8237.500000, 8293.000000, 8312.500000
2884, 2171736.000000, 1303.250000, 8186.500000, 8234.500000, 8233.000000
2885, 2171896.000000, 1262.875000, 8151.500000, 8201.000000, 8184.500000
2886, 2172056.000000, 1233.875000, 8139.000000, 8189.500000, 8167.500000
2887, 2172216.000000, 1212.875000, 8140.000000, 8187.000000, 8166.000000
2888, 2172376.000000, 1195.125000, 8145.000000, 8188.000000, 8170.000000
2889, 2172536.000000, 1186.250000, 8153.500000, 8189.500000, 8175.000000
2890, 2172696.000000, 1179.875000, 8159.000000, 8188.500000, 8174.000000
2891, 2172856.000000, 1169.625000, 8159.000000, 8185.500000, 8171.000000
2892, 2173016.000000, 1149.125000, 8157.000000, 8183.500000, 8168.500000
2893, 2173176.000000, 1114.750000, 8156.000000, 8182.000000, 8167.000000
2894, 2173336.000000, 1119.875000, 8156.000000, 8180.000000, 8163.500000
2895, 2173496.000000, 1269.125000, 8157.000000, 8178.500000, 8161.500000
2896, 2173656.000000, 1649.125000, 8154.000000, 8178.000000, 8160.000000
2897, 2173816.000000, 2183.875000, 8156.000000, 8177.000000, 8160.500000
2898, 2173976.000000, 2704.000000, 8155.500000, 8177.000000, 8161.000000
2899, 2174136.000000, 3067.875000, 8159.500000, 8179.000000, 8164.500000
2900, 2174296.000000, 3226.875000, 8162.500000, 8181.000000, 8170.500000
2901, 2174456.000000, 3218.875000, 8167.500000, 8186.500000, 8181.500000
2902, 2174616.000000, 3096.125000, 8175.000000, 8190.500000, 8196.000000
2903, 2174776.000000, 2927.875000, 8174.500000, 8185.000000, 8184.500000
2904, 2174936.000000, 2753.375000, 8164.500000, 8177.500000, 8165.500000
2905, 2175096.000000, 2571.250000, 8164.500000, 8173.500000, 8158.500000
2906, 2175256.000000, 2389.375000, 8163.500000, 8213.500000, 8186.000000
2907, 2175416.000000, 2227.500000, 8416.000000, 8223.000000, 8322.000000
2908, 2175576.000000, 2119.125000, 8394.500000, 7624.000000, 7745.000000
2909, 2175736.000000, 2072.375000, 8038.000000, 7973.000000, 7871.500000
2910, 2175896.000000, 2075.625000, 8178.500000, 8230.500000, 8221.000000
2911, 2176056.000000, 2094.125000, 8186.500000, 8252.500000, 8248.000000
2912, 2176216.000000, 2104.625000, 8195.000000, 8259.500000, 8260.500000
2913, 2176376.000000, 2083.625000, 8204.000000, 8266.500000, 8270.500000
2914, 2176536.000000, 2028.750000, 8221.500000, 8272.500000, 8284.000000
2915, 2176696.000000, 1944.500000, 8236.000000, 8282.500000, 8301.000000
2916, 2176856.000000, 1842.875000, 8254.000000, 8296.500000, 8321.000000
2917, 2177016.000000, 1737.250000, 8276.000000, 8313.000000, 8346.000000
2918, 2177176.000000, 1639.125000, 8294.000000, 8322.000000, 8362.000000
2919, 2177336.000000, 1550.250000, 8289.500000, 8317.500000, 8354.500000
2920, 2177496.000000, 1473.500000, 8267.000000, 8294.000000, 8322.000000
2921, 2177656.000000, 1411.750000, 8220.500000, 8249.000000, 8260.000000
2922, 2177816.000000, 1366.000000, 8169.000000, 8202.000000, 8193.000000
2923, 2177976.000000, 1329.625000, 8140.000000, 8178.500000, 8159.000000
2924, 2178136.000000, 1304.375000, 8132.500000, 8174.000000, 8151.500000
2925, 2178296.000000, 1285.875000, 8136.500000, 8177.000000, 8155.500000
2926, 2178456.000000, 1273.500000, 8144.500000, 8178.500000, 8160.000000
2927, 2178616.000000, 1266.250000, 8148.500000, 8178.000000, 8161.500000
2928, 2178776.000000, 1259.875000, 8153.000000, 8172.500000, 8157.500000
2929, 2178936.000000, 1247.750000, 8155.000000, 8159.000000, 8144.000000
2930, 2179096.000000, 1224.500000, 8155.000000, 8151.500000, 8136.500000
2931, 2179256.000000, 1190.750000, 8151.000000, 8143.500000, 8125.500000
2932, 2179416.000000, 1195.000000, 8152.000000, 8140.000000, 8121.000000
2933, 2179576.000000, 1331.500000, 8152.000000, 8140.000000, 8122.500000
2934, 2179736.000000, 1701.125000, 8153.000000, 8140.000000, 8121.500000
2935, 2179896.000000, 2216.000000, 8156.000000, 8140.000000, 8123.000000
2936, 2180056.000000, 2725.375000, 8158.500000, 8143.000000, 8128.000000
2937, 2180216.000000, 3077.875000, 8165.000000, 8151.500000, 8144.500000
2938, 2180376.000000, 3232.375000, 8174.000000, 8160.500000, 8165.500000
2939, 2180536.000000, 3213.250000, 8176.000000, 8154.000000, 8152.500000
2940, 2180696.000000, 3085.000000, 8171.000000, 8151.000000, 8139.500000
2941, 2180856.000000, 2913.000000, 8165.500000, 8147.000000, 8132.500000
2942, 2181016.000000, 2730.250000, 8165.500000, 8176.000000, 8150.500000
2943, 2181176.000000, 2540.625000, 8377.500000, 8253.500000, 8335.000000
2944, 2181336.000000, 2352.625000, 8420.000000, 7703.500000, 7838.500000
2945, 2181496.000000, 2193.000000, 8014.500000, 7926.000000, 7820.000000
2946, 2181656.000000, 2103.250000, 8174.500000, 8192.500000, 8178.000000
2947, 2181816.000000, 2084.000000, 8185.500000, 8221.000000, 8215.000000
2948, 2181976.000000, 2109.625000, 8195.500000, 8231.500000, 8232.500000
2949, 2182136.000000, 2148.250000, 8208.500000, 8239.500000, 8245.500000
2950, 2182296.000000, 2164.000000, 8221.500000, 8247.500000, 8258.500000
2951, 2182456.000000, 2144.750000, 8237.500000, 8260.500000, 8279.000000
2952, 2182616.000000, 2085.000000, 8257.500000, 8277.000000, 8304.000000
2953, 2182776.000000, 1993.000000, 8279.500000, 8298.000000, 8334.000000
2954, 2182936.000000, 1888.875000, 8297.500000, 8311.500000, 8352.000000
2955, 2183096.000000, 1781.250000, 8292.000000, 8311.000000, 8348.500000
2956, 2183256.000000, 1684.500000, 8267.000000, 8288.000000, 8317.000000
2957, 2183416.000000, 1600.000000, 8220.000000, 8243.500000, 8254.500000
2958, 2183576.000000, 1530.000000, 8175.000000, 8197.500000, 8191.500000
2959, 2183736.000000, 1475.500000, 8143.500000, 8175.500000, 8157.500000
2960, 2183896.000000, 1433.375000, 8140.000000, 8169.500000, 8150.500000
2961, 2184056.000000, 1399.500000, 8142.000000, 8171.000000, 8153.000000
2962, 2184216.000000, 1371.625000, 8149.500000, 8173.000000, 8159.000000
2963, 2184376.000000, 1350.875000, 8154.500000, 8176.500000, 8165.000000
2964, 2184536.000000, 1333.375000, 8160.000000, 8178.000000, 8168.000000
2965, 2184696.000000, 1316.875000, 8160.000000, 8177.000000, 8165.000000
2966, 2184856.000000, 1292.500000, 8158.000000, 8174.000000, 8160.500000
2967, 2185016.000000, 1256.000000, 8155.000000, 8174.000000, 8159.000000
2968, 2185176.000000, 1232.500000, 8155.500000, 8175.500000, 8160.500000
2969, 2185336.000000, 1311.250000, 8155.000000, 8178.500000, 8161.500000
2970, 2185496.000000, 1571.750000, 8157.500000, 8182.500000, 8166.000000
2971, 2185656.000000, 2016.875000, 8159.000000, 8192.500000, 8178.000000
2972, 2185816.000000, 2502.500000, 8159.500000, 8196.500000, 8182.000000
2973, 2185976.000000, 2890.625000, 8162.000000, 8197.000000, 8184.000000
2974, 2186136.000000, 3084.000000, 8164.500000, 8197.500000, 8185.500000
2975, 2186296.000000, 3104.125000, 8173.500000, 8206.500000, 8204.500000
2976, 2186456.000000, 2995.500000, 8179.000000, 8210.500000, 8218.500000
2977, 2186616.000000, 2825.125000, 8180.000000, 8203.000000, 8204.000000
2978, 2186776.000000, 2635.375000, 8168.000000, 8194.500000, 8183.500000
2979, 2186936.000000, 2431.375000, 8167.000000, 8190.500000, 8175.500000
2980, 2187096.000000, 2226.750000, 8169.000000, 8209.000000, 8185.000000
2981, 2187256.000000, 2051.750000, 8336.000000, 8289.000000, 8347.000000
2982, 2187416.000000, 1952.375000, 8452.000000, 7595.000000, 7756.500000
2983, 2187576.000000, 1927.875000, 8007.500000, 7919.000000, 7803.500000
2984, 2187736.000000, 1955.750000, 8184.000000, 8242.000000, 8235.000000
2985, 2187896.000000, 2000.875000, 8190.000000, 8269.500000, 8267.500000
2986, 2188056.000000, 2027.750000, 8196.000000, 8279.000000, 8281.000000
2987, 2188216.000000, 2014.375000, 8207.000000, 8284.000000, 8291.000000
2988, 2188376.000000, 1959.750000, 8219.500000, 8292.500000, 8305.500000
2989, 2188536.000000, 1875.625000, 8237.000000, 8300.500000, 8319.500000
2990, 2188696.000000, 1774.250000, 8256.500000, 8313.500000, 8341.500000
2991, 2188856.000000, 1670.125000, 8275.500000, 8330.500000, 8367.000000
2992, 2189016.000000, 1576.125000, 8295.000000, 8343.500000, 8387.000000
2993, 2189176.000000, 1492.000000, 8297.000000, 8343.000000, 8388.000000
2994, 2189336.000000, 1419.250000, 8276.500000, 8319.000000, 8356.000000
2995, 2189496.000000, 1359.750000, 8233.000000, 8265.000000, 8284.000000
2996, 2189656.000000, 1313.000000, 8182.000000, 8209.500000, 8208.000000
2997, 2189816.000000, 1277.625000, 8146.000000, 8180.000000, 8162.500000
2998, 2189976.000000, 1250.625000, 8135.500000, 8172.000000, 8151.500000
2999, 2190136.000000, 1232.750000, 8138.500000, 8172.500000, 8153.000000
3000, 2190296.000000, 1220.125000, 8146.000000, 8174.000000, 8157.000000
3001, 2190456.000000, 1211.375000, 8151.000000, 8175.500000, 8161.500000
3002, 2190616.000000, 1201.500000, 8154.000000, 8175.000000, 8162.000000
3003, 2190776.000000, 1189.750000, 8155.000000, 8175.500000, 8162.500000
3004, 2190936.000000, 1162.375000, 8158.500000, 8174.500000, 8161.500000
3005, 2191096.000000, 1120.250000, 8157.000000, 8173.000000, 8159.000000
3006, 2191256.000000, 1114.750000, 8153.500000, 8171.500000, 8155.000000
3007, 2191416.000000, 1254.500000, 8152.500000, 8170.000000, 8153.000000
3008, 2191576.000000, 1637.000000, 8153.000000, 8172.000000, 8155.500000
3009, 2191736.000000, 2196.125000, 8156.000000, 8174.000000, 8159.000000
3010, 2191896.000000, 2756.750000, 8158.500000, 8174.000000, 8158.000000
3011, 2192056.000000, 3162.000000, 8159.000000, 8175.500000, 8160.500000
3012, 2192216.000000, 3343.125000, 8161.000000, 8174.000000, 8159.000000
3013, 2192376.000000, 3341.875000, 8168.500000, 8184.000000, 8179.500000
3014, 2192536.000000, 3218.375000, 8171.500000, 8190.000000, 8191.000000
3015, 2192696.000000, 3050.750000, 8180.500000, 8185.000000, 8187.500000
3016, 2192856.000000, 2878.500000, 8176.000000, 8180.500000, 8175.000000
3017, 2193016.000000, 2704.750000, 8165.000000, 8172.000000, 8157.000000
3018, 2193176.000000, 2524.250000, 8168.000000, 8173.000000, 8158.500000
3019, 2193336.000000, 2348.250000, 8192.500000, 8294.500000, 8280.000000
3020, 2193496.000000, 2219.750000, 8545.500000, 7888.000000, 8067.500000
3021, 2193656.000000, 2151.250000, 8024.500000, 7708.000000, 7636.000000
3022, 2193816.000000, 2137.750000, 8153.500000, 8158.500000, 8124.000000
3023, 2193976.000000, 2147.500000, 8185.500000, 8246.500000, 8241.500000
3024, 2194136.000000, 2151.875000, 8194.000000, 8261.500000, 8260.000000
3025, 2194296.000000, 2125.000000, 8204.000000, 8267.000000, 8270.000000
3026, 2194456.000000, 2061.250000, 8215.500000, 8270.000000, 8279.500000
3027, 2194616.000000, 1965.125000, 8229.500000, 8277.500000, 8293.500000
3028, 2194776.000000, 1852.000000, 8248.500000, 8290.000000, 8314.000000
3029, 2194936.000000, 1733.750000, 8271.000000, 8308.500000, 8342.000000
3030, 2195096.000000, 1624.250000, 8292.500000, 8323.000000, 8365.000000
3031, 2195256.000000, 1527.500000, 8301.500000, 8325.500000, 8369.500000
3032, 2195416.000000, 1445.750000, 8287.000000, 8314.500000, 8353.000000
3033, 2195576.000000, 1380.000000, 8253.500000, 8277.500000, 8302.500000
3034, 2195736.000000, 1326.250000, 8202.500000, 8221.500000, 8224.500000
3035, 2195896.000000, 1286.750000, 8159.000000, 8179.000000, 8163.500000
3036, 2196056.000000, 1256.250000, 8137.500000, 8163.000000, 8140.000000
3037, 2196216.000000, 1234.000000, 8132.000000, 8161.500000, 8137.000000
3038, 2196376.000000, 1216.375000, 8139.000000, 8163.500000, 8142.500000
3039, 2196536.000000, 1199.750000, 8147.500000, 8168.000000, 8150.500000
3040, 2196696.000000, 1184.375000, 8153.000000, 8169.000000, 8154.000000
3041, 2196856.000000, 1164.125000, 8154.000000, 8168.000000, 8152.000000
3042, 2197016.000000, 1135.750000, 8153.500000, 8169.000000, 8153.500000
3043, 2197176.000000, 1094.375000, 8151.500000, 8170.000000, 8153.500000
3044, 2197336.000000, 1051.250000, 8151.000000, 8170.000000, 8152.000000
3045, 2197496.000000, 1069.750000, 8151.000000, 8169.000000, 8151.000000
3046, 2197656.000000, 1282.500000, 8150.000000, 8169.000000, 8150.500000
3047, 2197816.000000, 1721.000000, 8149.500000, 8169.500000, 8150.500000
3048, 2197976.000000, 2299.000000, 8152.000000, 8171.000000, 8153.500000
3049, 2198136.000000, 2815.875000, 8154.500000, 8172.000000, 8155.500000
3050, 2198296.000000, 3149.000000, 8155.000000, 8171.000000, 8154.000000
3051, 2198456.000000, 3262.625000, 8158.500000, 8173.000000, 8158.000000
3052, 2198616.000000, 3204.250000, 8162.000000, 8182.000000, 8175.000000
3053, 2198776.000000, 3054.375000, 8169.500000, 8188.500000, 8191.500000
3054, 2198936.000000, 2874.375000, 8176.000000, 8184.000000, 8184.000000
3055, 2199096.000000, 2697.875000, 8169.000000, 8175.500000, 8164.500000
3056, 2199256.000000, 2515.875000, 8162.500000, 8170.000000, 8154.500000
3057, 2199416.000000, 2331.125000, 8164.500000, 8178.000000, 8159.000000
3058, 2199576.000000, 2174.250000, 8271.000000, 8320.500000, 8354.000000
3059, 2199736.000000, 2076.750000, 8544.500000, 7758.500000, 7954.500000
3060, 2199896.000000, 2042.875000, 7978.500000, 7877.000000, 7769.000000
3061, 2200056.000000, 2050.125000, 8166.500000, 8196.000000, 8172.500000
3062, 2200216.000000, 2067.875000, 8180.000000, 8239.000000, 8230.500000
3063, 2200376.000000, 2069.500000, 8190.500000, 8252.500000, 8249.000000
3064, 2200536.000000, 2035.375000, 8203.500000, 8257.000000, 8260.500000
3065, 2200696.000000, 1963.125000, 8217.500000, 8262.500000, 8271.500000
3066, 2200856.000000, 1866.875000, 8228.500000, 8270.000000, 8283.500000
3067, 2201016.000000, 1756.500000, 8248.000000, 8283.000000, 8305.500000
3068, 2201176.000000, 1646.875000, 8269.500000, 8299.000000, 8329.000000
3069, 2201336.000000, 1545.750000, 8292.500000, 8310.000000, 8348.000000
3070, 2201496.000000, 1460.375000, 8289.500000, 8308.500000, 8344.500000
3071, 2201656.000000, 1389.375000, 8271.000000, 8292.500000, 8323.000000
3072, 2201816.000000, 1330.875000, 8231.000000, 8254.000000, 8269.000000
3073, 2201976.000000, 1288.000000, 8185.000000, 8208.000000, 8205.500000
3074, 2202136.000000, 1251.250000, 8150.500000, 8179.000000, 8162.500000
3075, 2202296.000000, 1224.750000, 8136.000000, 8169.000000, 8148.000000
3076, 2202456.000000, 1209.375000, 8138.000000, 8169.000000, 8150.000000
3077, 2202616.000000, 1198.500000, 8143.000000, 8169.000000, 8152.000000
3078, 2202776.000000, 1188.500000, 8151.000000, 8165.000000, 8151.000000
3079, 2202936.000000, 1177.625000, 8155.000000, 8160.500000, 8147.500000
3080, 2203096.000000, 1157.625000, 8157.000000, 8153.000000, 8139.000000
3081, 2203256.000000, 1120.750000, 8153.500000, 8148.000000, 8132.500000
3082, 2203416.000000, 1080.875000, 8151.000000, 8147.000000, 8131.000000
3083, 2203576.000000, 1133.500000, 8150.000000, 8147.500000, 8131.000000
3084, 2203736.000000, 1472.375000, 8150.500000, 8146.500000, 8129.000000
3085, 2203896.000000, 1976.500000, 8152.000000, 8146.500000, 8129.500000
3086, 2204056.000000, 2519.750000, 8151.000000, 8148.000000, 8131.000000
3087, 2204216.000000, 2941.750000, 8153.000000, 8151.000000, 8136.000000
3088, 2204376.000000, 3151.625000, 8155.500000, 8154.000000, 8140.000000
3089, 2204536.000000, 3164.375000, 8162.000000, 8163.000000, 8156.000000
3090, 2204696.000000, 3043.875000, 8167.500000, 8169.000000, 8171.500000
3091, 2204856.000000, 2855.125000, 8170.000000, 8162.000000, 8162.000000
3092, 2205016.000000, 2644.750000, 8165.000000, 8162.000000, 8151.500000
3093, 2205176.000000, 2426.125000, 8159.000000, 8158.000000, 8143.000000
3094, 2205336.000000, 2210.625000, 8161.000000, 8173.000000, 8150.000000
3095, 2205496.000000, 2034.500000, 8306.000000, 8300.500000, 8351.500000
3096, 2205656.000000, 1936.125000, 8490.500000, 7750.000000, 7924.000000
3097, 2205816.000000, 1922.375000, 7985.000000, 7895.500000, 7788.000000
3098, 2205976.000000, 1961.500000, 8168.000000, 8191.500000, 8171.500000
3099, 2206136.000000, 2010.625000, 8183.000000, 8229.500000, 8223.000000
3100, 2206296.000000, 2038.750000, 8192.000000, 8240.000000, 8239.000000
3101, 2206456.000000, 2025.500000, 8200.000000, 8246.500000, 8248.500000
3102, 2206616.000000, 1966.375000, 8215.000000, 8253.500000, 8264.000000
3103, 2206776.000000, 1877.000000, 8229.000000, 8264.500000, 8280.000000
3104, 2206936.000000, 1769.500000, 8251.000000, 8280.000000, 8304.500000
3105, 2207096.000000, 1662.250000, 8271.500000, 8298.500000, 8330.500000
3106, 2207256.000000, 1561.750000, 8289.000000, 8311.500000, 8349.500000
3107, 2207416.000000, 1472.250000, 8284.500000, 8311.000000, 8347.500000
3108, 2207576.000000, 1399.250000, 8267.000000, 8294.000000, 8323.000000
3109, 2207736.000000, 1340.625000, 8224.000000, 8250.500000, 8263.500000
3110, 2207896.000000, 1294.375000, 8177.000000, 8202.500000, 8196.500000
3111, 2208056.000000, 1261.500000, 8143.500000, 8175.500000, 8156.500000
3112, 2208216.000000, 1238.000000, 8131.000000, 8169.500000, 8146.500000
3113, 2208376.000000, 1220.750000, 8133.000000, 8170.500000, 8148.500000
3114, 2208536.000000, 1211.875000, 8145.000000, 8173.000000, 8156.000000
3115, 2208696.000000, 1204.375000, 8150.000000, 8175.000000, 8160.000000
3116, 2208856.000000, 1191.375000, 8153.000000, 8175.500000, 8160.500000
3117, 2209016.000000, 1169.375000, 8151.000000, 8175.500000, 8159.500000
3118, 2209176.000000, 1129.625000, 8153.500000, 8175.000000, 8160.500000
3119, 2209336.000000, 1104.250000, 8153.500000, 8173.500000, 8158.000000
3120, 2209496.000000, 1173.125000, 8153.000000, 8172.500000, 8155.500000
3121, 2209656.000000, 1451.875000, 8150.000000, 8172.000000, 8153.500000
3122, 2209816.000000, 1925.625000, 8151.000000, 8172.500000, 8154.500000
3123, 2209976.000000, 2458.000000, 8154.000000, 8175.000000, 8159.000000
3124, 2210136.000000, 2872.875000, 8156.500000, 8175.500000, 8160.000000
3125, 2210296.000000, 3100.500000, 8159.000000, 8174.500000, 8159.500000
3126, 2210456.000000, 3122.375000, 8158.000000, 8174.500000, 8159.500000
3127, 2210616.000000, 3011.500000, 8160.000000, 8176.500000, 8161.500000
3128, 2210776.000000, 2829.625000, 8164.000000, 8181.500000, 8172.000000
3129, 2210936.000000, 2622.500000, 8170.500000, 8190.000000, 8186.000000
3130, 2211096.000000, 2406.625000, 8180.000000, 8193.500000, 8201.500000
3131, 2211256.000000, 2188.625000, 8180.000000, 8187.000000, 8187.000000
3132, 2211416.000000, 2005.875000, 8167.000000, 8179.500000, 8166.500000
3133, 2211576.000000, 1895.875000, 8168.500000, 8178.500000, 8165.000000
3134, 2211736.000000, 1873.875000, 8170.500000, 8226.500000, 8200.500000
3135, 2211896.000000, 1904.875000, 8426.000000, 8188.500000, 8291.500000
3136, 2212056.000000, 1956.125000, 8355.000000, 7602.000000, 7704.500000
3137, 2212216.000000, 1986.125000, 8052.500000, 7996.000000, 7898.000000
3138, 2212376.000000, 1980.125000, 8182.500000, 8246.000000, 8238.000000
3139, 2212536.000000, 1928.250000, 8191.000000, 8271.000000, 8267.500000
3140, 2212696.000000, 1841.000000, 8198.500000, 8279.500000, 8279.000000
3141, 2212856.000000, 1735.500000, 8207.000000, 8285.500000, 8290.500000
3142, 2213016.000000, 1625.500000, 8220.000000, 8297.000000, 8308.500000
3143, 2213176.000000, 1521.000000, 8237.500000, 8309.000000, 8326.500000
3144, 2213336.000000, 1430.625000, 8257.000000, 8325.000000, 8349.500000
3145, 2213496.000000, 1351.750000, 8277.000000, 8343.500000, 8377.000000
3146, 2213656.000000, 1289.750000, 8293.000000, 8354.500000, 8394.500000
3147, 2213816.000000, 1241.125000, 8289.500000, 8350.500000, 8388.500000
3148, 2213976.000000, 1207.125000, 8270.500000, 8324.000000, 8355.000000
3149, 2214136.000000, 1179.250000, 8225.000000, 8270.000000, 8281.000000
3150, 2214296.000000, 1159.750000, 8177.000000, 8216.000000, 8206.500000
3151, 2214456.000000, 1144.750000, 8144.500000, 8189.000000, 8165.500000
3152, 2214616.000000, 1131.750000, 8134.000000, 8182.000000, 8155.000000
3153, 2214776.000000, 1116.750000, 8138.000000, 8182.000000, 8157.000000
3154, 2214936.000000, 1106.500000, 8146.500000, 8184.000000, 8161.000000
3155, 2215096.000000, 1095.500000, 8151.000000, 8184.000000, 8163.000000
3156, 2215256.000000, 1078.250000, 8152.500000, 8183.000000, 8164.000000
3157, 2215416.000000, 1048.750000, 8151.500000, 8182.500000, 8163.000000
3158, 2215576.000000, 1006.125000, 8154.000000, 8182.000000, 8161.000000
3159, 2215736.000000, 1026.000000, 8153.000000, 8180.000000, 8159.000000
3160, 2215896.000000, 1252.250000, 8151.500000, 8178.000000, 8156.500000
3161, 2216056.000000, 1749.750000, 8149.000000, 8177.000000, 8154.000000
3162, 2216216.000000, 2390.250000, 8148.500000, 8176.000000, 8152.500000
3163, 2216376.000000, 2970.500000, 8148.000000, 8177.000000, 8152.000000
3164, 2216536.000000, 3336.875000, 8152.500000, 8177.500000, 8154.500000
3165, 2216696.000000, 3477.000000, 8153.000000, 8177.000000, 8154.000000
3166, 2216856.000000, 3419.625000, 8152.000000, 8176.000000, 8153.000000
3167, 2217016.000000, 3264.000000, 8156.000000, 8176.500000, 8156.000000
3168, 2217176.000000, 3070.750000, 8165.500000, 8186.500000, 8178.000000
3169, 2217336.000000, 2876.625000, 8171.000000, 8191.000000, 8188.500000
3170, 2217496.000000, 2683.000000, 8175.000000, 8185.000000, 8179.000000
3171, 2217656.000000, 2483.875000, 8166.000000, 8176.500000, 8161.500000
3172, 2217816.000000, 2306.875000, 8161.000000, 8172.000000, 8151.000000
3173, 2217976.000000, 2185.750000, 8164.000000, 8177.000000, 8155.000000
3174, 2218136.000000, 2136.000000, 8240.000000, 8327.000000, 8339.000000
3175, 2218296.000000, 2132.625000, 8563.500000, 7740.500000, 7935.000000
3176, 2218456.000000, 2146.500000, 7972.000000, 7827.000000, 7710.500000
3177, 2218616.000000, 2142.750000, 8163.500000, 8198.000000, 8169.500000
3178, 2218776.000000, 2107.375000, 8178.000000, 8247.000000, 8234.000000
3179, 2218936.000000, 2033.375000, 8189.000000, 8258.500000, 8251.500000
3180, 2219096.000000, 1928.375000, 8198.000000, 8263.500000, 8260.500000
3181, 2219256.000000, 1807.250000, 8209.000000, 8269.500000, 8271.500000
3182, 2219416.000000, 1679.250000, 8225.500000, 8277.500000, 8286.000000
3183, 2219576.000000, 1559.750000, 8245.500000, 8290.500000, 8308.500000
3184, 2219736.000000, 1458.125000, 8268.000000, 8307.500000, 8334.000000
3185, 2219896.000000, 1372.000000, 8289.000000, 8318.500000, 8352.500000
3186, 2220056.000000, 1305.000000, 8293.000000, 8317.500000, 8353.500000
3187, 2220216.000000, 1250.500000, 8276.000000, 8304.000000, 8333.000000
3188, 2220376.000000, 1214.875000, 8244.000000, 8266.500000, 8283.500000
3189, 2220536.000000, 1190.125000, 8192.500000, 8216.500000, 8214.000000
3190, 2220696.000000, 1174.125000, 8150.000000, 8182.000000, 8162.500000
3191, 2220856.000000, 1163.500000, 8132.500000, 8169.000000, 8143.500000
3192, 2221016.000000, 1152.125000, 8131.500000, 8168.500000, 8143.500000
3193, 2221176.000000, 1140.625000, 8139.500000, 8167.000000, 8144.500000
3194, 2221336.000000, 1129.500000, 8146.500000, 8163.500000, 8142.500000
3195, 2221496.000000, 1115.875000, 8151.000000, 8159.000000, 8141.000000
3196, 2221656.000000, 1091.125000, 8151.000000, 8155.000000, 8137.000000
3197, 2221816.000000, 1053.250000, 8152.000000, 8154.000000, 8136.500000
3198, 2221976.000000, 1015.000000, 8151.000000, 8152.000000, 8134.000000
3199, 2222136.000000, 1063.000000, 8152.000000, 8150.000000, 8132.500000
3200, 2222296.000000, 1330.125000, 8150.000000, 8148.500000, 8129.500000
3201, 2222456.000000, 1837.125000, 8150.000000, 8149.000000, 8130.000000
3202, 2222616.000000, 2435.750000, 8149.500000, 8150.500000, 8132.500000
3203, 2222776.000000, 2935.750000, 8153.000000, 8152.000000, 8135.000000
3204, 2222936.000000, 3224.375000, 8155.000000, 8151.000000, 8134.000000
3205, 2223096.000000, 3300.875000, 8160.500000, 8159.000000, 8148.500000
3206, 2223256.000000, 3207.500000, 8162.000000, 8162.500000, 8156.500000
3207, 2223416.000000, 3033.375000, 8168.000000, 8161.000000, 8161.000000
3208, 2223576.000000, 2839.500000, 8170.500000, 8161.500000, 8154.500000
3209, 2223736.000000, 2648.625000, 8160.500000, 8153.500000, 8138.000000
3210, 2223896.000000, 2453.375000, 8162.500000, 8154.500000, 8137.000000
3211, 2224056.000000, 2259.375000, 8208.500000, 8288.500000, 8292.000000
3212, 2224216.000000, 2110.500000, 8560.500000, 7909.000000, 8097.500000
3213, 2224376.000000, 2030.625000, 7981.500000, 7820.500000, 7739.500000
3214, 2224536.000000, 2018.875000, 8140.000000, 8132.000000, 8081.500000
3215, 2224696.000000, 2041.500000, 8179.500000, 8218.000000, 8208.000000
3216, 2224856.000000, 2063.875000, 8188.000000, 8232.500000, 8227.500000
3217, 2225016.000000, 2062.625000, 8197.500000, 8241.500000, 8243.000000
3218, 2225176.000000, 2024.625000, 8212.000000, 8250.000000, 8256.500000
3219, 2225336.000000, 1947.375000, 8228.000000, 8258.000000, 8272.000000
3220, 2225496.000000, 1843.125000, 8244.000000, 8271.000000, 8291.000000
3221, 2225656.000000, 1732.500000, 8266.000000, 8288.000000, 8318.500000
3222, 2225816.000000, 1624.250000, 8286.000000, 8305.000000, 8340.500000
3223, 2225976.000000, 1524.750000, 8293.500000, 8309.000000, 8347.500000
3224, 2226136.000000, 1439.750000, 8279.000000, 8297.500000, 8330.500000
3225, 2226296.000000, 1370.250000, 8241.500000, 8261.000000, 8281.000000
3226, 2226456.000000, 1314.875000, 8190.000000, 8212.000000, 8212.500000
3227, 2226616.000000, 1272.000000, 8150.500000, 8180.000000, 8166.000000
3228, 2226776.000000, 1238.875000, 8134.500000, 8167.500000, 8147.500000
3229, 2226936.000000, 1216.875000, 8134.000000, 8166.000000, 8146.500000
3230, 2227096.000000, 1199.500000, 8142.500000, 8168.000000, 8151.500000
3231, 2227256.000000, 1190.500000, 8148.000000, 8169.000000, 8155.000000
3232, 2227416.000000, 1180.125000, 8153.000000, 8171.500000, 8160.500000
3233, 2227576.000000, 1164.875000, 8157.500000, 8171.500000, 8161.000000
3234, 2227736.000000, 1138.000000, 8158.500000, 8169.500000, 8157.500000
3235, 2227896.000000, 1094.250000, 8155.500000, 8167.000000, 8154.000000
3236, 2228056.000000, 1085.125000, 8153.500000, 8166.500000, 8153.000000
3237, 2228216.000000, 1211.000000, 8153.000000, 8167.500000, 8154.500000
3238, 2228376.000000, 1574.375000, 8155.000000, 8168.500000, 8155.000000
3239, 2228536.000000, 2087.000000, 8156.500000, 8169.500000, 8156.000000
3240, 2228696.000000, 2593.625000, 8157.000000, 8169.000000, 8156.000000
3241, 2228856.000000, 2937.500000, 8157.000000, 8168.500000, 8156.500000
3242, 2229016.000000, 3081.500000, 8161.000000, 8172.000000, 8161.000000
3243, 2229176.000000, 3046.125000, 8164.500000, 8175.000000, 8167.000000
3244, 2229336.000000, 2901.000000, 8171.000000, 8184.000000, 8185.000000
3245, 2229496.000000, 2709.000000, 8177.500000, 8188.500000, 8200.000000
3246, 2229656.000000, 2499.500000, 8178.500000, 8181.000000, 8186.000000
3247, 2229816.000000, 2285.875000, 8172.500000, 8177.000000, 8171.500000
3248, 2229976.000000, 2075.750000, 8168.000000, 8173.000000, 8162.500000
3249, 2230136.000000, 1912.875000, 8170.500000, 8200.500000, 8180.500000
3250, 2230296.000000, 1827.750000, 8356.500000, 8261.500000, 8334.000000
3251, 2230456.000000, 1823.125000, 8438.500000, 7593.500000, 7748.500000
3252, 2230616.000000, 1863.125000, 8015.000000, 7930.500000, 7820.000000
3253, 2230776.000000, 1910.750000, 8185.000000, 8239.500000, 8236.000000
3254, 2230936.000000, 1931.375000, 8192.000000, 8267.500000, 8269.500000
3255, 2231096.000000, 1913.750000, 8199.000000, 8277.500000, 8283.500000
3256, 2231256.000000, 1853.375000, 8210.500000, 8283.500000, 8295.000000
3257, 2231416.000000, 1763.875000, 8224.000000, 8292.500000, 8309.000000
3258, 2231576.000000, 1660.875000, 8240.000000, 8306.500000, 8330.500000
3259, 2231736.000000, 1555.125000, 8258.000000, 8329.500000, 8361.500000
3260, 2231896.000000, 1458.125000, 8280.000000, 8352.000000, 8393.500000
3261, 2232056.000000, 1373.000000, 8299.500000, 8366.500000, 8415.000000
3262, 2232216.000000, 1301.250000, 8300.500000, 8364.500000, 8414.000000
3263, 2232376.000000, 1245.500000, 8282.500000, 8343.000000, 8386.000000
3264, 2232536.000000, 1201.750000, 8236.500000, 8290.500000, 8314.000000
3265, 2232696.000000, 1169.500000, 8185.000000, 8235.000000, 8238.000000
3266, 2232856.000000, 1145.000000, 8149.000000, 8204.000000, 8191.500000
3267, 2233016.000000, 1127.750000, 8137.500000, 8195.000000, 8178.000000
3268, 2233176.000000, 1114.125000, 8141.000000, 8195.000000, 8178.500000
3269, 2233336.000000, 1105.375000, 8147.000000, 8196.000000, 8181.000000
3270, 2233496.000000, 1098.250000, 8152.500000, 8196.000000, 8184.000000
3271, 2233656.000000, 1090.500000, 8155.500000, 8196.500000, 8186.500000
3272, 2233816.000000, 1071.875000, 8156.500000, 8196.000000, 8186.500000
3273, 2233976.000000, 1034.250000, 8158.000000, 8195.000000, 8183.500000
3274, 2234136.000000, 1005.000000, 8156.000000, 8194.500000, 8181.500000
3275, 2234296.000000, 1090.750000, 8154.500000, 8191.000000, 8176.500000
3276, 2234456.000000, 1425.750000, 8154.000000, 8190.000000, 8176.000000
3277, 2234616.000000, 1983.375000, 8154.000000, 8190.500000, 8176.500000
3278, 2234776.000000, 2590.750000, 8156.000000, 8190.500000, 8175.500000
3279, 2234936.000000, 3063.500000, 8159.500000, 8189.500000, 8175.000000
3280, 2235096.000000, 3314.500000, 8160.500000, 8188.000000, 8174.500000
3281, 2235256.000000, 3350.625000, 8161.000000, 8188.000000, 8175.000000
3282, 2235416.000000, 3238.625000, 8166.000000, 8188.500000, 8178.500000
3283, 2235576.000000, 3057.625000, 8172.500000, 8195.500000, 8193.500000
3284, 2235736.000000, 2860.500000, 8178.000000, 8200.000000, 8204.500000
3285, 2235896.000000, 2671.500000, 8181.000000, 8195.000000, 8199.500000
3286, 2236056.000000, 2478.125000, 8179.000000, 8188.500000, 8185.500000
3287, 2236216.000000, 2293.750000, 8168.000000, 8180.000000, 8167.000000
3288, 2236376.000000, 2150.500000, 8170.500000, 8179.000000, 8165.000000
3289, 2236536.000000, 2072.625000, 8197.000000, 8299.000000, 8289.500000
3290, 2236696.000000, 2053.750000, 8541.000000, 7902.500000, 8079.500000
3291, 2236856.000000, 2068.000000, 8032.000000, 7712.000000, 7646.000000
3292, 2237016.000000, 2082.375000, 8153.000000, 8161.000000, 8125.500000
3293, 2237176.000000, 2075.875000, 8189.500000, 8253.500000, 8252.000000
3294, 2237336.000000, 2032.625000, 8197.500000, 8269.000000, 8271.500000
3295, 2237496.000000, 1955.500000, 8204.000000, 8274.500000, 8279.500000
3296, 2237656.000000, 1851.125000, 8216.000000, 8281.000000, 8293.000000
3297, 2237816.000000, 1737.750000, 8231.000000, 8288.500000, 8306.500000
3298, 2237976.000000, 1629.250000, 8250.500000, 8299.500000, 8325.500000
3299, 2238136.000000, 1530.625000, 8273.000000, 8315.500000, 8350.500000
3300, 2238296.000000, 1444.375000, 8294.000000, 8332.500000, 8376.500000
3301, 2238456.000000, 1371.500000, 8302.000000, 8338.000000, 8384.000000
3302, 2238616.000000, 1315.875000, 8293.500000, 8327.000000, 8369.500000
3303, 2238776.000000, 1274.750000, 8265.000000, 8289.500000, 8320.000000
3304, 2238936.000000, 1242.875000, 8211.500000, 8233.000000, 8242.000000
3305, 2239096.000000, 1218.125000, 8164.000000, 8188.500000, 8177.000000
3306, 2239256.000000, 1198.375000, 8141.500000, 8172.000000, 8152.500000
3307, 2239416.000000, 1181.750000, 8136.500000, 8168.000000, 8146.500000
3308, 2239576.000000, 1165.375000, 8146.000000, 8169.000000, 8150.000000
3309, 2239736.000000, 1151.625000, 8151.000000, 8169.000000, 8152.000000
3310, 2239896.000000, 1137.750000, 8156.000000, 8170.000000, 8155.000000
3311, 2240056.000000, 1119.125000, 8157.000000, 8169.000000, 8155.000000
3312, 2240216.000000, 1087.375000, 8158.000000, 8169.000000, 8155.500000
3313, 2240376.000000, 1044.250000, 8158.500000, 8168.500000, 8152.500000
3314, 2240536.000000, 1037.875000, 8159.500000, 8168.000000, 8153.500000
3315, 2240696.000000, 1194.500000, 8157.000000, 8167.000000, 8152.000000
3316, 2240856.000000, 1609.750000, 8154.500000, 8167.500000, 8151.000000
3317, 2241016.000000, 2199.125000, 8157.000000, 8168.000000, 8153.000000
3318, 2241176.000000, 2761.875000, 8159.500000, 8169.000000, 8154.500000
3319, 2241336.000000, 3151.125000, 8160.000000, 8169.500000, 8155.500000
3320, 2241496.000000, 3308.750000, 8161.500000, 8168.000000, 8155.000000
3321, 2241656.000000, 3276.375000, 8161.000000, 8170.000000, 8157.000000
3322, 2241816.000000, 3126.250000, 8162.500000, 8171.500000, 8160.000000
3323, 2241976.000000, 2932.875000, 8170.500000, 8181.000000, 8178.000000
3324, 2242136.000000, 2738.125000, 8178.000000, 8184.000000, 8190.000000
3325, 2242296.000000, 2544.750000, 8181.500000, 8180.000000, 8182.000000
3326, 2242456.000000, 2348.500000, 8171.000000, 8173.000000, 8166.000000
3327, 2242616.000000, 2173.000000, 8168.000000, 8169.000000, 8156.500000
3328, 2242776.000000, 2053.375000, 8172.000000, 8179.000000, 8162.000000
3329, 2242936.000000, 2007.125000, 8288.000000, 8320.000000, 8360.000000
3330, 2243096.000000, 2010.000000, 8539.500000, 7733.500000, 7929.000000
3331, 2243256.000000, 2034.625000, 7986.000000, 7880.500000, 7773.500000
3332, 2243416.000000, 2050.000000, 8173.000000, 8201.000000, 8183.000000
3333, 2243576.000000, 2032.625000, 8187.500000, 8241.500000, 8237.500000
3334, 2243736.000000, 1976.125000, 8195.000000, 8252.000000, 8253.000000
3335, 2243896.000000, 1889.750000, 8205.000000, 8257.500000, 8263.500000
3336, 2244056.000000, 1784.875000, 8217.000000, 8264.000000, 8275.500000
3337, 2244216.000000, 1674.500000, 8231.500000, 8273.000000, 8291.000000
3338, 2244376.000000, 1568.000000, 8251.500000, 8286.500000, 8312.000000
3339, 2244536.000000, 1473.500000, 8272.000000, 8300.000000, 8332.500000
3340, 2244696.000000, 1394.500000, 8289.500000, 8304.500000, 8342.500000
3341, 2244856.000000, 1330.000000, 8291.000000, 8293.500000, 8332.500000
3342, 2245016.000000, 1281.000000, 8277.000000, 8274.500000, 8308.000000
3343, 2245176.000000, 1246.500000, 8241.000000, 8231.500000, 8250.000000
3344, 2245336.000000, 1223.000000, 8193.000000, 8180.500000, 8181.500000
3345, 2245496.000000, 1205.750000, 8152.000000, 8147.000000, 8132.500000
3346, 2245656.000000, 1193.500000, 8137.000000, 8137.000000, 8117.500000
3347, 2245816.000000, 1183.500000, 8138.000000, 8138.500000, 8120.000000
3348, 2245976.000000, 1175.875000, 8149.000000, 8140.500000, 8127.000000
3349, 2246136.000000, 1166.500000, 8155.000000, 8142.000000, 8130.500000
3350, 2246296.000000, 1153.750000, 8156.500000, 8145.000000, 8133.500000
3351, 2246456.000000, 1136.000000, 8157.500000, 8147.500000, 8136.000000
3352, 2246616.000000, 1107.375000, 8155.500000, 8149.500000, 8136.500000
3353, 2246776.000000, 1063.375000, 8155.500000, 8150.000000, 8136.000000
3354, 2246936.000000, 1048.500000, 8153.000000, 8150.500000, 8135.500000
3355, 2247096.000000, 1173.500000, 8153.000000, 8151.500000, 8136.500000
3356, 2247256.000000, 1546.000000, 8153.500000, 8153.500000, 8139.000000
3357, 2247416.000000, 2094.875000, 8154.500000, 8157.500000, 8143.000000
3358, 2247576.000000, 2637.000000, 8157.500000, 8158.500000, 8144.000000
3359, 2247736.000000, 3020.125000, 8160.500000, 8159.000000, 8145.500000
3360, 2247896.000000, 3184.875000, 8164.500000, 8167.500000, 8160.500000
3361, 2248056.000000, 3158.125000, 8167.500000, 8171.000000, 8167.000000
3362, 2248216.000000, 3010.500000, 8174.000000, 8172.500000, 8177.500000
3363, 2248376.000000, 2803.875000, 8176.500000, 8172.500000, 8169.500000
3364, 2248536.000000, 2584.000000, 8164.000000, 8163.500000, 8148.500000
3365, 2248696.000000, 2361.250000, 8165.000000, 8163.500000, 8149.000000
3366, 2248856.000000, 2147.000000, 8195.500000, 8279.500000, 8276.000000
3367, 2249016.000000, 1976.125000, 8568.000000, 7997.000000, 8181.000000
3368, 2249176.000000, 1889.000000, 8008.000000, 7809.000000, 7750.500000
3369, 2249336.000000, 1884.875000, 8127.500000, 8111.500000, 8052.000000
3370, 2249496.000000, 1929.250000, 8181.000000, 8223.500000, 8215.500000
3371, 2249656.000000, 1984.375000, 8187.500000, 8238.500000, 8235.000000
3372, 2249816.000000, 2017.125000, 8201.000000, 8246.000000, 8250.000000
3373, 2249976.000000, 2006.375000, 8215.500000, 8252.500000, 8262.000000
3374, 2250136.000000, 1950.750000, 8227.500000, 8260.500000, 8275.000000
3375, 2250296.000000, 1862.875000, 8242.500000, 8273.000000, 8293.500000
3376, 2250456.000000, 1756.875000, 8264.500000, 8291.000000, 8320.500000
3377, 2250616.000000, 1650.250000, 8288.000000, 8310.000000, 8348.000000
3378, 2250776.000000, 1551.125000, 8294.000000, 8316.000000, 8355.000000
3379, 2250936.000000, 1463.125000, 8278.000000, 8304.500000, 8337.000000
3380, 2251096.000000, 1391.250000, 8245.000000, 8269.500000, 8290.500000
3381, 2251256.000000, 1332.625000, 8194.000000, 8221.000000, 8222.500000
3382, 2251416.000000, 1287.625000, 8156.500000, 8184.000000, 8170.500000
3383, 2251576.000000, 1252.500000, 8138.500000, 8169.500000, 8149.000000
3384, 2251736.000000, 1224.250000, 8137.000000, 8167.500000, 8146.500000
3385, 2251896.000000, 1204.750000, 8141.500000, 8168.000000, 8149.500000
3386, 2252056.000000, 1193.500000, 8148.000000, 8170.500000, 8155.500000
3387, 2252216.000000, 1185.375000, 8154.000000, 8172.000000, 8159.000000
3388, 2252376.000000, 1175.125000, 8156.500000, 8171.500000, 8159.000000
3389, 2252536.000000, 1159.000000, 8158.000000, 8170.500000, 8157.000000
3390, 2252696.000000, 1128.000000, 8156.000000, 8169.000000, 8154.500000
3391, 2252856.000000, 1089.500000, 8154.000000, 8168.500000, 8152.500000
3392, 2253016.000000, 1116.125000, 8153.000000, 8171.000000, 8154.500000
3393, 2253176.000000, 1332.000000, 8157.000000, 8170.500000, 8155.500000
3394, 2253336.000000, 1761.000000, 8155.500000, 8171.000000, 8154.000000
3395, 2253496.000000, 2294.375000, 8155.000000, 8170.500000, 8153.500000
3396, 2253656.000000, 2740.500000, 8157.500000, 8172.500000, 8159.000000
3397, 2253816.000000, 3009.250000, 8159.000000, 8173.500000, 8160.500000
3398, 2253976.000000, 3066.875000, 8161.500000, 8175.000000, 8163.000000
3399, 2254136.000000, 2976.875000, 8169.500000, 8183.000000, 8179.500000
3400, 2254296.000000, 2796.250000, 8176.500000, 8186.500000, 8196.000000
3401, 2254456.000000, 2582.875000, 8176.000000, 8179.500000, 8181.500000
3402, 2254616.000000, 2358.875000, 8169.500000, 8174.500000, 8165.000000
3403, 2254776.000000, 2131.250000, 8165.500000, 8169.500000, 8156.000000
3404, 2254936.000000, 1932.250000, 8167.000000, 8209.000000, 8183.500000
3405, 2255096.000000, 1799.125000, 8408.000000, 8211.000000, 8308.000000
3406, 2255256.000000, 1760.375000, 8373.500000, 7612.500000, 7727.500000
3407, 2255416.000000, 1786.875000, 8039.000000, 7968.500000, 7866.000000
3408, 2255576.000000, 1844.625000, 8181.500000, 8228.500000, 8221.000000
3409, 2255736.000000, 1891.125000, 8185.000000, 8252.500000, 8247.000000
3410, 2255896.000000, 1907.125000, 8194.000000, 8261.000000, 8263.000000
3411, 2256056.000000, 1876.250000, 8203.500000, 8266.000000, 8272.500000
3412, 2256216.000000, 1805.875000, 8218.000000, 8273.500000, 8286.000000
3413, 2256376.000000, 1710.000000, 8235.500000, 8283.500000, 8303.500000
3414, 2256536.000000, 1606.250000, 8255.000000, 8299.500000, 8329.500000
3415, 2256696.000000, 1504.875000, 8275.500000, 8320.000000, 8357.000000
3416, 2256856.000000, 1412.875000, 8294.000000, 8334.000000, 8378.000000
3417, 2257016.000000, 1332.750000, 8291.000000, 8330.500000, 8373.500000
3418, 2257176.000000, 1266.000000, 8271.000000, 8304.000000, 8337.500000
3419, 2257336.000000, 1213.375000, 8227.500000, 8249.000000, 8264.500000
3420, 2257496.000000, 1176.500000, 8176.500000, 8196.000000, 8191.000000
3421, 2257656.000000, 1151.125000, 8147.000000, 8169.500000, 8153.000000
3422, 2257816.000000, 1133.125000, 8137.500000, 8164.000000, 8143.000000
3423, 2257976.000000, 1121.500000, 8141.500000, 8163.500000, 8144.000000
3424, 2258136.000000, 1112.875000, 8149.500000, 8165.000000, 8149.000000
3425, 2258296.000000, 1109.125000, 8153.500000, 8167.000000, 8153.500000
3426, 2258456.000000, 1106.875000, 8156.000000, 8169.500000, 8156.500000
3427, 2258616.000000, 1095.750000, 8155.500000, 8170.000000, 8156.000000
3428, 2258776.000000, 1069.000000, 8158.000000, 8168.500000, 8151.500000
3429, 2258936.000000, 1026.125000, 8157.000000, 8166.500000, 8150.500000
3430, 2259096.000000, 1044.125000, 8153.000000, 8165.500000, 8148.500000
3431, 2259256.000000, 1249.375000, 8154.000000, 8167.500000, 8151.500000
3432, 2259416.000000, 1718.000000, 8156.000000, 8168.000000, 8151.500000
3433, 2259576.000000, 2322.375000, 8158.000000, 8168.000000, 8151.000000
3434, 2259736.000000, 2861.500000, 8160.000000, 8167.000000, 8151.000000
3435, 2259896.000000, 3197.000000, 8158.500000, 8168.000000, 8153.000000
3436, 2260056.000000, 3303.625000, 8159.500000, 8169.500000, 8154.000000
3437, 2260216.000000, 3238.875000, 8162.500000, 8171.000000, 8156.500000
3438, 2260376.000000, 3060.625000, 8171.000000, 8180.000000, 8175.000000
3439, 2260536.000000, 2849.750000, 8174.500000, 8185.000000, 8186.500000
3440, 2260696.000000, 2640.625000, 8178.000000, 8180.000000, 8178.000000
3441, 2260856.000000, 2436.250000, 8173.000000, 8173.500000, 8165.000000
3442, 2261016.000000, 2238.250000, 8167.000000, 8168.500000, 8153.500000
3443, 2261176.000000, 2071.500000, 8170.000000, 8170.000000, 8154.000000
3444, 2261336.000000, 1972.375000, 8231.000000, 8319.000000, 8330.000000
3445, 2261496.000000, 1940.500000, 8561.500000, 7736.500000, 7936.500000
3446, 2261656.000000, 1957.125000, 7981.000000, 7796.000000, 7690.500000
3447, 2261816.000000, 1984.625000, 8170.500000, 8195.500000, 8176.500000
3448, 2261976.000000, 1999.250000, 8182.500000, 8247.500000, 8241.500000
3449, 2262136.000000, 1975.875000, 8192.500000, 8260.000000, 8259.500000
3450, 2262296.000000, 1913.250000, 8200.500000, 8264.500000, 8269.000000
3451, 2262456.000000, 1819.000000, 8211.500000, 8270.500000, 8279.500000
3452, 2262616.000000, 1710.125000, 8229.000000, 8277.500000, 8294.000000
3453, 2262776.000000, 1596.625000, 8247.500000, 8289.500000, 8313.500000
3454, 2262936.000000, 1492.375000, 8266.500000, 8306.000000, 8337.500000
3455, 2263096.000000, 1399.375000, 8286.000000, 8319.500000, 8359.000000
3456, 2263256.000000, 1320.500000, 8291.500000, 8322.000000, 8361.500000
3457, 2263416.000000, 1256.875000, 8281.000000, 8310.000000, 8346.500000
3458, 2263576.000000, 1205.250000, 8248.000000, 8272.500000, 8295.500000
3459, 2263736.000000, 1165.750000, 8194.000000, 8219.000000, 8222.000000
3460, 2263896.000000, 1136.250000, 8151.000000, 8182.500000, 8168.500000
3461, 2264056.000000, 1114.000000, 8132.500000, 8172.000000, 8149.500000
3462, 2264216.000000, 1095.750000, 8134.500000, 8171.000000, 8149.000000
3463, 2264376.000000, 1080.750000, 8141.000000, 8172.000000, 8151.500000
3464, 2264536.000000, 1069.875000, 8147.000000, 8171.500000, 8154.500000
3465, 2264696.000000, 1062.375000, 8151.500000, 8172.000000, 8156.500000
3466, 2264856.000000, 1051.750000, 8153.000000, 8175.500000, 8161.000000
3467, 2265016.000000, 1032.125000, 8154.500000, 8177.000000, 8162.500000
3468, 2265176.000000, 994.875000, 8155.000000, 8175.500000, 8160.500000
3469, 2265336.000000, 961.875000, 8151.000000, 8175.000000, 8159.000000
3470, 2265496.000000, 1055.250000, 8150.000000, 8175.000000, 8158.000000
3471, 2265656.000000, 1384.875000, 8151.000000, 8176.500000, 8158.500000
3472, 2265816.000000, 1956.875000, 8152.500000, 8178.000000, 8161.000000
3473, 2265976.000000, 2568.750000, 8157.000000, 8177.000000, 8161.000000
3474, 2266136.000000, 3037.250000, 8157.000000, 8176.500000, 8162.500000
3475, 2266296.000000, 3276.750000, 8157.500000, 8177.500000, 8163.000000
3476, 2266456.000000, 3295.375000, 8164.000000, 8187.500000, 8180.500000
3477, 2266616.000000, 3167.375000, 8172.500000, 8193.000000, 8196.000000
3478, 2266776.000000, 2965.125000, 8177.000000, 8184.000000, 8184.000000
3479, 2266936.000000, 2753.500000, 8169.500000, 8179.500000, 8167.500000
3480, 2267096.000000, 2549.250000, 8164.000000, 8174.000000, 8157.000000
3481, 2267256.000000, 2347.000000, 8166.500000, 8197.000000, 8173.500000
3482, 2267416.000000, 2160.250000, 8351.000000, 8300.000000, 8370.000000
3483, 2267576.000000, 2020.875000, 8455.000000, 7740.000000, 7892.500000
3484, 2267736.000000, 1956.250000, 8002.500000, 7935.000000, 7828.000000
3485, 2267896.000000, 1951.375000, 8174.500000, 8210.500000, 8193.500000
3486, 2268056.000000, 1980.250000, 8186.000000, 8241.000000, 8236.000000
3487, 2268216.000000, 2008.000000, 8196.000000, 8252.000000, 8251.500000
3488, 2268376.000000, 2010.750000, 8205.000000, 8256.000000, 8260.000000
3489, 2268536.000000, 1972.750000, 8218.500000, 8263.500000, 8274.000000
3490, 2268696.000000, 1897.750000, 8233.000000, 8272.500000, 8289.000000
3491, 2268856.000000, 1796.250000, 8254.000000, 8287.000000, 8312.500000
3492, 2269016.000000, 1685.125000, 8277.000000, 8303.500000, 8337.000000
3493, 2269176.000000, 1576.375000, 8293.500000, 8316.000000, 8353.500000
3494, 2269336.000000, 1476.125000, 8289.000000, 8313.000000, 8349.500000
3495, 2269496.000000, 1392.875000, 8267.500000, 8295.500000, 8324.500000
3496, 2269656.000000, 1327.375000, 8228.000000, 8254.000000, 8267.000000
3497, 2269816.000000, 1275.375000, 8180.500000, 8207.000000, 8203.000000
3498, 2269976.000000, 1239.500000, 8148.000000, 8179.000000, 8162.000000
3499, 2270136.000000, 1214.125000, 8136.500000, 8171.000000, 8149.500000
3500, 2270296.000000, 1195.750000, 8137.500000, 8172.500000, 8152.500000
3501, 2270456.000000, 1185.375000, 8145.000000, 8175.500000, 8158.500000
3502, 2270616.000000, 1181.625000, 8153.000000, 8177.500000, 8163.500000
3503, 2270776.000000, 1177.375000, 8156.000000, 8177.500000, 8164.500000
3504, 2270936.000000, 1169.750000, 8155.500000, 8178.000000, 8163.000000
3505, 2271096.000000, 1149.250000, 8154.000000, 8176.000000, 8161.000000
3506, 2271256.000000, 1115.000000, 8151.000000, 8176.000000, 8160.000000
3507, 2271416.000000, 1078.500000, 8151.500000, 8176.000000, 8159.500000
3508, 2271576.000000, 1129.125000, 8152.000000, 8174.500000, 8157.500000
3509, 2271736.000000, 1370.500000, 8154.000000, 8174.000000, 8158.000000
3510, 2271896.000000, 1838.875000, 8152.500000, 8173.500000, 8156.500000
3511, 2272056.000000, 2370.250000, 8153.000000, 8176.000000, 8159.000000
3512, 2272216.000000, 2795.750000, 8158.000000, 8177.000000, 8162.000000
3513, 2272376.000000, 3016.875000, 8160.000000, 8176.500000, 8162.500000
3514, 2272536.000000, 3042.875000, 8161.500000, 8177.000000, 8164.000000
3515, 2272696.000000, 2924.625000, 8166.000000, 8185.000000, 8181.000000
3516, 2272856.000000, 2733.500000, 8176.000000, 8191.500000, 8198.000000
3517, 2273016.000000, 2517.000000, 8182.000000, 8185.500000, 8186.500000
3518, 2273176.000000, 2296.375000, 8173.000000, 8175.000000, 8164.500000
3519, 2273336.000000, 2081.500000, 8168.000000, 8171.000000, 8156.000000
3520, 2273496.000000, 1893.375000, 8168.000000, 8194.500000, 8170.500000
3521, 2273656.000000, 1774.375000, 8354.500000, 8266.500000, 8334.000000
3522, 2273816.000000, 1740.500000, 8447.000000, 7624.000000, 7776.000000
3523, 2273976.000000, 1770.750000, 8016.000000, 7921.500000, 7807.500000
3524, 2274136.000000, 1823.500000, 8182.500000, 8222.000000, 8210.000000
3525, 2274296.000000, 1867.250000, 8189.000000, 8250.000000, 8245.000000
3526, 2274456.000000, 1871.000000, 8199.000000, 8260.500000, 8262.000000
3527, 2274616.000000, 1832.625000, 8210.500000, 8268.000000, 8275.000000
3528, 2274776.000000, 1759.875000, 8222.500000, 8273.500000, 8284.000000
3529, 2274936.000000, 1664.875000, 8237.000000, 8283.500000, 8301.500000
3530, 2275096.000000, 1562.625000, 8254.500000, 8299.000000, 8326.000000
3531, 2275256.000000, 1463.875000, 8278.000000, 8320.000000, 8355.500000
3532, 2275416.000000, 1374.625000, 8296.000000, 8332.500000, 8375.000000
3533, 2275576.000000, 1296.625000, 8296.000000, 8331.000000, 8371.500000
3534, 2275736.000000, 1234.750000, 8276.500000, 8310.000000, 8344.000000
3535, 2275896.000000, 1186.125000, 8234.500000, 8261.500000, 8279.000000
3536, 2276056.000000, 1151.500000, 8186.500000, 8208.000000, 8205.500000
3537, 2276216.000000, 1127.000000, 8151.000000, 8179.000000, 8163.000000
3538, 2276376.000000, 1111.500000, 8140.000000, 8168.500000, 8147.000000
3539, 2276536.000000, 1102.500000, 8140.500000, 8167.000000, 8146.000000
3540, 2276696.000000, 1092.875000, 8146.000000, 8170.500000, 8153.000000
3541, 2276856.000000, 1086.375000, 8152.500000, 8171.500000, 8156.500000
3542, 2277016.000000, 1078.250000, 8155.500000, 8173.000000, 8158.000000
3543, 2277176.000000, 1069.625000, 8156.500000, 8172.000000, 8157.500000
3544, 2277336.000000, 1050.875000, 8156.500000, 8171.000000, 8155.500000
3545, 2277496.000000, 1011.375000, 8153.000000, 8170.000000, 8153.000000
3546, 2277656.000000, 986.500000, 8153.000000, 8171.000000, 8154.000000
3547, 2277816.000000, 1085.875000, 8155.500000, 8171.000000, 8155.000000
3548, 2277976.000000, 1440.375000, 8157.000000, 8172.000000, 8156.000000
3549, 2278136.000000, 2000.875000, 8155.500000, 8172.000000, 8156.000000
3550, 2278296.000000, 2580.750000, 8156.000000, 8173.000000, 8158.500000
3551, 2278456.000000, 3006.125000, 8158.500000, 8174.500000, 8161.500000
3552, 2278616.000000, 3204.000000, 8162.000000, 8175.000000, 8162.000000
3553, 2278776.000000, 3194.625000, 8169.500000, 8182.500000, 8177.000000
3554, 2278936.000000, 3052.125000, 8171.500000, 8188.500000, 8188.000000
3555, 2279096.000000, 2844.750000, 8180.000000, 8187.500000, 8192.500000
3556, 2279256.000000, 2630.875000, 8178.500000, 8182.000000, 8179.500000
3557, 2279416.000000, 2425.250000, 8168.500000, 8173.000000, 8159.500000
3558, 2279576.000000, 2221.375000, 8170.000000, 8170.500000, 8155.500000
3559, 2279736.000000, 2041.125000, 8184.000000, 8271.000000, 8251.000000
3560, 2279896.000000, 1919.000000, 8521.000000, 7986.000000, 8146.500000
3561, 2280056.000000, 1872.125000, 8086.500000, 7681.500000, 7648.500000
3562, 2280216.000000, 1882.500000, 8130.000000, 8114.000000, 8060.000000
3563, 2280376.000000, 1919.000000, 8185.000000, 8243.000000, 8236.000000
3564, 2280536.000000, 1945.875000, 8190.500000, 8258.500000, 8255.000000
3565, 2280696.000000, 1943.875000, 8200.000000, 8266.500000, 8269.000000
3566, 2280856.000000, 1899.625000, 8211.000000, 8273.000000, 8280.500000
3567, 2281016.000000, 1819.625000, 8229.000000, 8279.000000, 8294.500000
3568, 2281176.000000, 1719.250000, 8244.000000, 8289.500000, 8311.500000
3569, 2281336.000000, 1611.500000, 8265.000000, 8305.000000, 8336.500000
3570, 2281496.000000, 1508.750000, 8286.000000, 8324.000000, 8362.500000
3571, 2281656.000000, 1414.625000, 8299.500000, 8332.000000, 8375.500000
3572, 2281816.000000, 1334.125000, 8291.000000, 8323.500000, 8363.500000
3573, 2281976.000000, 1268.000000, 8261.500000, 8286.500000, 8314.000000
3574, 2282136.000000, 1214.250000, 8209.000000, 8229.500000, 8236.500000
3575, 2282296.000000, 1175.625000, 8162.000000, 8185.500000, 8174.000000
3576, 2282456.000000, 1147.625000, 8140.500000, 8168.000000, 8148.000000
3577, 2282616.000000, 1127.875000, 8137.500000, 8164.500000, 8141.500000
3578, 2282776.000000, 1112.750000, 8143.000000, 8166.000000, 8145.000000
3579, 2282936.000000, 1099.625000, 8148.500000, 8168.000000, 8150.500000
3580, 2283096.000000, 1091.875000, 8154.000000, 8169.000000, 8155.000000
3581, 2283256.000000, 1082.500000, 8155.000000, 8169.500000, 8156.000000
3582, 2283416.000000, 1068.375000, 8157.500000, 8168.500000, 8154.000000
3583, 2283576.000000, 1041.750000, 8157.000000, 8166.500000, 8151.500000
3584, 2283736.000000, 999.000000, 8155.000000, 8166.000000, 8150.500000
3585, 2283896.000000, 993.750000, 8153.500000, 8165.000000, 8148.500000
3586, 2284056.000000, 1145.000000, 8155.000000, 8166.000000, 8149.000000
3587, 2284216.000000, 1545.250000, 8157.000000, 8166.500000, 8149.500000
3588, 2284376.000000, 2106.000000, 8158.000000, 8167.000000, 8150.000000
3589, 2284536.000000, 2709.875000, 8158.500000, 8167.000000, 8151.000000
3590, 2284696.000000, 3033.750000, 8157.500000, 8168.000000, 8152.500000
3591, 2284856.000000, 3114.875000, 8161.500000, 8170.000000, 8156.000000
3592, 2285016.000000, 2976.375000, 8171.000000, 8181.000000, 8178.000000
3593, 2285176.000000, 2711.375000, 8177.500000, 8185.500000, 8191.000000
3594, 2285336.000000, 2488.250000, 8180.000000, 8179.000000, 8178.000000
3595, 2285496.000000, 2272.625000, 8169.000000, 8171.500000, 8160.500000
3596, 2285656.000000, 2087.500000, 8166.000000, 8166.000000, 8151.000000
3597, 2285816.000000, 1935.750000, 8169.500000, 8173.000000, 8154.500000
3598, 2285976.000000, 1843.750000, 8268.000000, 8317.000000, 8343.500000
3599, 2286136.000000, 1835.125000, 8531.000000, 7647.500000, 7844.500000
3600, 2286296.000000, 1862.500000, 7978.500000, 7840.500000, 7720.500000
3601, 2286456.000000, 1887.000000, 8180.500000, 8213.500000, 8201.500000
3602, 2286616.000000, 1887.000000, 8188.000000, 8251.000000, 8246.000000
3603, 2286776.000000, 1848.625000, 8198.000000, 8261.000000, 8262.000000
3604, 2286936.000000, 1774.500000, 8205.500000, 8266.500000, 8271.500000
3605, 2287096.000000, 1679.000000, 8219.000000, 8273.000000, 8283.000000
