1790, 5699832.000000, 1904.875000, 8262.000000, 8341.500000, 8367.500000
1791, 5699992.000000, 1885.375000, 8267.000000, 8347.000000, 8374.000000
1792, 5700152.000000, 1833.125000, 8256.000000, 8338.500000, 8360.000000
1793, 5700312.000000, 1759.625000, 8238.500000, 8315.500000, 8331.500000
1794, 5700472.000000, 1675.250000, 8206.000000, 8272.500000, 8276.000000
1795, 5700632.000000, 1590.625000, 8169.000000, 8224.500000, 8214.500000
1796, 5700792.000000, 1510.750000, 8143.000000, 8200.500000, 8183.500000
1797, 5700952.000000, 1442.250000, 8140.000000, 8194.000000, 8177.000000
1798, 5701112.000000, 1383.625000, 8147.500000, 8194.500000, 8180.500000
1799, 5701272.000000, 1340.000000, 8154.000000, 8193.500000, 8181.500000
1800, 5701432.000000, 1304.625000, 8156.000000, 8193.000000, 8182.000000
1801, 5701592.000000, 1278.625000, 8157.500000, 8194.000000, 8182.500000
1802, 5701752.000000, 1253.375000, 8155.500000, 8194.000000, 8181.000000
1803, 5701912.000000, 1220.375000, 8155.000000, 8190.500000, 8175.500000
1804, 5702072.000000, 1180.125000, 8154.000000, 8188.000000, 8172.000000
1805, 5702232.000000, 1173.375000, 8153.000000, 8186.500000, 8170.000000
1806, 5702392.000000, 1278.625000, 8154.500000, 8189.000000, 8173.500000
1807, 5702552.000000, 1583.750000, 8162.500000, 8198.000000, 8192.500000
1808, 5702712.000000, 2006.000000, 8170.000000, 8201.500000, 8205.000000
1809, 5702872.000000, 2408.625000, 8172.000000, 8190.000000, 8190.000000
1810, 5703032.000000, 2669.000000, 8163.500000, 8185.500000, 8173.500000
1811, 5703192.000000, 2765.375000, 8158.500000, 8180.500000, 8162.500000
1812, 5703352.000000, 2716.250000, 8161.000000, 8201.000000, 8176.500000
1813, 5703512.000000, 2570.000000, 8325.500000, 8311.500000, 8371.500000
1814, 5703672.000000, 2376.250000, 8426.000000, 7718.500000, 7867.500000
1815, 5703832.000000, 2158.625000, 7995.000000, 7921.500000, 7811.500000
1816, 5703992.000000, 1940.625000, 8178.000000, 8224.000000, 8212.000000
1817, 5704152.000000, 1754.125000, 8186.000000, 8255.000000, 8250.500000
1818, 5704312.000000, 1642.875000, 8197.000000, 8265.000000, 8263.500000
1819, 5704472.000000, 1617.500000, 8208.000000, 8271.000000, 8275.000000
1820, 5704632.000000, 1645.875000, 8218.500000, 8278.000000, 8288.500000
1821, 5704792.000000, 1695.500000, 8234.500000, 8289.500000, 8307.000000
1822, 5704952.000000, 1739.250000, 8250.000000, 8304.000000, 8327.500000
1823, 5705112.000000, 1751.250000, 8268.000000, 8320.000000, 8351.500000
1824, 5705272.000000, 1730.750000, 8273.000000, 8328.000000, 8360.000000
1825, 5705432.000000, 1678.250000, 8259.500000, 8322.500000, 8348.500000
1826, 5705592.000000, 1606.750000, 8240.000000, 8299.500000, 8318.500000
1827, 5705752.000000, 1527.375000, 8208.000000, 8251.500000, 8258.000000
1828, 5705912.000000, 1448.875000, 8177.500000, 8201.000000, 8195.000000
1829, 5706072.000000, 1381.625000, 8153.000000, 8175.000000, 8160.500000
1830, 5706232.000000, 1322.750000, 8146.500000, 8169.000000, 8151.000000
1831, 5706392.000000, 1277.375000, 8153.000000, 8170.000000, 8157.000000
1832, 5706552.000000, 1242.500000, 8158.000000, 8173.000000, 8161.500000
1833, 5706712.000000, 1215.625000, 8163.500000, 8172.000000, 8161.500000
1834, 5706872.000000, 1194.000000, 8164.000000, 8170.500000, 8159.500000
1835, 5707032.000000, 1176.000000, 8162.500000, 8169.000000, 8158.500000
1836, 5707192.000000, 1150.500000, 8159.500000, 8167.500000, 8155.000000
1837, 5707352.000000, 1117.500000, 8159.000000, 8168.000000, 8155.000000
1838, 5707512.000000, 1112.750000, 8160.000000, 8165.500000, 8151.500000
1839, 5707672.000000, 1251.500000, 8160.000000, 8164.500000, 8150.500000
1840, 5707832.000000, 1567.875000, 8160.000000, 8165.500000, 8151.500000
1841, 5707992.000000, 2003.625000, 8166.000000, 8176.500000, 8172.500000
1842, 5708152.000000, 2392.625000, 8169.500000, 8181.500000, 8184.500000
1843, 5708312.000000, 2640.125000, 8176.000000, 8171.500000, 8175.000000
1844, 5708472.000000, 2723.250000, 8173.000000, 8167.000000, 8159.500000
1845, 5708632.000000, 2668.125000, 8161.500000, 8160.000000, 8144.000000
1846, 5708792.000000, 2528.000000, 8165.000000, 8167.000000, 8149.500000
1847, 5708952.000000, 2345.125000, 8256.000000, 8322.000000, 8348.500000
1848, 5709112.000000, 2146.250000, 8478.000000, 7685.000000, 7863.500000
1849, 5709272.000000, 1944.500000, 7973.000000, 7819.500000, 7703.000000
1850, 5709432.000000, 1776.500000, 8182.500000, 8198.500000, 8188.500000
1851, 5709592.000000, 1673.375000, 8191.000000, 8238.500000, 8236.000000
1852, 5709752.000000, 1646.250000, 8199.000000, 8248.500000, 8250.000000
1853, 5709912.000000, 1672.000000, 8209.500000, 8254.000000, 8259.500000
1854, 5710072.000000, 1715.750000, 8221.500000, 8258.000000, 8268.500000
1855, 5710232.000000, 1752.125000, 8234.000000, 8262.500000, 8279.500000
1856, 5710392.000000, 1764.125000, 8251.000000, 8273.000000, 8297.500000
1857, 5710552.000000, 1739.625000, 8270.000000, 8288.500000, 8320.500000
1858, 5710712.000000, 1688.875000, 8280.500000, 8299.500000, 8334.500000
1859, 5710872.000000, 1618.750000, 8274.000000, 8295.000000, 8326.500000
1860, 5711032.000000, 1543.750000, 8254.500000, 8271.000000, 8294.000000
1861, 5711192.000000, 1472.875000, 8222.000000, 8220.500000, 8231.500000
1862, 5711352.000000, 1407.125000, 8185.000000, 8164.500000, 8161.000000
1863, 5711512.000000, 1352.500000, 8158.500000, 8132.500000, 8116.500000
1864, 5711672.000000, 1309.875000, 8150.000000, 8122.000000, 8103.000000
1865, 5711832.000000, 1275.125000, 8153.000000, 8122.000000, 8105.000000
1866, 5711992.000000, 1246.250000, 8157.500000, 8121.500000, 8106.000000
1867, 5712152.000000, 1226.375000, 8162.000000, 8121.000000, 8108.000000
1868, 5712312.000000, 1211.625000, 8164.000000, 8118.500000, 8105.500000
1869, 5712472.000000, 1199.750000, 8163.500000, 8114.000000, 8099.500000
1870, 5712632.000000, 1180.250000, 8161.000000, 8109.500000, 8094.500000
1871, 5712792.000000, 1147.500000, 8158.000000, 8107.500000, 8090.500000
1872, 5712952.000000, 1148.125000, 8158.500000, 8107.000000, 8090.000000
1873, 5713112.000000, 1280.625000, 8160.000000, 8107.000000, 8091.000000
1874, 5713272.000000, 1612.000000, 8160.000000, 8108.000000, 8091.000000
1875, 5713432.000000, 2065.625000, 8159.500000, 8108.000000, 8092.500000
1876, 5713592.000000, 2487.625000, 8167.500000, 8119.000000, 8113.000000
1877, 5713752.000000, 2760.000000, 8174.500000, 8125.500000, 8131.000000
1878, 5713912.000000, 2871.500000, 8176.500000, 8117.000000, 8116.500000
1879, 5714072.000000, 2827.375000, 8166.500000, 8111.500000, 8096.000000
1880, 5714232.000000, 2694.000000, 8162.000000, 8109.500000, 8091.000000
1881, 5714392.000000, 2518.250000, 8163.500000, 8156.500000, 8126.000000
1882, 5714552.000000, 2331.375000, 8406.500000, 8153.500000, 8247.500000
1883, 5714712.000000, 2142.250000, 8345.000000, 7533.500000, 7641.500000
1884, 5714872.000000, 1969.125000, 8049.500000, 7930.000000, 7835.500000
1885, 5715032.000000, 1848.625000, 8184.500000, 8190.000000, 8181.500000
1886, 5715192.000000, 1791.750000, 8190.500000, 8217.000000, 8211.500000
1887, 5715352.000000, 1789.250000, 8201.000000, 8231.000000, 8231.000000
1888, 5715512.000000, 1810.750000, 8211.500000, 8241.500000, 8245.500000
1889, 5715672.000000, 1838.375000, 8224.000000, 8252.500000, 8261.000000
1890, 5715832.000000, 1847.000000, 8238.000000, 8267.500000, 8283.500000
1891, 5715992.000000, 1823.625000, 8254.500000, 8296.000000, 8319.000000
1892, 5716152.000000, 1772.875000, 8271.000000, 8330.500000, 8360.000000
1893, 5716312.000000, 1701.000000, 8277.500000, 8346.000000, 8376.000000
1894, 5716472.000000, 1620.125000, 8266.500000, 8350.500000, 8375.500000
1895, 5716632.000000, 1538.375000, 8242.500000, 8335.000000, 8351.000000
1896, 5716792.000000, 1463.625000, 8207.000000, 8292.500000, 8297.500000
1897, 5716952.000000, 1397.000000, 8171.000000, 8250.500000, 8242.000000
1898, 5717112.000000, 1342.500000, 8148.000000, 8233.000000, 8215.000000
1899, 5717272.000000, 1299.375000, 8146.000000, 8229.000000, 8210.000000
1900, 5717432.000000, 1265.500000, 8150.000000, 8232.000000, 8215.500000
1901, 5717592.000000, 1241.000000, 8156.000000, 8233.500000, 8220.500000
1902, 5717752.000000, 1221.875000, 8159.000000, 8232.500000, 8220.000000
1903, 5717912.000000, 1209.500000, 8160.000000, 8228.500000, 8216.500000
1904, 5718072.000000, 1195.875000, 8158.500000, 8223.500000, 8209.500000
1905, 5718232.000000, 1172.500000, 8153.000000, 8220.000000, 8205.000000
1906, 5718392.000000, 1140.625000, 8151.000000, 8218.500000, 8202.500000
1907, 5718552.000000, 1145.500000, 8150.000000, 8218.000000, 8201.000000
1908, 5718712.000000, 1283.250000, 8151.000000, 8215.500000, 8198.500000
1909, 5718872.000000, 1615.375000, 8153.000000, 8212.000000, 8197.000000
1910, 5719032.000000, 2063.000000, 8158.500000, 8219.500000, 8211.500000
1911, 5719192.000000, 2469.125000, 8161.000000, 8223.000000, 8221.500000
1912, 5719352.000000, 2738.875000, 8166.000000, 8214.500000, 8217.000000
1913, 5719512.000000, 2837.250000, 8167.000000, 8211.000000, 8203.000000
1914, 5719672.000000, 2792.375000, 8157.000000, 8199.500000, 8184.500000
1915, 5719832.000000, 2658.250000, 8158.000000, 8202.000000, 8183.500000
1916, 5719992.000000, 2480.375000, 8240.500000, 8347.500000, 8370.000000
1917, 5720152.000000, 2283.625000, 8513.000000, 7883.500000, 8065.500000
1918, 5720312.000000, 2083.875000, 7968.000000, 7888.500000, 7791.500000
1919, 5720472.000000, 1906.750000, 8161.000000, 8204.000000, 8176.500000
1920, 5720632.000000, 1786.500000, 8180.000000, 8257.000000, 8250.000000
1921, 5720792.000000, 1741.125000, 8186.500000, 8270.500000, 8268.000000
1922, 5720952.000000, 1749.750000, 8197.000000, 8275.500000, 8278.000000
1923, 5721112.000000, 1785.000000, 8211.000000, 8281.000000, 8288.500000
1924, 5721272.000000, 1819.500000, 8224.500000, 8288.500000, 8301.000000
1925, 5721432.000000, 1829.500000, 8243.000000, 8297.500000, 8318.500000
1926, 5721592.000000, 1805.750000, 8258.500000, 8311.000000, 8336.500000
1927, 5721752.000000, 1752.250000, 8268.500000, 8318.000000, 8346.000000
1928, 5721912.000000, 1679.875000, 8265.500000, 8309.000000, 8336.000000
1929, 5722072.000000, 1600.000000, 8245.000000, 8290.500000, 8309.000000
1930, 5722232.000000, 1519.000000, 8215.000000, 8256.500000, 8264.000000
1931, 5722392.000000, 1445.500000, 8177.000000, 8215.500000, 8212.000000
1932, 5722552.000000, 1382.875000, 8147.500000, 8189.500000, 8175.500000
1933, 5722712.000000, 1330.875000, 8137.500000, 8181.000000, 8164.000000
1934, 5722872.000000, 1289.875000, 8139.000000, 8178.500000, 8162.500000
1935, 5723032.000000, 1256.875000, 8147.500000, 8178.500000, 8166.000000
1936, 5723192.000000, 1232.000000, 8152.500000, 8181.500000, 8171.500000
1937, 5723352.000000, 1214.750000, 8157.000000, 8183.000000, 8174.000000
1938, 5723512.000000, 1197.875000, 8156.000000, 8178.500000, 8168.500000
1939, 5723672.000000, 1179.250000, 8155.000000, 8177.000000, 8166.000000
1940, 5723832.000000, 1150.625000, 8150.000000, 8175.000000, 8162.000000
1941, 5723992.000000, 1120.000000, 8147.500000, 8176.500000, 8162.000000
1942, 5724152.000000, 1129.000000, 8153.500000, 8183.000000, 8172.500000
1943, 5724312.000000, 1284.375000, 8157.500000, 8185.500000, 8177.000000
1944, 5724472.000000, 1607.875000, 8162.500000, 8184.500000, 8187.000000
1945, 5724632.000000, 2029.625000, 8164.500000, 8181.000000, 8175.000000
1946, 5724792.000000, 2398.625000, 8151.000000, 8173.500000, 8157.500000
1947, 5724952.000000, 2630.250000, 8154.000000, 8174.500000, 8157.500000
1948, 5725112.000000, 2701.750000, 8187.000000, 8273.500000, 8266.500000
1949, 5725272.000000, 2641.750000, 8513.000000, 8080.000000, 8236.000000
1950, 5725432.000000, 2499.250000, 8002.500000, 7857.500000, 7810.500000
1951, 5725592.000000, 2307.250000, 8098.000000, 8089.000000, 8017.500000
1952, 5725752.000000, 2096.750000, 8175.000000, 8223.500000, 8212.500000
1953, 5725912.000000, 1886.375000, 8188.500000, 8237.500000, 8232.500000
1954, 5726072.000000, 1719.125000, 8197.500000, 8244.000000, 8242.000000
1955, 5726232.000000, 1627.625000, 8207.000000, 8251.500000, 8255.500000
1956, 5726392.000000, 1617.375000, 8223.500000, 8261.500000, 8272.500000
1957, 5726552.000000, 1660.000000, 8241.000000, 8271.500000, 8289.000000
1958, 5726712.000000, 1722.875000, 8260.000000, 8285.500000, 8309.000000
1959, 5726872.000000, 1769.875000, 8274.000000, 8293.000000, 8321.000000
1960, 5727032.000000, 1783.125000, 8269.500000, 8292.000000, 8317.500000
1961, 5727192.000000, 1758.250000, 8251.000000, 8280.500000, 8299.000000
1962, 5727352.000000, 1700.375000, 8221.000000, 8255.500000, 8263.000000
1963, 5727512.000000, 1627.000000, 8186.000000, 8218.000000, 8213.500000
1964, 5727672.000000, 1546.000000, 8155.500000, 8186.000000, 8171.000000
1965, 5727832.000000, 1470.500000, 8142.000000, 8174.000000, 8155.000000
1966, 5727992.000000, 1402.375000, 8142.000000, 8173.000000, 8155.000000
1967, 5728152.000000, 1345.125000, 8149.500000, 8177.000000, 8163.000000
1968, 5728312.000000, 1296.250000, 8156.500000, 8177.500000, 8166.000000
1969, 5728472.000000, 1258.750000, 8158.500000, 8176.000000, 8162.000000
1970, 5728632.000000, 1227.375000, 8157.500000, 8176.000000, 8161.500000
1971, 5728792.000000, 1198.875000, 8156.000000, 8176.500000, 8160.000000
1972, 5728952.000000, 1167.625000, 8155.000000, 8177.000000, 8160.000000
1973, 5729112.000000, 1132.375000, 8156.000000, 8176.500000, 8159.500000
1974, 5729272.000000, 1106.625000, 8155.500000, 8178.000000, 8162.000000
1975, 5729432.000000, 1161.000000, 8160.000000, 8185.000000, 8176.000000
1976, 5729592.000000, 1365.250000, 8167.000000, 8190.000000, 8194.000000
1977, 5729752.000000, 1723.750000, 8167.500000, 8182.000000, 8177.000000
1978, 5729912.000000, 2122.625000, 8158.000000, 8171.000000, 8152.000000
1979, 5730072.000000, 2438.875000, 8158.000000, 8167.000000, 8147.500000
1980, 5730232.000000, 2610.750000, 8167.000000, 8233.500000, 8208.000000
1981, 5730392.000000, 2635.250000, 8437.500000, 8176.500000, 8290.000000
1982, 5730552.000000, 2549.000000, 8232.000000, 7701.000000, 7748.500000
1983, 5730712.000000, 2382.500000, 8055.500000, 7998.500000, 7906.000000
1984, 5730872.000000, 2175.125000, 8181.500000, 8218.500000, 8209.000000
1985, 5731032.000000, 1944.875000, 8185.000000, 8239.000000, 8232.000000
1986, 5731192.000000, 1732.875000, 8194.000000, 8248.000000, 8246.500000
1987, 5731352.000000, 1585.125000, 8208.500000, 8255.500000, 8261.500000
1988, 5731512.000000, 1527.500000, 8221.000000, 8263.000000, 8273.500000
1989, 5731672.000000, 1546.125000, 8236.000000, 8273.500000, 8290.000000
1990, 5731832.000000, 1601.000000, 8251.500000, 8291.500000, 8316.000000
1991, 5731992.000000, 1658.500000, 8268.500000, 8311.500000, 8342.500000
1992, 5732152.000000, 1691.125000, 8272.000000, 8321.500000, 8353.500000
1993, 5732312.000000, 1685.875000, 8260.500000, 8311.500000, 8338.000000
1994, 5732472.000000, 1643.625000, 8236.000000, 8275.000000, 8290.500000
1995, 5732632.000000, 1580.125000, 8197.500000, 8218.000000, 8218.500000
1996, 5732792.000000, 1501.125000, 8163.000000, 8175.000000, 8163.000000
1997, 5732952.000000, 1421.375000, 8145.000000, 8158.000000, 8138.000000
1998, 5733112.000000, 1346.625000, 8146.000000, 8154.500000, 8135.000000
1999, 5733272.000000, 1278.250000, 8152.500000, 8154.500000, 8138.500000
2000, 5733432.000000, 1219.625000, 8156.500000, 8157.000000, 8142.500000
2001, 5733592.000000, 1176.000000, 8161.000000, 8159.500000, 8146.500000
2002, 5733752.000000, 1140.625000, 8161.500000, 8160.000000, 8147.000000
2003, 5733912.000000, 1112.875000, 8162.000000, 8159.500000, 8145.500000
2004, 5734072.000000, 1080.750000, 8161.500000, 8157.500000, 8141.500000
2005, 5734232.000000, 1036.625000, 8160.000000, 8156.000000, 8140.000000
2006, 5734392.000000, 1015.750000, 8158.000000, 8157.500000, 8140.500000
2007, 5734552.000000, 1132.875000, 8163.000000, 8159.000000, 8145.000000
2008, 5734712.000000, 1453.625000, 8166.000000, 8163.500000, 8152.500000
2009, 5734872.000000, 1939.875000, 8169.000000, 8171.000000, 8165.000000
2010, 5735032.000000, 2416.750000, 8176.000000, 8172.500000, 8179.000000
2011, 5735192.000000, 2755.500000, 8174.000000, 8169.000000, 8165.000000
2012, 5735352.000000, 2907.375000, 8163.500000, 8161.000000, 8143.500000
2013, 5735512.000000, 2884.375000, 8163.500000, 8159.500000, 8141.000000
2014, 5735672.000000, 2750.125000, 8181.500000, 8248.000000, 8224.500000
2015, 5735832.000000, 2557.250000, 8448.500000, 8051.500000, 8177.500000
2016, 5735992.000000, 2344.875000, 8144.500000, 7596.500000, 7598.000000
2017, 5736152.000000, 2125.000000, 8111.500000, 8069.500000, 8009.000000
2018, 5736312.000000, 1916.875000, 8188.500000, 8236.000000, 8230.000000
2019, 5736472.000000, 1758.750000, 8195.000000, 8253.000000, 8250.000000
2020, 5736632.000000, 1675.875000, 8202.000000, 8257.500000, 8257.500000
2021, 5736792.000000, 1659.500000, 8212.500000, 8260.500000, 8267.000000
2022, 5736952.000000, 1682.375000, 8226.000000, 8266.000000, 8279.500000
2023, 5737112.000000, 1714.125000, 8243.000000, 8276.000000, 8296.000000
2024, 5737272.000000, 1730.750000, 8261.500000, 8289.500000, 8317.000000
2025, 5737432.000000, 1715.125000, 8276.000000, 8305.500000, 8338.500000
2026, 5737592.000000, 1666.125000, 8278.500000, 8312.500000, 8347.000000
2027, 5737752.000000, 1591.250000, 8266.500000, 8305.000000, 8333.500000
2028, 5737912.000000, 1501.625000, 8243.500000, 8268.500000, 8287.500000
2029, 5738072.000000, 1409.500000, 8204.000000, 8209.000000, 8212.000000
2030, 5738232.000000, 1322.250000, 8169.000000, 8165.500000, 8155.500000
2031, 5738392.000000, 1243.125000, 8151.000000, 8152.500000, 8135.500000
2032, 5738552.000000, 1177.125000, 8151.000000, 8151.000000, 8134.000000
2033, 5738712.000000, 1120.500000, 8156.000000, 8152.000000, 8137.500000
2034, 5738872.000000, 1077.875000, 8162.500000, 8152.000000, 8140.500000
2035, 5739032.000000, 1047.625000, 8163.500000, 8154.000000, 8143.500000
2036, 5739192.000000, 1026.875000, 8164.500000, 8155.500000, 8145.500000
2037, 5739352.000000, 1006.000000, 8163.500000, 8157.000000, 8145.500000
2038, 5739512.000000, 978.750000, 8163.500000, 8155.500000, 8143.000000
2039, 5739672.000000, 940.125000, 8163.000000, 8154.000000, 8141.000000
2040, 5739832.000000, 949.125000, 8161.000000, 8155.500000, 8140.500000
2041, 5739992.000000, 1127.125000, 8160.000000, 8156.500000, 8142.500000
2042, 5740152.000000, 1542.375000, 8162.000000, 8158.000000, 8145.000000
2043, 5740312.000000, 2083.500000, 8164.500000, 8158.500000, 8145.500000
2044, 5740472.000000, 2564.250000, 8170.500000, 8165.000000, 8159.000000
2045, 5740632.000000, 2858.625000, 8172.500000, 8171.500000, 8172.500000
2046, 5740792.000000, 2954.750000, 8177.500000, 8171.500000, 8177.000000
2047, 5740952.000000, 2874.375000, 8176.500000, 8168.500000, 8164.500000
2048, 5741112.000000, 2703.625000, 8168.000000, 8156.000000, 8142.000000
2049, 5741272.000000, 2498.250000, 8170.000000, 8153.000000, 8137.500000
2050, 5741432.000000, 2293.250000, 8186.000000, 8252.500000, 8232.500000
2051, 5741592.000000, 2087.250000, 8470.500000, 7983.500000, 8125.000000
2052, 5741752.000000, 1892.250000, 8098.000000, 7603.000000, 7577.000000
2053, 5741912.000000, 1744.750000, 8134.500000, 8092.500000, 8044.500000
2054, 5742072.000000, 1656.250000, 8190.000000, 8222.500000, 8217.500000
2055, 5742232.000000, 1627.875000, 8197.500000, 8234.500000, 8234.000000
2056, 5742392.000000, 1636.125000, 8206.000000, 8237.000000, 8240.500000
2057, 5742552.000000, 1657.000000, 8218.000000, 8240.000000, 8249.500000
2058, 5742712.000000, 1644.500000, 8232.500000, 8240.500000, 8256.500000
2059, 5742872.000000, 1596.625000, 8249.500000, 8242.000000, 8263.500000
2060, 5743032.000000, 1506.125000, 8264.000000, 8252.500000, 8281.500000
2061, 5743192.000000, 1381.125000, 8279.000000, 8266.000000, 8302.000000
2062, 5743352.000000, 1274.625000, 8281.000000, 8268.500000, 8304.500000
2063, 5743512.000000, 1189.375000, 8269.000000, 8259.000000, 8289.000000
2064, 5743672.000000, 1119.125000, 8245.000000, 8221.500000, 8241.000000
2065, 5743832.000000, 1061.500000, 8205.000000, 8166.000000, 8170.500000
2066, 5743992.000000, 1017.000000, 8170.500000, 8123.000000, 8114.000000
2067, 5744152.000000, 980.500000, 8153.000000, 8109.000000, 8094.000000
2068, 5744312.000000, 955.125000, 8154.000000, 8108.000000, 8092.000000
2069, 5744472.000000, 935.750000, 8159.000000, 8110.000000, 8097.000000
2070, 5744632.000000, 923.500000, 8161.500000, 8112.500000, 8100.500000
2071, 5744792.000000, 913.500000, 8165.500000, 8116.500000, 8106.000000
2072, 5744952.000000, 896.250000, 8165.500000, 8119.500000, 8109.000000
2073, 5745112.000000, 862.625000, 8165.500000, 8121.000000, 8108.500000
2074, 5745272.000000, 834.625000, 8163.500000, 8119.500000, 8105.000000
2075, 5745432.000000, 910.625000, 8161.500000, 8120.500000, 8105.500000
2076, 5745592.000000, 1203.625000, 8160.000000, 8123.500000, 8107.500000
2077, 5745752.000000, 1687.625000, 8162.000000, 8127.000000, 8112.000000
2078, 5745912.000000, 2204.500000, 8164.000000, 8128.500000, 8113.500000
2079, 5746072.000000, 2579.375000, 8163.500000, 8131.000000, 8115.500000
2080, 5746232.000000, 2763.750000, 8162.500000, 8134.000000, 8118.500000
2081, 5746392.000000, 2763.375000, 8162.000000, 8139.000000, 8122.500000
2082, 5746552.000000, 2637.875000, 8173.500000, 8152.500000, 8150.500000
2083, 5746712.000000, 2454.750000, 8182.500000, 8159.000000, 8166.500000
2084, 5746872.000000, 2258.750000, 8185.000000, 8152.500000, 8153.000000
2085, 5747032.000000, 2059.375000, 8170.500000, 8144.000000, 8130.000000
2086, 5747192.000000, 1865.500000, 8167.500000, 8143.000000, 8125.000000
2087, 5747352.000000, 1702.750000, 8169.000000, 8165.500000, 8138.500000
2088, 5747512.000000, 1598.000000, 8331.500000, 8258.500000, 8313.500000
2089, 5747672.000000, 1555.750000, 8425.500000, 7554.000000, 7703.500000
2090, 5747832.000000, 1559.125000, 8007.500000, 7883.000000, 7769.500000
2091, 5747992.000000, 1585.500000, 8186.500000, 8212.000000, 8203.500000
2092, 5748152.000000, 1610.000000, 8194.000000, 8243.000000, 8239.500000
2093, 5748312.000000, 1610.375000, 8204.500000, 8253.000000, 8253.500000
2094, 5748472.000000, 1581.000000, 8213.000000, 8260.000000, 8264.000000
2095, 5748632.000000, 1521.875000, 8224.000000, 8267.500000, 8277.500000
2096, 5748792.000000, 1448.000000, 8238.000000, 8278.000000, 8295.500000
2097, 5748952.000000, 1368.000000, 8254.000000, 8292.000000, 8316.500000
2098, 5749112.000000, 1288.875000, 8271.000000, 8309.500000, 8339.000000
2099, 5749272.000000, 1216.875000, 8279.500000, 8317.500000, 8349.000000
2100, 5749432.000000, 1153.000000, 8271.000000, 8315.500000, 8345.000000
2101, 5749592.000000, 1099.875000, 8252.000000, 8298.000000, 8320.000000
2102, 5749752.000000, 1057.875000, 8221.500000, 8253.500000, 8262.500000
2103, 5749912.000000, 1025.250000, 8186.000000, 8201.000000, 8196.500000
2104, 5750072.000000, 1002.125000, 8160.000000, 8175.000000, 8160.000000
2105, 5750232.000000, 984.750000, 8152.500000, 8172.000000, 8155.000000
2106, 5750392.000000, 971.625000, 8156.500000, 8176.500000, 8162.000000
2107, 5750552.000000, 965.250000, 8166.000000, 8180.500000, 8169.500000
2108, 5750712.000000, 960.250000, 8168.000000, 8184.500000, 8173.500000
2109, 5750872.000000, 952.500000, 8166.500000, 8190.500000, 8177.000000
2110, 5751032.000000, 935.250000, 8164.000000, 8203.500000, 8188.500000
2111, 5751192.000000, 901.750000, 8161.000000, 8214.500000, 8199.500000
2112, 5751352.000000, 887.375000, 8159.000000, 8219.000000, 8202.000000
2113, 5751512.000000, 990.500000, 8158.500000, 8224.000000, 8207.000000
2114, 5751672.000000, 1309.000000, 8157.500000, 8232.500000, 8214.000000
2115, 5751832.000000, 1786.000000, 8159.000000, 8239.500000, 8223.000000
2116, 5751992.000000, 2262.500000, 8158.000000, 8244.500000, 8227.500000
2117, 5752152.000000, 2591.125000, 8159.500000, 8246.000000, 8230.500000
2118, 5752312.000000, 2744.500000, 8165.500000, 8252.000000, 8241.500000
2119, 5752472.000000, 2722.250000, 8169.500000, 8257.000000, 8250.500000
2120, 5752632.000000, 2592.250000, 8177.000000, 8257.000000, 8264.000000
2121, 5752792.000000, 2405.000000, 8176.500000, 8255.000000, 8253.000000
2122, 5752952.000000, 2197.625000, 8164.000000, 8244.000000, 8229.000000
2123, 5753112.000000, 1984.500000, 8168.000000, 8238.500000, 8224.000000
2124, 5753272.000000, 1788.125000, 8191.500000, 8334.500000, 8322.500000
2125, 5753432.000000, 1647.625000, 8526.500000, 8102.500000, 8262.500000
2126, 5753592.000000, 1576.125000, 8029.000000, 7830.000000, 7784.500000
2127, 5753752.000000, 1572.375000, 8118.500000, 8160.000000, 8099.500000
2128, 5753912.000000, 1606.875000, 8185.000000, 8285.500000, 8276.000000
2129, 5754072.000000, 1652.000000, 8191.000000, 8298.000000, 8293.000000
2130, 5754232.000000, 1681.000000, 8199.500000, 8304.500000, 8304.500000
2131, 5754392.000000, 1682.375000, 8210.500000, 8310.000000, 8315.500000
2132, 5754552.000000, 1651.000000, 8225.000000, 8317.000000, 8329.000000
2133, 5754712.000000, 1591.500000, 8241.000000, 8326.500000, 8345.000000
2134, 5754872.000000, 1518.750000, 8258.000000, 8339.000000, 8364.000000
2135, 5755032.000000, 1439.375000, 8268.000000, 8348.500000, 8378.000000
2136, 5755192.000000, 1362.750000, 8265.000000, 8350.000000, 8377.500000
2137, 5755352.000000, 1293.625000, 8249.500000, 8336.000000, 8357.500000
2138, 5755512.000000, 1234.750000, 8229.000000, 8301.500000, 8315.000000
2139, 5755672.000000, 1188.000000, 8198.000000, 8250.000000, 8253.000000
2140, 5755832.000000, 1151.625000, 8163.500000, 8210.000000, 8199.000000
2141, 5755992.000000, 1125.250000, 8147.500000, 8197.000000, 8181.500000
2142, 5756152.000000, 1104.875000, 8150.000000, 8193.500000, 8179.000000
2143, 5756312.000000, 1090.125000, 8158.000000, 8193.500000, 8182.000000
2144, 5756472.000000, 1082.250000, 8161.000000, 8192.000000, 8181.000000
2145, 5756632.000000, 1077.625000, 8163.000000, 8193.000000, 8183.000000
2146, 5756792.000000, 1071.500000, 8160.500000, 8191.000000, 8179.500000
2147, 5756952.000000, 1058.625000, 8158.500000, 8190.000000, 8178.000000
2148, 5757112.000000, 1029.625000, 8158.000000, 8187.500000, 8173.500000
2149, 5757272.000000, 1011.500000, 8157.000000, 8185.500000, 8171.500000
2150, 5757432.000000, 1071.375000, 8155.000000, 8184.500000, 8169.500000
2151, 5757592.000000, 1322.375000, 8155.500000, 8184.500000, 8169.500000
2152, 5757752.000000, 1723.125000, 8158.000000, 8186.500000, 8173.000000
2153, 5757912.000000, 2155.875000, 8164.500000, 8191.000000, 8183.000000
2154, 5758072.000000, 2476.750000, 8168.500000, 8193.500000, 8190.000000
2155, 5758232.000000, 2639.125000, 8175.000000, 8192.000000, 8198.500000
2156, 5758392.000000, 2646.875000, 8173.000000, 8190.500000, 8185.500000
2157, 5758552.000000, 2536.000000, 8161.000000, 8179.500000, 8164.000000
2158, 5758712.000000, 2354.000000, 8165.000000, 8178.000000, 8161.500000
2159, 5758872.000000, 2133.500000, 8192.500000, 8289.500000, 8280.000000
2160, 5759032.000000, 1903.375000, 8523.000000, 7998.000000, 8162.000000
2161, 5759192.000000, 1694.000000, 7998.500000, 7770.500000, 7706.000000
2162, 5759352.000000, 1552.500000, 8138.000000, 8134.000000, 8085.500000
2163, 5759512.000000, 1497.875000, 8185.500000, 8239.500000, 8232.500000
2164, 5759672.000000, 1517.000000, 8194.000000, 8252.500000, 8249.500000
2165, 5759832.000000, 1575.750000, 8201.000000, 8258.000000, 8259.000000
2166, 5759992.000000, 1638.125000, 8212.500000, 8263.500000, 8270.000000
2167, 5760152.000000, 1676.375000, 8228.500000, 8272.500000, 8286.500000
2168, 5760312.000000, 1679.500000, 8247.500000, 8285.500000, 8307.500000
2169, 5760472.000000, 1649.250000, 8261.000000, 8300.500000, 8327.500000
2170, 5760632.000000, 1593.125000, 8271.500000, 8316.500000, 8347.500000
2171, 5760792.000000, 1522.750000, 8268.000000, 8319.000000, 8348.500000
2172, 5760952.000000, 1449.625000, 8252.500000, 8306.500000, 8329.000000
2173, 5761112.000000, 1376.875000, 8227.500000, 8264.000000, 8277.000000
2174, 5761272.000000, 1313.000000, 8193.500000, 8207.500000, 8206.500000
2175, 5761432.000000, 1259.875000, 8163.500000, 8168.000000, 8157.000000
2176, 5761592.000000, 1214.125000, 8148.000000, 8156.000000, 8140.000000
2177, 5761752.000000, 1179.125000, 8152.000000, 8155.000000, 8141.500000
2178, 5761912.000000, 1151.250000, 8157.500000, 8154.000000, 8141.500000
2179, 5762072.000000, 1131.750000, 8163.000000, 8155.000000, 8146.000000
2180, 5762232.000000, 1121.375000, 8164.000000, 8154.500000, 8145.500000
2181, 5762392.000000, 1112.500000, 8162.000000, 8154.000000, 8145.000000
2182, 5762552.000000, 1098.875000, 8161.000000, 8154.000000, 8143.000000
2183, 5762712.000000, 1072.500000, 8160.000000, 8151.500000, 8137.500000
2184, 5762872.000000, 1054.000000, 8160.500000, 8149.000000, 8135.500000
2185, 5763032.000000, 1122.625000, 8158.500000, 8148.000000, 8134.000000
2186, 5763192.000000, 1380.250000, 8157.500000, 8146.500000, 8132.000000
2187, 5763352.000000, 1805.500000, 8160.000000, 8144.000000, 8131.000000
2188, 5763512.000000, 2264.000000, 8166.000000, 8145.000000, 8136.000000
2189, 5763672.000000, 2604.500000, 8170.500000, 8150.500000, 8148.500000
2190, 5763832.000000, 2785.125000, 8177.000000, 8148.500000, 8159.500000
2191, 5763992.000000, 2797.750000, 8178.500000, 8139.500000, 8140.500000
2192, 5764152.000000, 2694.000000, 8167.000000, 8127.000000, 8114.000000
2193, 5764312.000000, 2512.500000, 8168.500000, 8121.500000, 8108.000000
2194, 5764472.000000, 2289.500000, 8181.000000, 8203.500000, 8181.500000
2195, 5764632.000000, 2052.750000, 8478.500000, 8014.000000, 8154.000000
2196, 5764792.000000, 1830.500000, 8137.500000, 7573.500000, 7576.500000
2197, 5764952.000000, 1670.125000, 8112.500000, 8024.500000, 7964.000000
2198, 5765112.000000, 1594.125000, 8190.500000, 8184.500000, 8180.000000
2199, 5765272.000000, 1600.625000, 8197.000000, 8200.000000, 8198.500000
2200, 5765432.000000, 1651.000000, 8204.500000, 8207.000000, 8209.500000
2201, 5765592.000000, 1714.625000, 8213.000000, 8213.500000, 8220.500000
2202, 5765752.000000, 1760.250000, 8228.000000, 8221.500000, 8235.500000
2203, 5765912.000000, 1773.875000, 8245.000000, 8232.500000, 8253.000000
2204, 5766072.000000, 1752.500000, 8261.000000, 8248.500000, 8275.500000
2205, 5766232.000000, 1702.625000, 8274.000000, 8267.000000, 8299.000000
2206, 5766392.000000, 1637.375000, 8273.500000, 8274.500000, 8306.000000
2207, 5766552.000000, 1560.375000, 8258.000000, 8269.000000, 8294.000000
2208, 5766712.000000, 1484.750000, 8238.000000, 8234.500000, 8251.000000
2209, 5766872.000000, 1414.250000, 8203.000000, 8177.000000, 8180.500000
2210, 5767032.000000, 1352.875000, 8169.000000, 8134.000000, 8125.000000
2211, 5767192.000000, 1301.250000, 8150.500000, 8122.000000, 8106.500000
2212, 5767352.000000, 1259.000000, 8152.000000, 8124.000000, 8108.500000
2213, 5767512.000000, 1225.250000, 8157.000000, 8127.500000, 8114.500000
2214, 5767672.000000, 1203.000000, 8161.500000, 8130.000000, 8118.000000
2215, 5767832.000000, 1189.875000, 8161.000000, 8132.500000, 8121.000000
2216, 5767992.000000, 1181.500000, 8159.500000, 8136.000000, 8123.500000
2217, 5768152.000000, 1170.375000, 8158.500000, 8138.000000, 8125.000000
2218, 5768312.000000, 1143.625000, 8158.000000, 8138.500000, 8123.500000
2219, 5768472.000000, 1120.625000, 8157.500000, 8141.000000, 8126.500000
2220, 5768632.000000, 1194.875000, 8157.000000, 8144.500000, 8129.500000
2221, 5768792.000000, 1486.000000, 8159.000000, 8152.000000, 8139.000000
2222, 5768952.000000, 1965.750000, 8160.000000, 8165.000000, 8153.000000
2223, 5769112.000000, 2478.500000, 8169.000000, 8194.000000, 8191.000000
2224, 5769272.000000, 2868.125000, 8169.000000, 8214.000000, 8215.000000
2225, 5769432.000000, 3069.000000, 8173.000000, 8219.000000, 8221.000000
2226, 5769592.000000, 3089.875000, 8169.000000, 8230.500000, 8220.500000
2227, 5769752.000000, 2973.750000, 8161.500000, 8230.000000, 8214.000000
2228, 5769912.000000, 2776.625000, 8165.500000, 8244.500000, 8222.000000
2229, 5770072.000000, 2544.625000, 8285.000000, 8383.500000, 8423.500000
2230, 5770232.000000, 2298.375000, 8476.000000, 7827.500000, 7998.000000
2231, 5770392.000000, 2061.750000, 7976.000000, 7950.000000, 7841.500000
2232, 5770552.000000, 1880.500000, 8173.000000, 8272.500000, 8255.000000
2233, 5770712.000000, 1783.875000, 8186.000000, 8308.500000, 8300.000000
2234, 5770872.000000, 1768.500000, 8197.000000, 8316.500000, 8313.000000
2235, 5771032.000000, 1803.500000, 8205.000000, 8320.500000, 8320.500000
2236, 5771192.000000, 1857.250000, 8218.500000, 8325.500000, 8332.500000
2237, 5771352.000000, 1897.750000, 8234.000000, 8332.500000, 8346.500000
2238, 5771512.000000, 1909.000000, 8250.500000, 8344.000000, 8365.000000
2239, 5771672.000000, 1881.250000, 8268.000000, 8356.500000, 8382.500000
2240, 5771832.000000, 1825.250000, 8275.000000, 8364.500000, 8392.500000
2241, 5771992.000000, 1751.375000, 8264.500000, 8357.000000, 8382.000000
2242, 5772152.000000, 1670.125000, 8247.500000, 8338.500000, 8356.500000
2243, 5772312.000000, 1587.375000, 8220.000000, 8297.000000, 8305.500000
2244, 5772472.000000, 1511.625000, 8184.000000, 8246.000000, 8242.000000
2245, 5772632.000000, 1446.750000, 8156.000000, 8216.500000, 8202.000000
2246, 5772792.000000, 1393.625000, 8147.000000, 8211.000000, 8194.000000
2247, 5772952.000000, 1349.750000, 8152.000000, 8209.000000, 8195.500000
2248, 5773112.000000, 1317.500000, 8158.500000, 8207.500000, 8194.500000
2249, 5773272.000000, 1294.000000, 8162.000000, 8205.500000, 8193.000000
2250, 5773432.000000, 1276.750000, 8162.500000, 8203.000000, 8193.500000
2251, 5773592.000000, 1263.375000, 8160.000000, 8200.000000, 8189.000000
2252, 5773752.000000, 1243.250000, 8158.500000, 8200.000000, 8187.000000
2253, 5773912.000000, 1209.750000, 8158.000000, 8197.000000, 8182.000000
2254, 5774072.000000, 1191.000000, 8157.500000, 8197.000000, 8181.500000
2255, 5774232.000000, 1292.125000, 8162.500000, 8203.000000, 8196.500000
2256, 5774392.000000, 1586.000000, 8168.500000, 8210.000000, 8215.000000
2257, 5774552.000000, 2044.125000, 8172.000000, 8202.500000, 8202.500000
2258, 5774712.000000, 2497.000000, 8163.500000, 8194.500000, 8181.000000
2259, 5774872.000000, 2815.875000, 8157.000000, 8187.500000, 8169.500000
2260, 5775032.000000, 2957.625000, 8162.500000, 8206.500000, 8179.000000
2261, 5775192.000000, 2937.125000, 8322.500000, 8329.000000, 8388.000000
2262, 5775352.000000, 2802.375000, 8423.000000, 7798.500000, 7943.500000
2263, 5775512.000000, 2599.000000, 7991.500000, 7938.500000, 7831.500000
2264, 5775672.000000, 2368.875000, 8174.000000, 8218.500000, 8199.000000
2265, 5775832.000000, 2129.750000, 8183.500000, 8249.000000, 8239.500000
2266, 5775992.000000, 1914.000000, 8193.000000, 8259.000000, 8255.000000
2267, 5776152.000000, 1766.500000, 8205.000000, 8267.500000, 8267.000000
2268, 5776312.000000, 1713.250000, 8217.000000, 8273.500000, 8279.000000
2269, 5776472.000000, 1735.125000, 8234.500000, 8283.500000, 8297.000000
2270, 5776632.000000, 1795.625000, 8248.000000, 8297.500000, 8316.000000
2271, 5776792.000000, 1856.875000, 8265.500000, 8314.500000, 8340.500000
2272, 5776952.000000, 1892.000000, 8271.000000, 8324.000000, 8351.500000
2273, 5777112.000000, 1886.250000, 8259.500000, 8317.000000, 8340.000000
2274, 5777272.000000, 1843.750000, 8239.000000, 8290.500000, 8306.000000
2275, 5777432.000000, 1775.375000, 8205.000000, 8245.000000, 8249.500000
2276, 5777592.000000, 1695.125000, 8170.000000, 8200.000000, 8191.500000
2277, 5777752.000000, 1613.000000, 8148.000000, 8179.500000, 8163.500000
2278, 5777912.000000, 1535.750000, 8144.000000, 8172.500000, 8155.500000
2279, 5778072.000000, 1468.625000, 8150.500000, 8172.000000, 8157.500000
2280, 5778232.000000, 1410.750000, 8154.500000, 8173.000000, 8160.500000
2281, 5778392.000000, 1367.000000, 8159.000000, 8174.500000, 8163.500000
2282, 5778552.000000, 1329.750000, 8159.000000, 8174.000000, 8163.000000
2283, 5778712.000000, 1298.500000, 8160.000000, 8172.000000, 8160.000000
2284, 5778872.000000, 1267.625000, 8158.000000, 8170.500000, 8155.500000
2285, 5779032.000000, 1230.000000, 8153.500000, 8171.000000, 8154.500000
2286, 5779192.000000, 1206.250000, 8152.000000, 8171.500000, 8154.500000
2287, 5779352.000000, 1284.875000, 8158.500000, 8181.000000, 8172.000000
2288, 5779512.000000, 1530.000000, 8162.000000, 8186.000000, 8181.000000
2289, 5779672.000000, 1929.250000, 8169.500000, 8183.000000, 8187.000000
2290, 5779832.000000, 2340.625000, 8166.500000, 8178.500000, 8171.000000
2291, 5779992.000000, 2642.500000, 8154.000000, 8169.000000, 8152.000000
2292, 5780152.000000, 2785.500000, 8157.500000, 8168.500000, 8152.000000
2293, 5780312.000000, 2777.750000, 8190.000000, 8288.000000, 8279.000000
2294, 5780472.000000, 2664.250000, 8513.500000, 7965.500000, 8129.000000
2295, 5780632.000000, 2478.250000, 7998.500000, 7744.500000, 7677.000000
2296, 5780792.000000, 2259.500000, 8137.500000, 8134.500000, 8090.500000
2297, 5780952.000000, 2025.875000, 8180.000000, 8236.500000, 8230.000000
2298, 5781112.000000, 1817.625000, 8190.000000, 8252.000000, 8249.000000
2299, 5781272.000000, 1676.875000, 8198.000000, 8258.500000, 8259.500000
2300, 5781432.000000, 1628.000000, 8208.500000, 8265.500000, 8272.500000
2301, 5781592.000000, 1649.125000, 8223.000000, 8273.000000, 8286.500000
2302, 5781752.000000, 1705.875000, 8240.000000, 8286.000000, 8306.000000
2303, 5781912.000000, 1763.125000, 8258.500000, 8302.500000, 8329.000000
2304, 5782072.000000, 1797.000000, 8269.000000, 8315.500000, 8347.500000
2305, 5782232.000000, 1794.000000, 8263.000000, 8316.000000, 8344.500000
2306, 5782392.000000, 1758.375000, 8246.000000, 8302.500000, 8323.500000
2307, 5782552.000000, 1699.875000, 8220.000000, 8260.000000, 8271.500000
2308, 5782712.000000, 1629.625000, 8186.500000, 8202.500000, 8201.000000
2309, 5782872.000000, 1554.500000, 8155.500000, 8166.000000, 8152.000000
2310, 5783032.000000, 1486.375000, 8144.000000, 8154.000000, 8137.000000
2311, 5783192.000000, 1424.375000, 8146.500000, 8155.500000, 8139.500000
2312, 5783352.000000, 1373.250000, 8154.000000, 8157.000000, 8145.000000
2313, 5783512.000000, 1332.375000, 8159.500000, 8157.000000, 8145.500000
2314, 5783672.000000, 1300.375000, 8161.500000, 8156.500000, 8146.500000
2315, 5783832.000000, 1275.250000, 8158.000000, 8155.500000, 8142.000000
2316, 5783992.000000, 1249.375000, 8156.000000, 8155.500000, 8142.500000
2317, 5784152.000000, 1213.375000, 8155.000000, 8154.500000, 8139.500000
2318, 5784312.000000, 1189.250000, 8155.000000, 8153.500000, 8137.500000
2319, 5784472.000000, 1281.000000, 8159.500000, 8156.500000, 8146.000000
2320, 5784632.000000, 1568.250000, 8161.500000, 8159.000000, 8154.000000
2321, 5784792.000000, 2034.750000, 8170.000000, 8155.000000, 8161.000000
2322, 5784952.000000, 2512.500000, 8167.500000, 8144.500000, 8139.500000
2323, 5785112.000000, 2864.750000, 8156.500000, 8122.000000, 8104.500000
2324, 5785272.000000, 3034.375000, 8156.000000, 8108.500000, 8088.000000
2325, 5785432.000000, 3031.625000, 8167.500000, 8185.500000, 8158.500000
2326, 5785592.000000, 2909.750000, 8463.500000, 7977.000000, 8112.000000
2327, 5785752.000000, 2719.875000, 8132.000000, 7533.000000, 7536.000000
2328, 5785912.000000, 2507.750000, 8105.500000, 7998.000000, 7936.500000
2329, 5786072.000000, 2286.625000, 8183.000000, 8156.500000, 8149.500000
2330, 5786232.000000, 2079.750000, 8187.500000, 8174.500000, 8169.000000
2331, 5786392.000000, 1925.500000, 8194.500000, 8186.500000, 8184.500000
2332, 5786552.000000, 1847.625000, 8208.500000, 8196.500000, 8202.500000
2333, 5786712.000000, 1842.375000, 8222.500000, 8208.000000, 8219.000000
2334, 5786872.000000, 1875.875000, 8239.000000, 8223.000000, 8241.500000
2335, 5787032.000000, 1917.625000, 8254.500000, 8242.500000, 8269.000000
2336, 5787192.000000, 1944.250000, 8268.000000, 8262.500000, 8294.000000
2337, 5787352.000000, 1941.625000, 8268.000000, 8271.000000, 8301.000000
2338, 5787512.000000, 1902.500000, 8256.000000, 8262.500000, 8286.500000
2339, 5787672.000000, 1836.375000, 8227.500000, 8225.500000, 8238.000000
2340, 5787832.000000, 1754.250000, 8189.500000, 8170.500000, 8169.000000
2341, 5787992.000000, 1670.000000, 8156.500000, 8132.000000, 8118.500000
2342, 5788152.000000, 1593.625000, 8143.000000, 8121.000000, 8102.000000
2343, 5788312.000000, 1525.625000, 8146.500000, 8121.500000, 8104.500000
2344, 5788472.000000, 1465.875000, 8149.000000, 8125.000000, 8109.500000
2345, 5788632.000000, 1416.625000, 8153.500000, 8128.500000, 8116.000000
2346, 5788792.000000, 1378.625000, 8156.000000, 8131.500000, 8120.500000
2347, 5788952.000000, 1353.250000, 8154.500000, 8133.000000, 8119.500000
2348, 5789112.000000, 1326.500000, 8156.000000, 8133.500000, 8120.500000
2349, 5789272.000000, 1290.625000, 8153.500000, 8134.000000, 8118.500000
2350, 5789432.000000, 1257.000000, 8151.000000, 8135.000000, 8119.000000
2351, 5789592.000000, 1320.750000, 8151.000000, 8137.500000, 8120.500000
2352, 5789752.000000, 1572.000000, 8156.500000, 8144.500000, 8132.000000
2353, 5789912.000000, 2019.125000, 8161.500000, 8155.000000, 8149.000000
2354, 5790072.000000, 2515.875000, 8168.500000, 8158.500000, 8165.000000
2355, 5790232.000000, 2910.500000, 8169.500000, 8154.500000, 8152.500000
2356, 5790392.000000, 3121.625000, 8156.000000, 8146.000000, 8129.000000
2357, 5790552.000000, 3145.625000, 8155.000000, 8145.500000, 8126.000000
2358, 5790712.000000, 3037.250000, 8161.500000, 8206.000000, 8174.000000
2359, 5790872.000000, 2851.625000, 8429.000000, 8124.500000, 8236.500000
2360, 5791032.000000, 2641.750000, 8253.000000, 7552.500000, 7619.000000
2361, 5791192.000000, 2424.750000, 8068.500000, 7998.500000, 7917.500000
2362, 5791352.000000, 2217.000000, 8180.500000, 8222.000000, 8214.500000
2363, 5791512.000000, 2047.750000, 8189.000000, 8243.500000, 8239.000000
2364, 5791672.000000, 1944.875000, 8198.000000, 8251.500000, 8250.500000
2365, 5791832.000000, 1911.250000, 8206.500000, 8258.500000, 8262.000000
2366, 5791992.000000, 1923.750000, 8220.500000, 8268.000000, 8279.000000
2367, 5792152.000000, 1955.875000, 8235.000000, 8281.000000, 8298.500000
2368, 5792312.000000, 1980.125000, 8254.500000, 8295.500000, 8319.500000
2369, 5792472.000000, 1979.000000, 8270.000000, 8312.000000, 8342.000000
2370, 5792632.000000, 1942.375000, 8269.000000, 8318.500000, 8348.500000
2371, 5792792.000000, 1879.750000, 8253.500000, 8313.000000, 8336.000000
2372, 5792952.000000, 1797.375000, 8231.500000, 8282.000000, 8297.000000
2373, 5793112.000000, 1711.875000, 8199.000000, 8229.000000, 8230.500000
2374, 5793272.000000, 1626.125000, 8166.500000, 8184.000000, 8173.000000
2375, 5793432.000000, 1548.875000, 8146.000000, 8166.500000, 8147.000000
2376, 5793592.000000, 1484.125000, 8146.000000, 8166.500000, 8147.500000
2377, 5793752.000000, 1432.250000, 8154.500000, 8169.000000, 8155.000000
2378, 5793912.000000, 1391.875000, 8160.000000, 8169.500000, 8156.500000
2379, 5794072.000000, 1360.250000, 8161.500000, 8168.000000, 8154.000000
2380, 5794232.000000, 1338.000000, 8160.500000, 8167.000000, 8154.500000
2381, 5794392.000000, 1315.875000, 8160.000000, 8168.500000, 8154.500000
2382, 5794552.000000, 1283.875000, 8157.000000, 8168.000000, 8153.000000
2383, 5794712.000000, 1248.625000, 8158.000000, 8167.500000, 8152.000000
2384, 5794872.000000, 1278.750000, 8158.000000, 8165.500000, 8148.500000
2385, 5795032.000000, 1484.750000, 8156.500000, 8166.000000, 8149.500000
2386, 5795192.000000, 1902.000000, 8159.500000, 8172.000000, 8159.500000
2387, 5795352.000000, 2408.750000, 8164.000000, 8181.000000, 8174.000000
2388, 5795512.000000, 2840.750000, 8174.500000, 8184.000000, 8190.500000
2389, 5795672.000000, 3087.625000, 8174.500000, 8177.000000, 8174.500000
2390, 5795832.000000, 3151.875000, 8163.000000, 8168.000000, 8153.000000
2391, 5795992.000000, 3053.500000, 8159.500000, 8166.500000, 8149.000000
2392, 5796152.000000, 2875.875000, 8166.500000, 8230.500000, 8201.000000
2393, 5796312.000000, 2662.000000, 8470.000000, 8166.500000, 8291.000000
2394, 5796472.000000, 2435.500000, 8229.000000, 7684.500000, 7733.500000
2395, 5796632.000000, 2214.625000, 8066.500000, 8022.500000, 7937.000000
2396, 5796792.000000, 2031.250000, 8179.000000, 8232.000000, 8221.000000
2397, 5796952.000000, 1921.250000, 8186.500000, 8252.500000, 8246.000000
2398, 5797112.000000, 1883.750000, 8198.000000, 8261.000000, 8260.000000
2399, 5797272.000000, 1899.875000, 8208.000000, 8268.000000, 8270.000000
2400, 5797432.000000, 1937.875000, 8221.000000, 8277.000000, 8287.000000
2401, 5797592.000000, 1971.000000, 8236.000000, 8288.500000, 8305.000000
2402, 5797752.000000, 1975.375000, 8251.500000, 8302.000000, 8324.000000
2403, 5797912.000000, 1945.500000, 8267.500000, 8315.000000, 8341.500000
2404, 5798072.000000, 1883.500000, 8268.000000, 8316.500000, 8342.000000
2405, 5798232.000000, 1801.500000, 8250.000000, 8308.500000, 8328.000000
2406, 5798392.000000, 1712.375000, 8226.000000, 8276.000000, 8287.500000
2407, 5798552.000000, 1627.000000, 8197.000000, 8228.000000, 8230.500000
2408, 5798712.000000, 1551.625000, 8165.500000, 8189.500000, 8180.000000
2409, 5798872.000000, 1485.375000, 8149.000000, 8174.500000, 8159.000000
2410, 5799032.000000, 1434.375000, 8146.500000, 8175.500000, 8160.500000
2411, 5799192.000000, 1390.750000, 8154.000000, 8179.500000, 8168.500000
2412, 5799352.000000, 1360.375000, 8158.000000, 8186.500000, 8177.000000
2413, 5799512.000000, 1338.000000, 8160.000000, 8197.500000, 8186.500000
2414, 5799672.000000, 1320.750000, 8159.000000, 8213.000000, 8202.500000
2415, 5799832.000000, 1304.375000, 8157.000000, 8228.000000, 8216.000000
2416, 5799992.000000, 1278.625000, 8154.500000, 8245.000000, 8231.500000
2417, 5800152.000000, 1245.125000, 8153.000000, 8252.500000, 8237.500000
2418, 5800312.000000, 1241.875000, 8155.500000, 8258.000000, 8242.000000
2419, 5800472.000000, 1363.250000, 8156.500000, 8261.000000, 8246.500000
2420, 5800632.000000, 1682.875000, 8164.000000, 8269.000000, 8262.000000
2421, 5800792.000000, 2140.625000, 8169.500000, 8272.500000, 8277.500000
2422, 5800952.000000, 2584.625000, 8172.500000, 8262.000000, 8262.000000
2423, 5801112.000000, 2873.375000, 8162.000000, 8253.000000, 8240.000000
2424, 5801272.000000, 2986.000000, 8160.500000, 8244.500000, 8228.000000
2425, 5801432.000000, 2938.375000, 8163.500000, 8272.000000, 8247.500000
2426, 5801592.000000, 2782.125000, 8379.000000, 8342.500000, 8426.500000
2427, 5801752.000000, 2572.875000, 8352.000000, 7819.500000, 7930.500000
2428, 5801912.000000, 2338.875000, 8021.500000, 8020.500000, 7923.000000
2429, 5802072.000000, 2105.625000, 8180.000000, 8268.500000, 8259.000000
2430, 5802232.000000, 1905.750000, 8186.000000, 8290.500000, 8287.500000
2431, 5802392.000000, 1790.875000, 8192.500000, 8297.000000, 8298.500000
2432, 5802552.000000, 1761.875000, 8205.000000, 8301.500000, 8309.000000
2433, 5802712.000000, 1797.625000, 8218.500000, 8306.000000, 8317.500000
2434, 5802872.000000, 1857.875000, 8233.000000, 8313.000000, 8331.000000
2435, 5803032.000000, 1908.875000, 8246.500000, 8323.000000, 8345.500000
2436, 5803192.000000, 1926.750000, 8263.000000, 8335.500000, 8364.000000
2437, 5803352.000000, 1900.500000, 8265.500000, 8338.000000, 8365.000000
2438, 5803512.000000, 1839.500000, 8251.500000, 8327.000000, 8347.500000
2439, 5803672.000000, 1758.875000, 8229.000000, 8301.000000, 8313.500000
2440, 5803832.000000, 1671.375000, 8195.000000, 8260.500000, 8261.500000
2441, 5803992.000000, 1589.375000, 8161.000000, 8220.500000, 8210.000000
2442, 5804152.000000, 1515.500000, 8142.000000, 8202.500000, 8186.500000
2443, 5804312.000000, 1453.750000, 8142.500000, 8196.000000, 8179.500000
2444, 5804472.000000, 1404.250000, 8146.000000, 8196.000000, 8181.000000
2445, 5804632.000000, 1364.750000, 8153.000000, 8195.000000, 8182.500000
2446, 5804792.000000, 1333.375000, 8157.000000, 8195.500000, 8184.500000
2447, 5804952.000000, 1313.000000, 8158.000000, 8197.000000, 8186.000000
2448, 5805112.000000, 1295.750000, 8157.500000, 8193.000000, 8180.500000
2449, 5805272.000000, 1275.250000, 8155.000000, 8190.500000, 8175.500000
2450, 5805432.000000, 1245.625000, 8153.000000, 8188.500000, 8173.500000
2451, 5805592.000000, 1222.750000, 8153.000000, 8189.500000, 8174.500000
2452, 5805752.000000, 1270.625000, 8152.500000, 8191.000000, 8176.000000
2453, 5805912.000000, 1495.625000, 8161.500000, 8198.500000, 8191.500000
2454, 5806072.000000, 1893.625000, 8164.000000, 8200.500000, 8196.500000
2455, 5806232.000000, 2352.625000, 8168.500000, 8193.500000, 8195.000000
2456, 5806392.000000, 2721.625000, 8166.000000, 8193.000000, 8185.000000
2457, 5806552.000000, 2918.625000, 8156.500000, 8186.000000, 8170.500000
2458, 5806712.000000, 2941.625000, 8160.500000, 8188.500000, 8169.000000
2459, 5806872.000000, 2833.250000, 8233.500000, 8334.000000, 8352.500000
2460, 5807032.000000, 2643.250000, 8499.500000, 7883.500000, 8054.500000
2461, 5807192.000000, 2412.625000, 7963.500000, 7865.000000, 7768.000000
2462, 5807352.000000, 2166.375000, 8160.500000, 8190.000000, 8162.500000
2463, 5807512.000000, 1937.625000, 8183.500000, 8246.500000, 8239.000000
2464, 5807672.000000, 1778.125000, 8190.500000, 8256.000000, 8252.500000
2465, 5807832.000000, 1713.375000, 8199.000000, 8262.500000, 8262.500000
2466, 5807992.000000, 1730.000000, 8213.000000, 8269.500000, 8276.500000
2467, 5808152.000000, 1789.125000, 8229.000000, 8279.500000, 8295.000000
2468, 5808312.000000, 1853.000000, 8247.500000, 8293.000000, 8315.000000
2469, 5808472.000000, 1890.250000, 8263.000000, 8309.500000, 8337.500000
2470, 5808632.000000, 1887.000000, 8271.500000, 8320.500000, 8350.500000
2471, 5808792.000000, 1841.625000, 8260.500000, 8318.500000, 8343.000000
2472, 5808952.000000, 1769.875000, 8243.500000, 8301.500000, 8319.000000
2473, 5809112.000000, 1684.250000, 8213.000000, 8258.500000, 8263.500000
2474, 5809272.000000, 1599.250000, 8180.000000, 8207.500000, 8200.000000
2475, 5809432.000000, 1519.125000, 8151.500000, 8178.000000, 8161.500000
2476, 5809592.000000, 1453.125000, 8143.000000, 8169.500000, 8150.500000
2477, 5809752.000000, 1396.500000, 8148.500000, 8170.000000, 8153.500000
2478, 5809912.000000, 1352.000000, 8157.000000, 8171.500000, 8158.500000
2479, 5810072.000000, 1318.875000, 8161.500000, 8172.000000, 8160.000000
2480, 5810232.000000, 1296.875000, 8163.000000, 8171.000000, 8160.000000
2481, 5810392.000000, 1280.750000, 8161.500000, 8171.000000, 8159.000000
2482, 5810552.000000, 1262.125000, 8160.500000, 8170.000000, 8156.500000
2483, 5810712.000000, 1235.125000, 8158.500000, 8168.500000, 8153.500000
2484, 5810872.000000, 1204.375000, 8159.000000, 8167.000000, 8152.500000
2485, 5811032.000000, 1250.750000, 8156.000000, 8167.000000, 8152.000000
2486, 5811192.000000, 1460.500000, 8156.000000, 8168.500000, 8153.500000
2487, 5811352.000000, 1886.625000, 8159.000000, 8169.500000, 8156.500000
2488, 5811512.000000, 2391.250000, 8163.500000, 8173.500000, 8164.000000
2489, 5811672.000000, 2813.500000, 8168.500000, 8179.000000, 8175.500000
2490, 5811832.000000, 3048.750000, 8173.500000, 8179.500000, 8187.000000
2491, 5811992.000000, 3099.875000, 8174.500000, 8174.500000, 8174.000000
2492, 5812152.000000, 2999.875000, 8162.500000, 8166.500000, 8152.000000
2493, 5812312.000000, 2813.125000, 8166.000000, 8161.500000, 8146.500000
2494, 5812472.000000, 2588.625000, 8179.000000, 8245.500000, 8222.500000
2495, 5812632.000000, 2349.000000, 8470.000000, 8063.500000, 8198.000000
2496, 5812792.000000, 2115.250000, 8151.500000, 7624.500000, 7631.000000
2497, 5812952.000000, 1924.125000, 8104.000000, 8057.000000, 7992.000000
2498, 5813112.000000, 1815.625000, 8184.500000, 8226.000000, 8219.500000
2499, 5813272.000000, 1793.250000, 8193.000000, 8242.000000, 8240.000000
2500, 5813432.000000, 1824.875000, 8199.500000, 8247.000000, 8248.000000
2501, 5813592.000000, 1874.750000, 8210.500000, 8249.500000, 8256.000000
2502, 5813752.000000, 1910.625000, 8226.000000, 8252.500000, 8266.500000
2503, 5813912.000000, 1908.625000, 8242.500000, 8255.000000, 8276.500000
2504, 5814072.000000, 1866.875000, 8260.500000, 8266.500000, 8295.000000
2505, 5814232.000000, 1792.250000, 8275.500000, 8280.500000, 8315.000000
2506, 5814392.000000, 1700.750000, 8277.000000, 8283.500000, 8317.500000
2507, 5814552.000000, 1606.125000, 8262.500000, 8272.000000, 8299.000000
2508, 5814712.000000, 1516.375000, 8239.500000, 8231.000000, 8249.500000
2509, 5814872.000000, 1438.125000, 8203.000000, 8168.500000, 8172.000000
2510, 5815032.000000, 1372.000000, 8168.000000, 8122.500000, 8113.000000
2511, 5815192.000000, 1320.250000, 8148.500000, 8102.500000, 8086.000000
2512, 5815352.000000, 1279.875000, 8149.500000, 8099.000000, 8084.000000
2513, 5815512.000000, 1246.875000, 8157.000000, 8098.000000, 8086.000000
2514, 5815672.000000, 1222.125000, 8160.000000, 8098.000000, 8087.000000
2515, 5815832.000000, 1206.500000, 8162.000000, 8100.000000, 8091.000000
2516, 5815992.000000, 1199.250000, 8162.000000, 8102.500000, 8093.500000
2517, 5816152.000000, 1187.375000, 8164.000000, 8103.000000, 8094.000000
2518, 5816312.000000, 1164.500000, 8162.500000, 8103.500000, 8092.000000
2519, 5816472.000000, 1127.500000, 8162.000000, 8103.000000, 8090.500000
2520, 5816632.000000, 1147.250000, 8161.000000, 8103.500000, 8090.500000
2521, 5816792.000000, 1350.375000, 8160.000000, 8106.500000, 8094.500000
2522, 5816952.000000, 1805.250000, 8161.500000, 8109.500000, 8098.500000
2523, 5817112.000000, 2386.750000, 8163.000000, 8112.000000, 8100.000000
2524, 5817272.000000, 2898.875000, 8164.500000, 8113.500000, 8102.500000
2525, 5817432.000000, 3206.375000, 8163.000000, 8117.000000, 8105.000000
2526, 5817592.000000, 3301.000000, 8171.500000, 8128.500000, 8126.000000
2527, 5817752.000000, 3212.875000, 8174.000000, 8137.000000, 8140.000000
2528, 5817912.000000, 3031.250000, 8181.000000, 8136.000000, 8143.000000
2529, 5818072.000000, 2813.625000, 8180.500000, 8133.000000, 8132.500000
2530, 5818232.000000, 2587.375000, 8168.000000, 8125.000000, 8112.500000
2531, 5818392.000000, 2359.875000, 8167.500000, 8128.000000, 8114.000000
2532, 5818552.000000, 2145.125000, 8196.500000, 8243.500000, 8232.000000
2533, 5818712.000000, 1990.750000, 8492.000000, 7915.500000, 8070.500000
2534, 5818872.000000, 1907.750000, 8055.500000, 7625.000000, 7574.500000
2535, 5819032.000000, 1892.500000, 8148.000000, 8103.000000, 8065.000000
2536, 5819192.000000, 1911.750000, 8188.500000, 8215.000000, 8209.000000
2537, 5819352.000000, 1936.000000, 8198.500000, 8233.500000, 8234.500000
2538, 5819512.000000, 1940.375000, 8208.500000, 8242.000000, 8246.000000
2539, 5819672.000000, 1910.125000, 8219.000000, 8248.500000, 8255.500000
2540, 5819832.000000, 1844.750000, 8232.000000, 8258.500000, 8272.000000
2541, 5819992.000000, 1755.375000, 8248.000000, 8273.000000, 8295.500000
2542, 5820152.000000, 1655.125000, 8265.000000, 8291.000000, 8320.500000
2543, 5820312.000000, 1555.375000, 8280.500000, 8308.000000, 8342.000000
2544, 5820472.000000, 1463.375000, 8280.500000, 8311.500000, 8343.500000
2545, 5820632.000000, 1383.125000, 8265.500000, 8303.500000, 8330.500000
2546, 5820792.000000, 1318.000000, 8238.000000, 8270.000000, 8286.500000
2547, 5820952.000000, 1266.250000, 8198.000000, 8215.500000, 8216.500000
2548, 5821112.000000, 1226.750000, 8167.500000, 8175.000000, 8163.000000
2549, 5821272.000000, 1197.875000, 8152.000000, 8159.500000, 8141.500000
2550, 5821432.000000, 1175.000000, 8150.000000, 8157.000000, 8140.000000
2551, 5821592.000000, 1159.125000, 8154.500000, 8159.500000, 8145.000000
2552, 5821752.000000, 1147.500000, 8160.000000, 8162.500000, 8149.500000
2553, 5821912.000000, 1138.875000, 8163.500000, 8163.500000, 8151.000000
2554, 5822072.000000, 1130.500000, 8165.500000, 8163.000000, 8151.500000
2555, 5822232.000000, 1115.625000, 8164.000000, 8164.000000, 8151.000000
2556, 5822392.000000, 1084.875000, 8161.500000, 8166.000000, 8152.000000
2557, 5822552.000000, 1042.375000, 8161.000000, 8168.000000, 8153.000000
2558, 5822712.000000, 1046.500000, 8161.500000, 8168.500000, 8153.500000
2559, 5822872.000000, 1260.375000, 8161.500000, 8168.000000, 8152.000000
2560, 5823032.000000, 1724.250000, 8159.500000, 8170.000000, 8152.500000
2561, 5823192.000000, 2336.750000, 8160.500000, 8171.500000, 8156.000000
2562, 5823352.000000, 2868.500000, 8162.000000, 8173.500000, 8157.000000
2563, 5823512.000000, 3196.125000, 8163.000000, 8176.500000, 8161.500000
2564, 5823672.000000, 3291.750000, 8166.000000, 8177.000000, 8163.000000
2565, 5823832.000000, 3200.625000, 8171.500000, 8187.500000, 8183.000000
2566, 5823992.000000, 3005.875000, 8177.500000, 8196.500000, 8200.000000
2567, 5824152.000000, 2776.500000, 8181.500000, 8192.500000, 8194.500000
2568, 5824312.000000, 2542.875000, 8176.000000, 8188.000000, 8180.000000
2569, 5824472.000000, 2309.500000, 8168.500000, 8183.500000, 8169.000000
2570, 5824632.000000, 2092.250000, 8169.500000, 8190.000000, 8171.000000
2571, 5824792.000000, 1930.000000, 8267.500000, 8340.000000, 8369.500000
2572, 5824952.000000, 1844.875000, 8501.500000, 7786.000000, 7963.000000
2573, 5825112.000000, 1830.250000, 7981.000000, 7878.000000, 7771.500000
2574, 5825272.000000, 1867.500000, 8179.500000, 8216.500000, 8198.500000
2575, 5825432.000000, 1889.875000, 8189.000000, 8259.000000, 8252.000000
2576, 5825592.000000, 1857.125000, 8199.500000, 8273.000000, 8272.000000
2577, 5825752.000000, 1787.625000, 8206.000000, 8281.500000, 8284.000000
2578, 5825912.000000, 1677.875000, 8219.500000, 8288.500000, 8295.500000
2579, 5826072.000000, 1558.000000, 8235.000000, 8300.500000, 8314.500000
2580, 5826232.000000, 1460.750000, 8251.000000, 8316.500000, 8336.500000
2581, 5826392.000000, 1374.375000, 8266.000000, 8344.000000, 8370.500000
2582, 5826552.000000, 1303.375000, 8277.500000, 8366.000000, 8396.000000
2583, 5826712.000000, 1246.875000, 8273.000000, 8373.000000, 8400.000000
2584, 5826872.000000, 1204.000000, 8255.500000, 8370.000000, 8390.500000
2585, 5827032.000000, 1173.875000, 8225.500000, 8340.000000, 8350.000000
2586, 5827192.000000, 1152.875000, 8188.000000, 8297.000000, 8292.500000
2587, 5827352.000000, 1138.125000, 8159.000000, 8271.000000, 8256.500000
2588, 5827512.000000, 1127.500000, 8147.000000, 8260.500000, 8243.500000
2589, 5827672.000000, 1118.875000, 8148.000000, 8256.500000, 8238.500000
2590, 5827832.000000, 1110.500000, 8153.000000, 8254.000000, 8239.000000
2591, 5827992.000000, 1100.500000, 8157.500000, 8252.500000, 8239.000000
2592, 5828152.000000, 1086.875000, 8161.500000, 8250.500000, 8239.500000
2593, 5828312.000000, 1063.125000, 8162.000000, 8245.500000, 8233.000000
2594, 5828472.000000, 1020.500000, 8159.000000, 8240.500000, 8227.500000
2595, 5828632.000000, 981.375000, 8156.000000, 8236.000000, 8221.500000
2596, 5828792.000000, 1045.000000, 8155.000000, 8232.500000, 8217.500000
2597, 5828952.000000, 1343.375000, 8155.000000, 8231.000000, 8217.500000
2598, 5829112.000000, 1854.750000, 8156.500000, 8227.500000, 8214.000000
2599, 5829272.000000, 2412.875000, 8157.000000, 8225.000000, 8211.000000
2600, 5829432.000000, 2836.875000, 8156.500000, 8223.000000, 8207.500000
2601, 5829592.000000, 3041.875000, 8158.000000, 8221.500000, 8206.500000
2602, 5829752.000000, 3046.125000, 8160.000000, 8220.000000, 8206.000000
2603, 5829912.000000, 2905.375000, 8167.000000, 8220.500000, 8211.000000
2604, 5830072.000000, 2686.625000, 8170.500000, 8224.000000, 8220.000000
2605, 5830232.000000, 2442.125000, 8179.500000, 8225.500000, 8234.000000
2606, 5830392.000000, 2188.750000, 8178.000000, 8217.000000, 8217.000000
2607, 5830552.000000, 1948.250000, 8167.500000, 8206.500000, 8194.500000
2608, 5830712.000000, 1759.750000, 8168.000000, 8201.500000, 8187.500000
2609, 5830872.000000, 1663.250000, 8176.000000, 8253.000000, 8229.500000
2610, 5831032.000000, 1656.000000, 8442.000000, 8226.000000, 8337.500000
2611, 5831192.000000, 1700.000000, 8283.000000, 7719.000000, 7790.500000
2612, 5831352.000000, 1760.125000, 8055.500000, 8021.500000, 7930.500000
2613, 5831512.000000, 1802.750000, 8184.000000, 8246.500000, 8238.500000
2614, 5831672.000000, 1806.750000, 8192.000000, 8264.500000, 8261.500000
2615, 5831832.000000, 1762.625000, 8200.500000, 8271.500000, 8272.000000
2616, 5831992.000000, 1686.375000, 8209.000000, 8275.500000, 8280.000000
2617, 5832152.000000, 1591.000000, 8222.500000, 8280.500000, 8292.000000
2618, 5832312.000000, 1492.750000, 8238.500000, 8289.500000, 8307.500000
2619, 5832472.000000, 1401.875000, 8255.000000, 8304.000000, 8329.000000
2620, 5832632.000000, 1320.750000, 8269.500000, 8322.000000, 8352.500000
2621, 5832792.000000, 1254.000000, 8273.000000, 8330.500000, 8361.500000
2622, 5832952.000000, 1199.500000, 8263.000000, 8324.500000, 8351.000000
2623, 5833112.000000, 1157.750000, 8240.000000, 8292.500000, 8310.500000
2624, 5833272.000000, 1125.500000, 8206.500000, 8237.000000, 8242.500000
2625, 5833432.000000, 1103.750000, 8169.500000, 8188.000000, 8179.000000
2626, 5833592.000000, 1091.500000, 8146.500000, 8167.500000, 8150.500000
2627, 5833752.000000, 1083.875000, 8143.000000, 8162.000000, 8144.500000
2628, 5833912.000000, 1078.125000, 8151.000000, 8160.500000, 8145.500000
2629, 5834072.000000, 1073.250000, 8156.000000, 8159.500000, 8147.000000
2630, 5834232.000000, 1067.250000, 8159.500000, 8158.000000, 8147.500000
2631, 5834392.000000, 1056.750000, 8159.000000, 8156.000000, 8145.000000
2632, 5834552.000000, 1035.375000, 8159.500000, 8155.000000, 8143.500000
2633, 5834712.000000, 992.875000, 8159.500000, 8153.500000, 8140.000000
2634, 5834872.000000, 966.375000, 8159.000000, 8151.500000, 8137.000000
2635, 5835032.000000, 1057.375000, 8157.000000, 8151.500000, 8135.500000
2636, 5835192.000000, 1386.500000, 8156.000000, 8149.000000, 8134.000000
2637, 5835352.000000, 1913.875000, 8159.000000, 8148.000000, 8133.500000
2638, 5835512.000000, 2459.500000, 8160.000000, 8147.000000, 8133.000000
2639, 5835672.000000, 2834.500000, 8162.000000, 8143.500000, 8128.500000
2640, 5835832.000000, 3004.625000, 8161.000000, 8140.000000, 8126.500000
2641, 5835992.000000, 2985.000000, 8162.500000, 8137.000000, 8124.500000
2642, 5836152.000000, 2833.375000, 8163.000000, 8133.000000, 8121.000000
2643, 5836312.000000, 2613.000000, 8169.500000, 8133.500000, 8128.000000
2644, 5836472.000000, 2365.625000, 8173.000000, 8135.000000, 8135.000000
2645, 5836632.000000, 2111.125000, 8181.000000, 8130.500000, 8141.000000
2646, 5836792.000000, 1868.500000, 8179.500000, 8123.000000, 8123.500000
2647, 5836952.000000, 1689.375000, 8168.500000, 8109.500000, 8099.000000
2648, 5837112.000000, 1599.500000, 8170.000000, 8105.500000, 8092.000000
2649, 5837272.000000, 1599.875000, 8181.000000, 8180.500000, 8158.500000
2650, 5837432.000000, 1648.000000, 8458.500000, 8021.500000, 8150.500000
2651, 5837592.000000, 1711.250000, 8198.500000, 7538.500000, 7568.000000
2652, 5837752.000000, 1752.500000, 8103.000000, 7993.000000, 7927.000000
2653, 5837912.000000, 1754.625000, 8191.000000, 8178.500000, 8175.000000
2654, 5838072.000000, 1716.625000, 8197.000000, 8197.500000, 8197.500000
2655, 5838232.000000, 1642.625000, 8204.500000, 8205.000000, 8208.500000
2656, 5838392.000000, 1551.750000, 8213.000000, 8213.500000, 8222.500000
2657, 5838552.000000, 1457.750000, 8228.000000, 8224.500000, 8240.500000
2658, 5838712.000000, 1366.375000, 8243.500000, 8237.000000, 8260.000000
2659, 5838872.000000, 1283.750000, 8261.000000, 8255.000000, 8285.000000
2660, 5839032.000000, 1215.125000, 8276.000000, 8274.500000, 8310.500000
2661, 5839192.000000, 1162.250000, 8281.000000, 8287.000000, 8325.000000
2662, 5839352.000000, 1120.000000, 8270.500000, 8284.500000, 8318.000000
2663, 5839512.000000, 1089.875000, 8248.500000, 8254.500000, 8277.500000
2664, 5839672.000000, 1067.000000, 8212.000000, 8199.000000, 8208.000000
2665, 5839832.000000, 1053.875000, 8173.000000, 8150.500000, 8144.000000
2666, 5839992.000000, 1046.375000, 8149.000000, 8132.000000, 8115.000000
2667, 5840152.000000, 1041.250000, 8145.000000, 8132.000000, 8114.000000
2668, 5840312.000000, 1037.125000, 8151.000000, 8135.000000, 8120.000000
2669, 5840472.000000, 1033.250000, 8156.000000, 8138.500000, 8125.500000
2670, 5840632.000000, 1028.250000, 8156.000000, 8139.500000, 8126.500000
2671, 5840792.000000, 1020.125000, 8157.500000, 8142.500000, 8130.000000
2672, 5840952.000000, 999.500000, 8157.500000, 8145.000000, 8132.500000
2673, 5841112.000000, 955.875000, 8158.000000, 8144.000000, 8129.000000
2674, 5841272.000000, 935.750000, 8156.500000, 8144.000000, 8127.500000
2675, 5841432.000000, 1065.500000, 8155.000000, 8144.500000, 8129.000000
2676, 5841592.000000, 1472.250000, 8154.000000, 8147.500000, 8131.500000
2677, 5841752.000000, 2077.250000, 8155.000000, 8149.500000, 8134.000000
2678, 5841912.000000, 2666.125000, 8158.500000, 8149.500000, 8135.500000
2679, 5842072.000000, 3051.875000, 8159.000000, 8151.500000, 8138.500000
2680, 5842232.000000, 3217.125000, 8159.000000, 8154.000000, 8141.000000
2681, 5842392.000000, 3179.000000, 8163.000000, 8156.500000, 8146.500000
2682, 5842552.000000, 3007.375000, 8163.000000, 8159.500000, 8148.500000
2683, 5842712.000000, 2772.125000, 8173.000000, 8171.000000, 8171.500000
2684, 5842872.000000, 2518.750000, 8179.000000, 8178.000000, 8187.000000
2685, 5843032.000000, 2263.750000, 8183.000000, 8172.500000, 8176.500000
2686, 5843192.000000, 2020.500000, 8172.000000, 8166.500000, 8159.500000
2687, 5843352.000000, 1831.125000, 8166.500000, 8163.000000, 8150.500000
2688, 5843512.000000, 1724.500000, 8169.500000, 8178.500000, 8159.000000
2689, 5843672.000000, 1701.875000, 8308.000000, 8305.000000, 8355.500000
2690, 5843832.000000, 1734.750000, 8473.500000, 7659.000000, 7831.500000
2691, 5843992.000000, 1784.750000, 7992.000000, 7886.000000, 7775.000000
2692, 5844152.000000, 1821.500000, 8183.000000, 8221.500000, 8214.000000
2693, 5844312.000000, 1826.000000, 8190.000000, 8253.000000, 8250.000000
2694, 5844472.000000, 1789.500000, 8199.500000, 8263.000000, 8264.000000
2695, 5844632.000000, 1715.250000, 8208.500000, 8270.000000, 8277.000000
2696, 5844792.000000, 1622.875000, 8218.000000, 8278.000000, 8288.000000
2697, 5844952.000000, 1522.000000, 8232.000000, 8288.500000, 8306.000000
2698, 5845112.000000, 1422.875000, 8251.000000, 8302.500000, 8325.000000
2699, 5845272.000000, 1333.250000, 8268.500000, 8318.000000, 8348.000000
2700, 5845432.000000, 1256.500000, 8280.500000, 8330.500000, 8364.500000
2701, 5845592.000000, 1197.125000, 8273.500000, 8330.500000, 8361.000000
2702, 5845752.000000, 1149.125000, 8253.500000, 8316.000000, 8339.000000
2703, 5845912.000000, 1115.500000, 8224.500000, 8277.500000, 8290.500000
2704, 5846072.000000, 1090.125000, 8186.000000, 8234.000000, 8230.500000
2705, 5846232.000000, 1074.125000, 8153.500000, 8215.500000, 8200.500000
2706, 5846392.000000, 1065.375000, 8142.500000, 8222.000000, 8204.500000
2707, 5846552.000000, 1061.625000, 8148.000000, 8239.000000, 8224.000000
2708, 5846712.000000, 1061.000000, 8155.000000, 8257.500000, 8246.000000
2709, 5846872.000000, 1059.250000, 8159.000000, 8268.500000, 8257.500000
2710, 5847032.000000, 1056.125000, 8160.000000, 8275.000000, 8265.000000
2711, 5847192.000000, 1045.125000, 8157.000000, 8276.000000, 8264.000000
2712, 5847352.000000, 1021.625000, 8156.500000, 8274.500000, 8262.000000
2713, 5847512.000000, 978.625000, 8156.500000, 8271.500000, 8258.000000
2714, 5847672.000000, 975.375000, 8156.000000, 8267.500000, 8252.500000
2715, 5847832.000000, 1140.750000, 8153.000000, 8262.500000, 8246.000000
2716, 5847992.000000, 1570.750000, 8154.000000, 8260.000000, 8244.000000
2717, 5848152.000000, 2146.625000, 8156.500000, 8257.000000, 8242.500000
2718, 5848312.000000, 2667.000000, 8160.000000, 8252.500000, 8237.500000
2719, 5848472.000000, 2977.375000, 8161.000000, 8249.000000, 8236.000000
2720, 5848632.000000, 3083.500000, 8168.500000, 8252.500000, 8248.000000
2721, 5848792.000000, 3014.625000, 8171.500000, 8254.000000, 8256.000000
2722, 5848952.000000, 2831.625000, 8177.000000, 8243.000000, 8247.000000
2723, 5849112.000000, 2592.750000, 8175.000000, 8239.000000, 8233.000000
2724, 5849272.000000, 2335.000000, 8166.000000, 8226.000000, 8213.000000
2725, 5849432.000000, 2076.125000, 8168.000000, 8232.500000, 8214.500000
2726, 5849592.000000, 1841.875000, 8285.500000, 8370.000000, 8413.000000
2727, 5849752.000000, 1684.125000, 8479.500000, 7865.000000, 8035.500000
2728, 5849912.000000, 1617.375000, 7983.500000, 7935.500000, 7836.000000
2729, 5850072.000000, 1634.125000, 8176.000000, 8234.500000, 8216.000000
2730, 5850232.000000, 1695.500000, 8189.000000, 8274.500000, 8269.500000
2731, 5850392.000000, 1763.625000, 8197.500000, 8283.500000, 8284.000000
2732, 5850552.000000, 1807.375000, 8209.000000, 8289.500000, 8295.000000
2733, 5850712.000000, 1810.625000, 8222.000000, 8295.000000, 8305.000000
2734, 5850872.000000, 1770.750000, 8235.500000, 8301.500000, 8318.500000
2735, 5851032.000000, 1697.250000, 8249.000000, 8313.000000, 8335.000000
2736, 5851192.000000, 1606.750000, 8267.000000, 8329.500000, 8359.500000
2737, 5851352.000000, 1511.125000, 8278.000000, 8342.000000, 8374.500000
2738, 5851512.000000, 1420.375000, 8271.000000, 8336.500000, 8366.000000
2739, 5851672.000000, 1338.750000, 8252.500000, 8316.000000, 8340.000000
2740, 5851832.000000, 1270.125000, 8219.500000, 8273.500000, 8285.500000
2741, 5851992.000000, 1218.250000, 8182.000000, 8223.500000, 8221.000000
2742, 5852152.000000, 1176.000000, 8153.500000, 8194.000000, 8181.500000
2743, 5852312.000000, 1144.250000, 8143.500000, 8183.500000, 8167.500000
2744, 5852472.000000, 1122.875000, 8149.000000, 8182.500000, 8169.500000
2745, 5852632.000000, 1109.500000, 8153.000000, 8183.000000, 8172.000000
2746, 5852792.000000, 1102.250000, 8158.000000, 8184.000000, 8175.500000
2747, 5852952.000000, 1101.000000, 8161.000000, 8185.000000, 8178.000000
2748, 5853112.000000, 1100.125000, 8161.000000, 8182.500000, 8172.500000
2749, 5853272.000000, 1086.000000, 8158.500000, 8180.500000, 8168.500000
2750, 5853432.000000, 1058.750000, 8156.000000, 8179.000000, 8166.000000
2751, 5853592.000000, 1027.500000, 8152.500000, 8177.000000, 8162.000000
2752, 5853752.000000, 1081.000000, 8153.000000, 8178.500000, 8163.500000
2753, 5853912.000000, 1336.375000, 8155.500000, 8177.000000, 8162.000000
2754, 5854072.000000, 1796.375000, 8155.500000, 8176.000000, 8160.000000
2755, 5854232.000000, 2300.125000, 8156.500000, 8176.000000, 8160.500000
2756, 5854392.000000, 2678.875000, 8158.000000, 8177.500000, 8164.500000
2757, 5854552.000000, 2863.000000, 8167.000000, 8187.500000, 8186.000000
2758, 5854712.000000, 2878.000000, 8171.500000, 8191.500000, 8194.500000
2759, 5854872.000000, 2757.875000, 8176.500000, 8183.500000, 8188.000000
2760, 5855032.000000, 2560.000000, 8172.000000, 8180.500000, 8174.500000
2761, 5855192.000000, 2316.750000, 8162.500000, 8172.500000, 8160.000000
2762, 5855352.000000, 2053.375000, 8164.000000, 8180.500000, 8161.500000
2763, 5855512.000000, 1796.125000, 8273.500000, 8327.000000, 8364.000000
2764, 5855672.000000, 1593.750000, 8474.500000, 7731.000000, 7904.500000
2765, 5855832.000000, 1491.625000, 7977.000000, 7856.000000, 7747.000000
2766, 5855992.000000, 1486.750000, 8175.000000, 8207.000000, 8195.000000
2767, 5856152.000000, 1550.000000, 8186.500000, 8245.500000, 8243.000000
2768, 5856312.000000, 1632.000000, 8196.000000, 8256.000000, 8257.500000
2769, 5856472.000000, 1699.500000, 8207.000000, 8262.000000, 8267.000000
2770, 5856632.000000, 1729.250000, 8217.500000, 8266.000000, 8277.000000
2771, 5856792.000000, 1715.000000, 8230.000000, 8275.000000, 8291.500000
2772, 5856952.000000, 1661.125000, 8249.000000, 8289.000000, 8315.000000
2773, 5857112.000000, 1580.500000, 8268.000000, 8308.500000, 8342.000000
2774, 5857272.000000, 1490.500000, 8278.000000, 8321.000000, 8357.000000
2775, 5857432.000000, 1400.250000, 8271.500000, 8320.500000, 8352.500000
2776, 5857592.000000, 1318.000000, 8251.000000, 8302.000000, 8326.500000
2777, 5857752.000000, 1249.625000, 8221.000000, 8252.500000, 8265.000000
2778, 5857912.000000, 1191.625000, 8185.500000, 8194.500000, 8193.500000
2779, 5858072.000000, 1149.750000, 8157.000000, 8163.000000, 8150.000000
2780, 5858232.000000, 1117.500000, 8145.500000, 8151.000000, 8134.500000
2781, 5858392.000000, 1094.375000, 8147.500000, 8149.500000, 8133.500000
2782, 5858552.000000, 1079.625000, 8154.000000, 8151.500000, 8138.500000
2783, 5858712.000000, 1072.250000, 8159.000000, 8152.000000, 8141.000000
2784, 5858872.000000, 1069.125000, 8161.000000, 8151.500000, 8140.500000
2785, 5859032.000000, 1067.250000, 8158.500000, 8150.000000, 8138.000000
2786, 5859192.000000, 1055.875000, 8157.000000, 8148.000000, 8134.000000
2787, 5859352.000000, 1028.125000, 8155.000000, 8147.000000, 8132.000000
2788, 5859512.000000, 1005.375000, 8155.500000, 8142.500000, 8127.500000
2789, 5859672.000000, 1117.625000, 8156.500000, 8138.500000, 8123.000000
2790, 5859832.000000, 1464.750000, 8156.000000, 8134.500000, 8119.500000
2791, 5859992.000000, 2025.250000, 8156.000000, 8132.000000, 8117.000000
2792, 5860152.000000, 2577.875000, 8157.000000, 8130.000000, 8116.000000
2793, 5860312.000000, 2956.000000, 8160.000000, 8129.000000, 8116.000000
2794, 5860472.000000, 3115.750000, 8170.000000, 8137.000000, 8134.000000
2795, 5860632.000000, 3094.875000, 8173.000000, 8138.500000, 8143.000000
2796, 5860792.000000, 2943.125000, 8176.000000, 8126.500000, 8130.500000
2797, 5860952.000000, 2717.250000, 8170.500000, 8120.000000, 8112.000000
2798, 5861112.000000, 2464.000000, 8165.000000, 8108.000000, 8093.500000
2799, 5861272.000000, 2198.250000, 8169.000000, 8120.500000, 8098.500000
2800, 5861432.000000, 1946.000000, 8316.500000, 8226.000000, 8278.000000
2801, 5861592.000000, 1749.500000, 8422.500000, 7537.500000, 7694.000000
2802, 5861752.000000, 1649.125000, 7996.500000, 7823.000000, 7711.000000
2803, 5861912.000000, 1642.625000, 8183.000000, 8158.000000, 8149.500000
2804, 5862072.000000, 1696.750000, 8193.000000, 8188.500000, 8186.500000
2805, 5862232.000000, 1769.500000, 8199.000000, 8199.500000, 8199.500000
2806, 5862392.000000, 1828.625000, 8209.000000, 8206.500000, 8212.500000
2807, 5862552.000000, 1847.625000, 8218.500000, 8215.500000, 8224.500000
2808, 5862712.000000, 1825.000000, 8233.500000, 8228.000000, 8245.500000
2809, 5862872.000000, 1763.750000, 8252.000000, 8241.500000, 8266.500000
2810, 5863032.000000, 1679.500000, 8268.500000, 8262.500000, 8293.500000
2811, 5863192.000000, 1587.375000, 8277.000000, 8279.000000, 8313.000000
2812, 5863352.000000, 1492.625000, 8273.000000, 8280.000000, 8313.000000
2813, 5863512.000000, 1405.000000, 8254.000000, 8259.500000, 8284.000000
2814, 5863672.000000, 1328.625000, 8223.000000, 8209.000000, 8221.500000
2815, 5863832.000000, 1269.125000, 8184.500000, 8153.000000, 8149.500000
2816, 5863992.000000, 1220.250000, 8153.000000, 8127.500000, 8111.000000
2817, 5864152.000000, 1183.500000, 8145.000000, 8123.500000, 8105.500000
2818, 5864312.000000, 1158.125000, 8150.000000, 8126.000000, 8109.500000
2819, 5864472.000000, 1140.125000, 8159.000000, 8129.000000, 8116.000000
2820, 5864632.000000, 1131.375000, 8159.500000, 8131.000000, 8118.500000
2821, 5864792.000000, 1127.250000, 8162.000000, 8133.000000, 8122.000000
2822, 5864952.000000, 1124.125000, 8160.000000, 8136.500000, 8123.500000
2823, 5865112.000000, 1110.625000, 8161.000000, 8137.500000, 8124.500000
2824, 5865272.000000, 1081.625000, 8161.000000, 8136.500000, 8121.500000
2825, 5865432.000000, 1065.500000, 8158.500000, 8137.000000, 8122.000000
2826, 5865592.000000, 1194.500000, 8157.000000, 8139.500000, 8124.500000
2827, 5865752.000000, 1567.875000, 8159.000000, 8142.500000, 8127.500000
2828, 5865912.000000, 2133.250000, 8162.000000, 8146.000000, 8131.500000
2829, 5866072.000000, 2667.500000, 8165.000000, 8148.000000, 8137.000000
2830, 5866232.000000, 3030.750000, 8171.000000, 8159.000000, 8156.500000
2831, 5866392.000000, 3167.000000, 8174.500000, 8164.500000, 8172.000000
2832, 5866552.000000, 3129.875000, 8179.000000, 8159.500000, 8161.500000
2833, 5866712.000000, 2969.250000, 8167.500000, 8151.500000, 8138.500000
2834, 5866872.000000, 2743.875000, 8165.000000, 8148.500000, 8131.500000
2835, 5867032.000000, 2494.375000, 8166.500000, 8205.000000, 8175.000000
2836, 5867192.000000, 2236.750000, 8441.500000, 8146.500000, 8261.000000
2837, 5867352.000000, 1996.000000, 8279.000000, 7573.000000, 7649.000000
2838, 5867512.000000, 1804.250000, 8071.500000, 7994.500000, 7911.500000
2839, 5867672.000000, 1706.875000, 8188.000000, 8221.500000, 8214.500000
2840, 5867832.000000, 1697.125000, 8190.500000, 8244.000000, 8237.500000
2841, 5867992.000000, 1743.000000, 8199.500000, 8252.000000, 8251.000000
2842, 5868152.000000, 1806.750000, 8210.000000, 8259.500000, 8263.500000
2843, 5868312.000000, 1856.125000, 8223.500000, 8267.500000, 8277.500000
2844, 5868472.000000, 1867.125000, 8239.500000, 8278.500000, 8293.500000
2845, 5868632.000000, 1837.500000, 8254.500000, 8293.500000, 8316.000000
2846, 5868792.000000, 1772.875000, 8269.500000, 8311.500000, 8340.000000
2847, 5868952.000000, 1685.750000, 8274.000000, 8320.000000, 8350.000000
2848, 5869112.000000, 1590.750000, 8266.000000, 8316.000000, 8342.500000
2849, 5869272.000000, 1497.500000, 8244.500000, 8288.500000, 8306.500000
2850, 5869432.000000, 1411.125000, 8208.000000, 8239.000000, 8244.000000
2851, 5869592.000000, 1335.875000, 8171.000000, 8195.000000, 8185.500000
2852, 5869752.000000, 1273.875000, 8147.500000, 8180.000000, 8162.500000
2853, 5869912.000000, 1225.625000, 8146.000000, 8178.500000, 8161.000000
2854, 5870072.000000, 1189.625000, 8152.000000, 8184.000000, 8167.000000
2855, 5870232.000000, 1162.625000, 8157.500000, 8197.500000, 8183.000000
2856, 5870392.000000, 1144.750000, 8156.500000, 8211.000000, 8197.500000
2857, 5870552.000000, 1134.875000, 8158.000000, 8226.000000, 8213.000000
2858, 5870712.000000, 1126.500000, 8161.500000, 8245.000000, 8234.000000
2859, 5870872.000000, 1111.625000, 8160.000000, 8257.000000, 8243.000000
2860, 5871032.000000, 1080.750000, 8156.000000, 8263.000000, 8248.000000
2861, 5871192.000000, 1067.500000, 8155.500000, 8267.500000, 8253.500000
2862, 5871352.000000, 1167.500000, 8156.000000, 8268.000000, 8253.500000
2863, 5871512.000000, 1508.500000, 8159.000000, 8268.000000, 8255.000000
2864, 5871672.000000, 2019.750000, 8169.000000, 8273.000000, 8269.000000
2865, 5871832.000000, 2528.625000, 8172.000000, 8273.000000, 8277.500000
2866, 5871992.000000, 2869.625000, 8174.500000, 8262.500000, 8264.000000
2867, 5872152.000000, 3015.250000, 8167.500000, 8255.500000, 8244.500000
2868, 5872312.000000, 2988.625000, 8164.500000, 8246.500000, 8231.500000
2869, 5872472.000000, 2839.375000, 8165.500000, 8261.000000, 8235.500000
2870, 5872632.000000, 2621.625000, 8341.500000, 8370.500000, 8437.000000
2871, 5872792.000000, 2369.375000, 8415.000000, 7830.000000, 7973.500000
2872, 5872952.000000, 2108.125000, 7999.000000, 7991.500000, 7888.000000
2873, 5873112.000000, 1861.625000, 8177.500000, 8266.500000, 8251.500000
2874, 5873272.000000, 1680.375000, 8188.000000, 8291.000000, 8284.000000
2875, 5873432.000000, 1596.250000, 8194.500000, 8298.000000, 8295.000000
2876, 5873592.000000, 1606.250000, 8204.500000, 8301.500000, 8303.000000
2877, 5873752.000000, 1671.625000, 8215.500000, 8307.500000, 8314.500000
2878, 5873912.000000, 1751.125000, 8234.000000, 8314.500000, 8328.500000
2879, 5874072.000000, 1809.000000, 8250.000000, 8325.000000, 8345.000000
2880, 5874232.000000, 1827.000000, 8266.500000, 8336.500000, 8363.000000
2881, 5874392.000000, 1800.250000, 8269.500000, 8342.500000, 8369.000000
2882, 5874552.000000, 1737.750000, 8261.500000, 8335.500000, 8357.000000
2883, 5874712.000000, 1654.875000, 8242.000000, 8312.500000, 8327.000000
2884, 5874872.000000, 1566.500000, 8210.500000, 8268.500000, 8272.000000
2885, 5875032.000000, 1478.625000, 8173.500000, 8223.500000, 8215.500000
2886, 5875192.000000, 1398.750000, 8146.500000, 8200.000000, 8183.000000
2887, 5875352.000000, 1332.000000, 8142.500000, 8194.000000, 8177.500000
2888, 5875512.000000, 1278.375000, 8148.500000, 8193.500000, 8179.000000
2889, 5875672.000000, 1236.750000, 8155.000000, 8193.500000, 8180.500000
2890, 5875832.000000, 1205.375000, 8157.000000, 8193.000000, 8181.000000
2891, 5875992.000000, 1187.125000, 8157.000000, 8193.000000, 8181.000000
2892, 5876152.000000, 1175.500000, 8154.000000, 8193.000000, 8181.000000
2893, 5876312.000000, 1160.375000, 8155.500000, 8191.500000, 8178.500000
2894, 5876472.000000, 1138.250000, 8155.500000, 8190.000000, 8176.000000
2895, 5876632.000000, 1107.875000, 8152.500000, 8188.000000, 8173.000000
2896, 5876792.000000, 1117.500000, 8152.500000, 8190.500000, 8176.500000
2897, 5876952.000000, 1269.375000, 8156.000000, 8199.000000, 8192.000000
2898, 5877112.000000, 1626.750000, 8168.500000, 8202.500000, 8209.000000
2899, 5877272.000000, 2096.000000, 8169.500000, 8193.500000, 8192.500000
2900, 5877432.000000, 2510.375000, 8156.000000, 8183.500000, 8169.000000
2901, 5877592.000000, 2756.750000, 8153.500000, 8180.500000, 8163.000000
2902, 5877752.000000, 2833.125000, 8159.000000, 8228.000000, 8200.500000
2903, 5877912.000000, 2762.625000, 8418.500000, 8246.500000, 8350.500000
2904, 5878072.000000, 2599.625000, 8291.500000, 7727.500000, 7808.500000
2905, 5878232.000000, 2377.000000, 8034.000000, 7990.500000, 7893.500000
2906, 5878392.000000, 2122.250000, 8174.000000, 8228.000000, 8217.000000
2907, 5878552.000000, 1858.500000, 8181.500000, 8251.000000, 8245.000000
2908, 5878712.000000, 1632.125000, 8191.000000, 8258.000000, 8256.500000
2909, 5878872.000000, 1501.500000, 8201.500000, 8263.000000, 8264.500000
2910, 5879032.000000, 1474.500000, 8216.000000, 8270.500000, 8279.500000
2911, 5879192.000000, 1532.000000, 8230.000000, 8284.500000, 8300.500000
2912, 5879352.000000, 1620.375000, 8247.500000, 8302.000000, 8324.000000
2913, 5879512.000000, 1706.500000, 8266.500000, 8319.000000, 8348.500000
2914, 5879672.000000, 1756.250000, 8270.500000, 8323.500000, 8353.000000
2915, 5879832.000000, 1760.250000, 8256.000000, 8315.500000, 8340.000000
2916, 5879992.000000, 1719.625000, 8231.500000, 8285.500000, 8300.500000
2917, 5880152.000000, 1648.625000, 8200.000000, 8234.500000, 8238.000000
2918, 5880312.000000, 1562.375000, 8168.000000, 8189.000000, 8180.500000
2919, 5880472.000000, 1474.625000, 8147.000000, 8168.500000, 8152.000000
2920, 5880632.000000, 1393.875000, 8145.500000, 8164.500000, 8149.000000
2921, 5880792.000000, 1322.250000, 8149.000000, 8165.500000, 8152.000000
2922, 5880952.000000, 1265.500000, 8155.000000, 8168.500000, 8157.500000
2923, 5881112.000000, 1221.750000, 8159.000000, 8168.500000, 8159.500000
2924, 5881272.000000, 1189.500000, 8159.000000, 8166.500000, 8157.500000
2925, 5881432.000000, 1166.375000, 8155.000000, 8165.000000, 8153.500000
2926, 5881592.000000, 1145.250000, 8153.000000, 8164.500000, 8151.500000
2927, 5881752.000000, 1112.375000, 8152.000000, 8165.000000, 8150.000000
2928, 5881912.000000, 1082.875000, 8154.000000, 8164.500000, 8149.500000
2929, 5882072.000000, 1120.000000, 8156.500000, 8165.000000, 8150.500000
2930, 5882232.000000, 1350.250000, 8161.000000, 8175.500000, 8170.000000
2931, 5882392.000000, 1783.375000, 8165.000000, 8182.000000, 8183.000000
2932, 5882552.000000, 2288.250000, 8169.000000, 8172.000000, 8171.500000
2933, 5882712.000000, 2676.125000, 8166.000000, 8167.000000, 8155.000000
2934, 5882872.000000, 2884.000000, 8159.000000, 8156.500000, 8137.500000
2935, 5883032.000000, 2911.875000, 8161.500000, 8162.000000, 8141.000000
2936, 5883192.000000, 2809.250000, 8245.000000, 8318.500000, 8338.000000
2937, 5883352.000000, 2618.625000, 8482.000000, 7721.000000, 7897.500000
2938, 5883512.000000, 2380.500000, 7963.500000, 7810.000000, 7696.000000
2939, 5883672.000000, 2119.875000, 8174.500000, 8190.000000, 8174.500000
2940, 5883832.000000, 1859.625000, 8183.500000, 8228.000000, 8221.500000
2941, 5883992.000000, 1654.375000, 8191.500000, 8235.000000, 8233.000000
2942, 5884152.000000, 1540.750000, 8202.000000, 8233.000000, 8236.500000
2943, 5884312.000000, 1534.625000, 8214.500000, 8228.500000, 8236.500000
2944, 5884472.000000, 1594.250000, 8229.500000, 8224.000000, 8237.000000
2945, 5884632.000000, 1678.000000, 8244.000000, 8227.500000, 8247.500000
2946, 5884792.000000, 1746.125000, 8261.000000, 8242.000000, 8269.000000
2947, 5884952.000000, 1778.375000, 8271.500000, 8252.000000, 8283.000000
2948, 5885112.000000, 1763.375000, 8264.500000, 8248.500000, 8276.000000
2949, 5885272.000000, 1713.250000, 8248.000000, 8226.000000, 8246.500000
2950, 5885432.000000, 1640.000000, 8216.000000, 8174.000000, 8183.000000
2951, 5885592.000000, 1554.250000, 8182.000000, 8119.000000, 8116.500000
2952, 5885752.000000, 1467.375000, 8155.000000, 8091.000000, 8077.500000
2953, 5885912.000000, 1390.125000, 8147.000000, 8084.000000, 8067.000000
2954, 5886072.000000, 1324.000000, 8151.000000, 8085.500000, 8069.500000
2955, 5886232.000000, 1268.500000, 8156.000000, 8090.500000, 8077.500000
2956, 5886392.000000, 1226.750000, 8157.000000, 8097.000000, 8085.000000
2957, 5886552.000000, 1196.250000, 8158.500000, 8101.500000, 8089.500000
2958, 5886712.000000, 1176.750000, 8158.500000, 8104.500000, 8091.500000
2959, 5886872.000000, 1160.000000, 8156.000000, 8105.500000, 8090.500000
2960, 5887032.000000, 1130.875000, 8152.500000, 8106.500000, 8089.500000
2961, 5887192.000000, 1096.750000, 8151.500000, 8109.500000, 8093.000000
2962, 5887352.000000, 1148.625000, 8154.000000, 8115.000000, 8101.000000
2963, 5887512.000000, 1405.875000, 8161.500000, 8128.000000, 8123.000000
2964, 5887672.000000, 1902.375000, 8169.000000, 8134.500000, 8140.500000
2965, 5887832.000000, 2458.125000, 8172.000000, 8127.500000, 8127.000000
2966, 5887992.000000, 2893.750000, 8157.500000, 8121.000000, 8103.500000
2967, 5888152.000000, 3108.250000, 8156.000000, 8119.000000, 8098.500000
2968, 5888312.000000, 3138.875000, 8159.000000, 8142.000000, 8113.000000
2969, 5888472.000000, 3021.375000, 8316.000000, 8244.500000, 8295.500000
2970, 5888632.000000, 2815.250000, 8427.000000, 7547.000000, 7703.000000
2971, 5888792.000000, 2574.125000, 7995.000000, 7860.500000, 7746.500000
2972, 5888952.000000, 2320.625000, 8178.500000, 8192.500000, 8180.500000
2973, 5889112.000000, 2075.125000, 8184.000000, 8223.500000, 8214.500000
2974, 5889272.000000, 1866.250000, 8194.000000, 8234.500000, 8229.500000
2975, 5889432.000000, 1747.500000, 8202.000000, 8241.500000, 8241.500000
2976, 5889592.000000, 1717.875000, 8213.500000, 8250.000000, 8255.500000
2977, 5889752.000000, 1753.625000, 8229.000000, 8263.000000, 8276.500000
2978, 5889912.000000, 1815.750000, 8247.500000, 8279.500000, 8300.500000
2979, 5890072.000000, 1869.625000, 8266.000000, 8298.500000, 8325.000000
2980, 5890232.000000, 1892.500000, 8271.500000, 8308.000000, 8336.000000
2981, 5890392.000000, 1868.500000, 8259.500000, 8304.000000, 8328.000000
2982, 5890552.000000, 1806.625000, 8237.500000, 8282.500000, 8297.500000
2983, 5890712.000000, 1720.125000, 8204.000000, 8230.000000, 8232.000000
2984, 5890872.000000, 1626.750000, 8172.000000, 8180.000000, 8170.000000
2985, 5891032.000000, 1533.875000, 8144.000000, 8160.500000, 8140.000000
2986, 5891192.000000, 1450.000000, 8140.000000, 8158.500000, 8137.000000
2987, 5891352.000000, 1378.625000, 8144.000000, 8163.500000, 8144.500000
2988, 5891512.000000, 1320.750000, 8151.500000, 8167.000000, 8150.500000
2989, 5891672.000000, 1276.000000, 8156.000000, 8172.000000, 8157.000000
2990, 5891832.000000, 1244.250000, 8156.500000, 8179.500000, 8164.000000
2991, 5891992.000000, 1220.625000, 8155.500000, 8196.500000, 8180.500000
2992, 5892152.000000, 1197.250000, 8154.000000, 8216.000000, 8200.000000
2993, 5892312.000000, 1163.000000, 8155.500000, 8235.000000, 8218.000000
2994, 5892472.000000, 1134.875000, 8155.500000, 8247.000000, 8229.000000
2995, 5892632.000000, 1190.125000, 8155.000000, 8251.000000, 8232.000000
2996, 5892792.000000, 1452.125000, 8159.000000, 8259.000000, 8247.000000
2997, 5892952.000000, 1924.625000, 8162.500000, 8268.000000, 8261.500000
2998, 5893112.000000, 2453.625000, 8172.000000, 8269.000000, 8271.500000
2999, 5893272.000000, 2846.375000, 8170.500000, 8260.500000, 8252.500000
3000, 5893432.000000, 3049.000000, 8159.000000, 8247.500000, 8228.500000
3001, 5893592.000000, 3059.125000, 8159.000000, 8245.000000, 8226.000000
3002, 5893752.000000, 2931.375000, 8175.000000, 8336.500000, 8314.500000
3003, 5893912.000000, 2727.500000, 8519.500000, 8128.000000, 8282.500000
3004, 5894072.000000, 2491.000000, 8076.000000, 7789.500000, 7765.500000
3005, 5894232.000000, 2244.500000, 8110.500000, 8152.000000, 8087.000000
3006, 5894392.000000, 2005.375000, 8180.000000, 8295.500000, 8286.500000
3007, 5894552.000000, 1813.125000, 8187.000000, 8310.000000, 8305.000000
3008, 5894712.000000, 1707.375000, 8198.000000, 8313.000000, 8310.500000
3009, 5894872.000000, 1690.000000, 8210.500000, 8317.000000, 8320.500000
3010, 5895032.000000, 1730.250000, 8223.000000, 8322.500000, 8332.500000
3011, 5895192.000000, 1793.000000, 8238.000000, 8331.500000, 8349.000000
3012, 5895352.000000, 1843.875000, 8256.000000, 8345.000000, 8368.500000
3013, 5895512.000000, 1856.500000, 8271.000000, 8356.000000, 8384.000000
3014, 5895672.000000, 1830.000000, 8268.000000, 8352.000000, 8377.500000
3015, 5895832.000000, 1767.750000, 8251.000000, 8337.000000, 8356.500000
3016, 5895992.000000, 1684.500000, 8224.500000, 8304.000000, 8314.000000
3017, 5896152.000000, 1590.125000, 8191.500000, 8254.500000, 8253.500000
3018, 5896312.000000, 1499.500000, 8160.000000, 8215.500000, 8202.500000
3019, 5896472.000000, 1414.375000, 8146.000000, 8200.500000, 8183.500000
3020, 5896632.000000, 1345.250000, 8147.500000, 8196.000000, 8180.500000
3021, 5896792.000000, 1290.250000, 8152.000000, 8197.500000, 8184.000000
3022, 5896952.000000, 1248.000000, 8157.500000, 8199.500000, 8189.000000
3023, 5897112.000000, 1217.875000, 8160.500000, 8199.500000, 8189.000000
3024, 5897272.000000, 1197.750000, 8161.500000, 8197.000000, 8185.000000
3025, 5897432.000000, 1183.750000, 8158.000000, 8195.000000, 8181.500000
3026, 5897592.000000, 1165.125000, 8155.000000, 8193.000000, 8178.000000
3027, 5897752.000000, 1133.125000, 8153.000000, 8193.000000, 8178.000000
3028, 5897912.000000, 1113.250000, 8155.500000, 8191.000000, 8176.000000
3029, 5898072.000000, 1204.875000, 8163.000000, 8198.000000, 8191.000000
3030, 5898232.000000, 1490.625000, 8163.000000, 8199.000000, 8196.000000
3031, 5898392.000000, 1964.125000, 8167.500000, 8191.500000, 8193.000000
3032, 5898552.000000, 2444.875000, 8166.000000, 8189.500000, 8181.500000
3033, 5898712.000000, 2782.250000, 8157.000000, 8181.500000, 8164.500000
3034, 5898872.000000, 2927.125000, 8161.000000, 8183.000000, 8165.000000
3035, 5899032.000000, 2908.375000, 8219.500000, 8321.500000, 8331.000000
3036, 5899192.000000, 2769.375000, 8522.500000, 7908.500000, 8087.000000
3037, 5899352.000000, 2562.500000, 7965.500000, 7851.500000, 7762.500000
3038, 5899512.000000, 2324.250000, 8158.500000, 8177.500000, 8146.500000
3039, 5899672.000000, 2072.875000, 8184.000000, 8241.500000, 8233.500000
3040, 5899832.000000, 1839.875000, 8192.000000, 8255.500000, 8252.500000
3041, 5899992.000000, 1674.125000, 8199.500000, 8263.500000, 8263.500000
3042, 5900152.000000, 1610.375000, 8212.000000, 8270.500000, 8275.000000
3043, 5900312.000000, 1633.625000, 8229.000000, 8279.000000, 8292.500000
3044, 5900472.000000, 1702.250000, 8246.000000, 8290.500000, 8310.500000
3045, 5900632.000000, 1775.000000, 8262.000000, 8305.000000, 8331.000000
3046, 5900792.000000, 1821.375000, 8271.000000, 8317.500000, 8345.500000
3047, 5900952.000000, 1821.625000, 8262.500000, 8316.000000, 8341.000000
3048, 5901112.000000, 1780.750000, 8244.500000, 8297.000000, 8314.000000
3049, 5901272.000000, 1710.625000, 8216.000000, 8254.000000, 8261.000000
3050, 5901432.000000, 1622.500000, 8177.500000, 8201.000000, 8193.500000
3051, 5901592.000000, 1532.875000, 8150.500000, 8171.000000, 8155.500000
3052, 5901752.000000, 1452.750000, 8142.500000, 8162.500000, 8144.000000
3053, 5901912.000000, 1382.625000, 8148.000000, 8163.000000, 8146.000000
3054, 5902072.000000, 1327.500000, 8156.000000, 8163.000000, 8150.000000
3055, 5902232.000000, 1285.750000, 8160.000000, 8164.000000, 8152.000000
3056, 5902392.000000, 1256.250000, 8161.000000, 8164.000000, 8152.500000
3057, 5902552.000000, 1234.000000, 8162.000000, 8165.000000, 8154.000000
3058, 5902712.000000, 1214.000000, 8159.500000, 8163.500000, 8150.000000
3059, 5902872.000000, 1188.125000, 8159.000000, 8162.500000, 8147.500000
3060, 5903032.000000, 1150.875000, 8157.500000, 8161.000000, 8146.500000
3061, 5903192.000000, 1142.875000, 8155.000000, 8161.500000, 8146.000000
3062, 5903352.000000, 1238.125000, 8158.000000, 8163.500000, 8150.500000
3063, 5903512.000000, 1544.000000, 8166.000000, 8175.000000, 8171.000000
3064, 5903672.000000, 1992.250000, 8171.500000, 8175.500000, 8179.500000
3065, 5903832.000000, 2439.125000, 8172.000000, 8165.000000, 8165.000000
3066, 5903992.000000, 2740.250000, 8165.500000, 8159.500000, 8147.500000
3067, 5904152.000000, 2863.000000, 8158.000000, 8154.000000, 8136.500000
3068, 5904312.000000, 2826.875000, 8163.000000, 8171.000000, 8147.000000
3069, 5904472.000000, 2680.875000, 8316.500000, 8273.000000, 8326.000000
3070, 5904632.000000, 2475.000000, 8418.000000, 7603.500000, 7755.500000
3071, 5904792.000000, 2238.250000, 7996.000000, 7858.500000, 7748.000000
3072, 5904952.000000, 1992.250000, 8179.500000, 8169.500000, 8160.500000
3073, 5905112.000000, 1768.875000, 8188.500000, 8189.500000, 8184.500000
3074, 5905272.000000, 1626.375000, 8199.500000, 8196.000000, 8197.000000
3075, 5905432.000000, 1583.125000, 8208.000000, 8200.500000, 8204.500000
3076, 5905592.000000, 1618.375000, 8219.000000, 8208.500000, 8218.500000
3077, 5905752.000000, 1686.875000, 8235.000000, 8221.000000, 8238.500000
3078, 5905912.000000, 1754.000000, 8253.000000, 8238.500000, 8264.000000
3079, 5906072.000000, 1787.250000, 8270.000000, 8256.500000, 8287.500000
3080, 5906232.000000, 1780.250000, 8275.000000, 8266.500000, 8298.500000
3081, 5906392.000000, 1729.875000, 8266.000000, 8264.500000, 8292.500000
3082, 5906552.000000, 1653.125000, 8245.000000, 8241.500000, 8261.500000
3083, 5906712.000000, 1547.500000, 8211.000000, 8191.000000, 8196.500000
3084, 5906872.000000, 1444.375000, 8178.000000, 8139.000000, 8133.000000
3085, 5907032.000000, 1367.250000, 8149.500000, 8115.500000, 8098.500000
3086, 5907192.000000, 1298.500000, 8145.000000, 8112.500000, 8093.500000
3087, 5907352.000000, 1242.875000, 8150.500000, 8117.000000, 8101.500000
3088, 5907512.000000, 1215.500000, 8158.000000, 8121.000000, 8109.500000
3089, 5907672.000000, 1201.500000, 8162.000000, 8122.500000, 8111.500000
3090, 5907832.000000, 1189.500000, 8162.500000, 8123.000000, 8111.500000
3091, 5907992.000000, 1168.500000, 8161.500000, 8124.500000, 8112.500000
3092, 5908152.000000, 1134.750000, 8159.500000, 8125.500000, 8113.000000
3093, 5908312.000000, 1138.000000, 8158.500000, 8126.000000, 8111.000000
3094, 5908472.000000, 1277.125000, 8159.000000, 8126.000000, 8113.000000
3095, 5908632.000000, 1654.250000, 8156.000000, 8127.000000, 8112.000000
3096, 5908792.000000, 2165.750000, 8157.500000, 8133.000000, 8119.500000
3097, 5908952.000000, 2637.500000, 8164.500000, 8144.500000, 8140.500000
3098, 5909112.000000, 2931.000000, 8175.000000, 8150.500000, 8160.000000
3099, 5909272.000000, 3031.250000, 8176.500000, 8144.000000, 8145.500000
3100, 5909432.000000, 2969.125000, 8166.000000, 8136.500000, 8123.500000
3101, 5909592.000000, 2807.375000, 8158.500000, 8134.500000, 8116.500000
3102, 5909752.000000, 2597.000000, 8164.500000, 8172.500000, 8145.500000
3103, 5909912.000000, 2370.875000, 8380.000000, 8203.500000, 8286.000000
3104, 5910072.000000, 2143.250000, 8370.500000, 7551.500000, 7677.500000
3105, 5910232.000000, 1937.375000, 8031.500000, 7924.500000, 7824.000000
3106, 5910392.000000, 1798.500000, 8180.500000, 8207.000000, 8197.500000
3107, 5910552.000000, 1742.125000, 8188.000000, 8234.000000, 8230.500000
3108, 5910712.000000, 1753.625000, 8197.500000, 8244.500000, 8244.000000
3109, 5910872.000000, 1796.125000, 8210.000000, 8251.000000, 8255.000000
3110, 5911032.000000, 1839.125000, 8222.000000, 8259.500000, 8268.500000
3111, 5911192.000000, 1852.625000, 8235.500000, 8269.500000, 8286.500000
3112, 5911352.000000, 1830.875000, 8253.000000, 8285.500000, 8309.000000
3113, 5911512.000000, 1770.750000, 8273.500000, 8302.000000, 8332.000000
3114, 5911672.000000, 1686.500000, 8278.500000, 8306.500000, 8337.000000
3115, 5911832.000000, 1592.750000, 8266.000000, 8301.000000, 8325.500000
3116, 5911992.000000, 1499.625000, 8242.000000, 8276.000000, 8292.500000
3117, 5912152.000000, 1417.375000, 8204.000000, 8227.000000, 8230.000000
3118, 5912312.000000, 1344.375000, 8169.000000, 8181.500000, 8171.500000
3119, 5912472.000000, 1291.875000, 8146.500000, 8161.000000, 8142.000000
3120, 5912632.000000, 1249.875000, 8143.000000, 8158.000000, 8138.500000
3121, 5912792.000000, 1217.875000, 8147.500000, 8160.000000, 8143.500000
3122, 5912952.000000, 1195.000000, 8154.000000, 8163.500000, 8150.500000
3123, 5913112.000000, 1181.125000, 8159.000000, 8164.000000, 8151.500000
3124, 5913272.000000, 1166.750000, 8161.500000, 8163.500000, 8151.500000
3125, 5913432.000000, 1139.750000, 8159.000000, 8164.000000, 8151.000000
3126, 5913592.000000, 1102.875000, 8156.000000, 8165.500000, 8152.500000
3127, 5913752.000000, 1098.625000, 8154.000000, 8169.500000, 8155.500000
3128, 5913912.000000, 1221.750000, 8155.000000, 8171.500000, 8156.500000
3129, 5914072.000000, 1563.125000, 8154.500000, 8172.500000, 8157.000000
3130, 5914232.000000, 2053.375000, 8153.500000, 8174.000000, 8158.500000
3131, 5914392.000000, 2519.750000, 8160.500000, 8186.000000, 8178.500000
3132, 5914552.000000, 2828.625000, 8163.000000, 8195.000000, 8191.000000
3133, 5914712.000000, 2939.875000, 8170.000000, 8187.500000, 8189.000000
3134, 5914872.000000, 2896.625000, 8170.500000, 8182.000000, 8174.000000
3135, 5915032.000000, 2741.250000, 8158.000000, 8175.000000, 8158.000000
3136, 5915192.000000, 2538.750000, 8159.500000, 8181.000000, 8162.500000
3137, 5915352.000000, 2318.625000, 8228.500000, 8337.500000, 8352.000000
3138, 5915512.000000, 2094.250000, 8523.500000, 7907.000000, 8088.000000
3139, 5915672.000000, 1887.375000, 7967.500000, 7887.500000, 7793.000000
3140, 5915832.000000, 1743.875000, 8158.500000, 8225.000000, 8195.000000
3141, 5915992.000000, 1685.375000, 8179.500000, 8295.500000, 8287.500000
3142, 5916152.000000, 1692.625000, 8187.000000, 8312.000000, 8308.000000
3143, 5916312.000000, 1735.500000, 8197.500000, 8319.000000, 8318.500000
3144, 5916472.000000, 1780.125000, 8212.000000, 8324.000000, 8330.000000
3145, 5916632.000000, 1800.000000, 8227.000000, 8331.500000, 8345.500000
3146, 5916792.000000, 1781.625000, 8241.000000, 8344.000000, 8363.500000
3147, 5916952.000000, 1727.500000, 8260.000000, 8360.000000, 8386.500000
3148, 5917112.000000, 1648.250000, 8273.000000, 8371.500000, 8402.500000
3149, 5917272.000000, 1559.500000, 8268.000000, 8369.000000, 8396.500000
3150, 5917432.000000, 1471.375000, 8247.500000, 8351.000000, 8372.000000
3151, 5917592.000000, 1391.125000, 8216.000000, 8314.000000, 8324.000000
3152, 5917752.000000, 1326.000000, 8186.000000, 8271.500000, 8276.500000
3153, 5917912.000000, 1275.625000, 8161.000000, 8243.000000, 8241.500000
3154, 5918072.000000, 1238.625000, 8152.000000, 8232.000000, 8227.000000
3155, 5918232.000000, 1211.625000, 8156.000000, 8230.000000, 8227.500000
3156, 5918392.000000, 1190.875000, 8162.500000, 8229.000000, 8228.500000
3157, 5918552.000000, 1180.125000, 8167.000000, 8230.000000, 8232.000000
3158, 5918712.000000, 1167.625000, 8170.000000, 8227.500000, 8230.000000
3159, 5918872.000000, 1152.000000, 8167.000000, 8223.500000, 8223.500000
3160, 5919032.000000, 1123.750000, 8165.500000, 8220.500000, 8219.000000
3161, 5919192.000000, 1090.625000, 8160.500000, 8218.000000, 8213.500000
3162, 5919352.000000, 1110.250000, 8159.500000, 8215.000000, 8209.500000
3163, 5919512.000000, 1277.250000, 8162.000000, 8213.500000, 8209.000000
3164, 5919672.000000, 1651.500000, 8163.500000, 8209.500000, 8204.000000
3165, 5919832.000000, 2124.375000, 8163.000000, 8208.000000, 8202.000000
3166, 5919992.000000, 2536.000000, 8168.500000, 8215.500000, 8217.000000
3167, 5920152.000000, 2769.000000, 8169.000000, 8218.500000, 8223.000000
3168, 5920312.000000, 2828.250000, 8174.500000, 8212.500000, 8220.500000
3169, 5920472.000000, 2742.000000, 8175.000000, 8208.000000, 8205.000000
3170, 5920632.000000, 2567.875000, 8162.500000, 8198.000000, 8185.500000
3171, 5920792.000000, 2350.125000, 8164.500000, 8199.500000, 8184.500000
3172, 5920952.000000, 2111.125000, 8231.000000, 8345.000000, 8362.000000
3173, 5921112.000000, 1874.625000, 8513.000000, 7896.000000, 8074.000000
3174, 5921272.000000, 1677.625000, 7969.500000, 7858.500000, 7764.500000
3175, 5921432.000000, 1575.125000, 8161.500000, 8193.500000, 8165.500000
3176, 5921592.000000, 1562.000000, 8183.000000, 8253.500000, 8247.000000
3177, 5921752.000000, 1612.125000, 8192.500000, 8265.500000, 8264.000000
3178, 5921912.000000, 1680.625000, 8201.500000, 8268.000000, 8271.000000
3179, 5922072.000000, 1734.875000, 8214.500000, 8269.000000, 8278.000000
3180, 5922232.000000, 1750.000000, 8227.000000, 8276.500000, 8292.500000
3181, 5922392.000000, 1717.750000, 8243.500000, 8289.000000, 8311.500000
3182, 5922552.000000, 1651.750000, 8260.000000, 8307.000000, 8335.500000
3183, 5922712.000000, 1566.125000, 8274.000000, 8320.000000, 8351.500000
3184, 5922872.000000, 1475.500000, 8269.500000, 8316.000000, 8345.500000
3185, 5923032.000000, 1389.625000, 8247.500000, 8296.500000, 8317.500000
3186, 5923192.000000, 1315.375000, 8217.000000, 8252.500000, 8263.000000
3187, 5923352.000000, 1254.125000, 8180.000000, 8201.000000, 8196.500000
3188, 5923512.000000, 1209.000000, 8153.500000, 8167.000000, 8152.500000
3189, 5923672.000000, 1177.250000, 8144.000000, 8152.500000, 8135.500000
3190, 5923832.000000, 1154.125000, 8145.500000, 8149.000000, 8132.500000
3191, 5923992.000000, 1135.750000, 8153.000000, 8147.500000, 8134.500000
3192, 5924152.000000, 1124.375000, 8155.500000, 8146.000000, 8134.000000
3193, 5924312.000000, 1116.500000, 8157.500000, 8144.000000, 8131.500000
3194, 5924472.000000, 1104.625000, 8157.000000, 8139.500000, 8125.500000
3195, 5924632.000000, 1080.125000, 8153.000000, 8133.500000, 8117.000000
3196, 5924792.000000, 1044.625000, 8151.000000, 8127.000000, 8111.000000
3197, 5924952.000000, 1070.625000, 8150.000000, 8121.500000, 8104.500000
3198, 5925112.000000, 1253.750000, 8151.000000, 8116.500000, 8098.500000
3199, 5925272.000000, 1664.500000, 8153.500000, 8111.500000, 8095.000000
3200, 5925432.000000, 2165.250000, 8153.000000, 8107.500000, 8090.500000
3201, 5925592.000000, 2589.875000, 8154.000000, 8105.000000, 8089.000000
3202, 5925752.000000, 2830.500000, 8156.500000, 8106.000000, 8091.500000
3203, 5925912.000000, 2885.000000, 8165.500000, 8116.500000, 8113.000000
3204, 5926072.000000, 2794.375000, 8174.500000, 8122.500000, 8130.000000
3205, 5926232.000000, 2612.500000, 8176.000000, 8115.000000, 8115.500000
3206, 5926392.000000, 2394.250000, 8164.500000, 8109.000000, 8097.000000
3207, 5926552.000000, 2158.375000, 8160.000000, 8108.500000, 8091.500000
3208, 5926712.000000, 1926.250000, 8164.500000, 8130.000000, 8106.000000
3209, 5926872.000000, 1731.000000, 8318.000000, 8231.000000, 8285.000000
3210, 5927032.000000, 1615.125000, 8424.500000, 7556.500000, 7711.500000
3211, 5927192.000000, 1588.250000, 8000.500000, 7841.000000, 7728.500000
3212, 5927352.000000, 1623.500000, 8184.000000, 8171.000000, 8163.000000
3213, 5927512.000000, 1679.875000, 8190.000000, 8201.500000, 8196.500000
3214, 5927672.000000, 1724.250000, 8199.000000, 8213.000000, 8212.500000
3215, 5927832.000000, 1734.500000, 8209.000000, 8219.000000, 8223.000000
3216, 5927992.000000, 1703.375000, 8219.500000, 8228.500000, 8238.000000
3217, 5928152.000000, 1639.750000, 8234.000000, 8241.000000, 8257.000000
3218, 5928312.000000, 1555.500000, 8253.000000, 8257.000000, 8281.500000
3219, 5928472.000000, 1465.500000, 8272.000000, 8275.500000, 8305.500000
3220, 5928632.000000, 1378.250000, 8281.000000, 8287.000000, 8319.500000
3221, 5928792.000000, 1300.500000, 8271.500000, 8287.500000, 8315.500000
3222, 5928952.000000, 1236.875000, 8251.000000, 8268.500000, 8289.000000
3223, 5929112.000000, 1185.625000, 8218.000000, 8219.000000, 8226.500000
3224, 5929272.000000, 1149.625000, 8179.000000, 8167.000000, 8158.500000
3225, 5929432.000000, 1122.625000, 8153.000000, 8140.500000, 8122.000000
3226, 5929592.000000, 1104.750000, 8143.500000, 8136.500000, 8114.500000
3227, 5929752.000000, 1093.875000, 8149.000000, 8139.000000, 8120.000000
3228, 5929912.000000, 1086.375000, 8157.500000, 8141.000000, 8126.500000
3229, 5930072.000000, 1081.250000, 8162.000000, 8144.000000, 8131.000000
3230, 5930232.000000, 1075.375000, 8161.500000, 8144.000000, 8129.000000
3231, 5930392.000000, 1057.875000, 8161.000000, 8146.500000, 8131.500000
3232, 5930552.000000, 1024.000000, 8160.500000, 8147.500000, 8132.000000
3233, 5930712.000000, 993.375000, 8159.500000, 8148.000000, 8132.500000
3234, 5930872.000000, 1074.625000, 8158.500000, 8147.500000, 8129.500000
3235, 5931032.000000, 1379.875000, 8158.500000, 8148.000000, 8131.000000
3236, 5931192.000000, 1900.000000, 8157.500000, 8151.500000, 8134.000000
3237, 5931352.000000, 2438.625000, 8159.000000, 8153.000000, 8138.000000
3238, 5931512.000000, 2837.625000, 8164.500000, 8157.500000, 8144.500000
3239, 5931672.000000, 3016.000000, 8171.000000, 8168.500000, 8163.500000
3240, 5931832.000000, 3015.250000, 8179.500000, 8174.500000, 8183.000000
3241, 5931992.000000, 2880.375000, 8180.000000, 8170.000000, 8170.000000
3242, 5932152.000000, 2681.500000, 8168.000000, 8162.000000, 8149.000000
3243, 5932312.000000, 2464.000000, 8168.500000, 8162.000000, 8146.500000
3244, 5932472.000000, 2241.250000, 8169.500000, 8200.000000, 8172.500000
3245, 5932632.000000, 2024.625000, 8396.500000, 8228.500000, 8316.500000
3246, 5932792.000000, 1844.000000, 8380.000000, 7601.500000, 7724.000000
3247, 5932952.000000, 1736.875000, 8039.000000, 7953.500000, 7855.000000
3248, 5933112.000000, 1701.500000, 8188.000000, 8229.000000, 8223.500000
3249, 5933272.000000, 1718.250000, 8193.500000, 8252.000000, 8248.500000
3250, 5933432.000000, 1752.375000, 8203.500000, 8260.500000, 8263.000000
3251, 5933592.000000, 1775.125000, 8212.000000, 8267.500000, 8273.000000
3252, 5933752.000000, 1770.750000, 8224.000000, 8275.500000, 8287.500000
3253, 5933912.000000, 1727.625000, 8241.500000, 8286.500000, 8305.500000
3254, 5934072.000000, 1656.000000, 8260.000000, 8299.500000, 8326.500000
3255, 5934232.000000, 1565.125000, 8278.000000, 8314.000000, 8346.500000
3256, 5934392.000000, 1469.750000, 8286.000000, 8321.500000, 8355.500000
3257, 5934552.000000, 1376.500000, 8276.500000, 8317.000000, 8347.500000
3258, 5934712.000000, 1292.875000, 8253.500000, 8293.000000, 8314.000000
3259, 5934872.000000, 1224.375000, 8216.000000, 8246.000000, 8252.000000
3260, 5935032.000000, 1171.375000, 8175.500000, 8198.000000, 8191.000000
3261, 5935192.000000, 1134.500000, 8147.000000, 8178.000000, 8159.500000
3262, 5935352.000000, 1107.250000, 8143.000000, 8174.500000, 8153.500000
3263, 5935512.000000, 1090.125000, 8150.000000, 8177.000000, 8160.500000
3264, 5935672.000000, 1079.500000, 8156.000000, 8176.500000, 8161.500000
3265, 5935832.000000, 1073.250000, 8160.000000, 8176.000000, 8161.000000
3266, 5935992.000000, 1066.375000, 8160.500000, 8176.500000, 8163.000000
3267, 5936152.000000, 1052.250000, 8158.000000, 8181.500000, 8168.500000
3268, 5936312.000000, 1021.750000, 8156.500000, 8183.000000, 8167.500000
3269, 5936472.000000, 989.750000, 8155.000000, 8185.000000, 8168.000000
3270, 5936632.000000, 1019.125000, 8154.000000, 8186.500000, 8169.500000
3271, 5936792.000000, 1247.250000, 8153.000000, 8190.500000, 8173.500000
3272, 5936952.000000, 1672.500000, 8155.500000, 8195.000000, 8179.000000
3273, 5937112.000000, 2187.125000, 8160.000000, 8204.500000, 8191.500000
3274, 5937272.000000, 2601.375000, 8166.500000, 8214.000000, 8206.500000
3275, 5937432.000000, 2832.625000, 8172.500000, 8227.500000, 8232.500000
3276, 5937592.000000, 2879.250000, 8173.500000, 8233.000000, 8229.000000
3277, 5937752.000000, 2782.750000, 8161.500000, 8242.500000, 8226.500000
3278, 5937912.000000, 2604.750000, 8162.000000, 8250.500000, 8234.000000
3279, 5938072.000000, 2389.250000, 8180.500000, 8341.500000, 8323.000000
3280, 5938232.000000, 2160.625000, 8517.000000, 8182.500000, 8332.000000
3281, 5938392.000000, 1931.000000, 8098.500000, 7846.000000, 7834.000000
3282, 5938552.000000, 1736.625000, 8096.000000, 8154.000000, 8082.500000
3283, 5938712.000000, 1615.875000, 8182.000000, 8312.000000, 8303.000000
3284, 5938872.000000, 1582.500000, 8191.500000, 8325.000000, 8321.000000
3285, 5939032.000000, 1609.125000, 8199.000000, 8327.500000, 8327.000000
3286, 5939192.000000, 1662.250000, 8210.000000, 8331.500000, 8337.500000
3287, 5939352.000000, 1703.500000, 8225.000000, 8337.500000, 8349.500000
3288, 5939512.000000, 1716.125000, 8242.000000, 8343.500000, 8363.000000
3289, 5939672.000000, 1688.250000, 8261.000000, 8354.000000, 8380.000000
3290, 5939832.000000, 1628.500000, 8276.000000, 8363.500000, 8394.500000
3291, 5939992.000000, 1546.875000, 8276.500000, 8364.500000, 8394.000000
3292, 5940152.000000, 1458.500000, 8261.500000, 8352.000000, 8376.500000
3293, 5940312.000000, 1370.625000, 8234.500000, 8317.500000, 8332.500000
3294, 5940472.000000, 1291.750000, 8196.000000, 8265.000000, 8265.500000
3295, 5940632.000000, 1225.375000, 8160.000000, 8224.500000, 8212.500000
3296, 5940792.000000, 1175.250000, 8141.000000, 8208.000000, 8189.500000
3297, 5940952.000000, 1139.500000, 8144.000000, 8204.000000, 8187.500000
3298, 5941112.000000, 1112.250000, 8150.000000, 8203.500000, 8189.000000
3299, 5941272.000000, 1095.125000, 8157.000000, 8202.500000, 8190.500000
3300, 5941432.000000, 1083.500000, 8160.000000, 8200.000000, 8190.000000
3301, 5941592.000000, 1075.500000, 8160.500000, 8198.000000, 8186.500000
3302, 5941752.000000, 1061.875000, 8157.500000, 8196.000000, 8183.500000
3303, 5941912.000000, 1034.125000, 8157.000000, 8192.500000, 8179.500000
3304, 5942072.000000, 1004.125000, 8155.000000, 8191.000000, 8176.000000
3305, 5942232.000000, 1024.125000, 8154.500000, 8188.500000, 8173.000000
3306, 5942392.000000, 1207.125000, 8154.500000, 8187.000000, 8171.500000
3307, 5942552.000000, 1581.875000, 8157.000000, 8186.000000, 8172.000000
3308, 5942712.000000, 2048.625000, 8165.500000, 8195.500000, 8191.000000
3309, 5942872.000000, 2435.375000, 8167.500000, 8197.500000, 8195.500000
3310, 5943032.000000, 2664.875000, 8171.000000, 8190.000000, 8192.000000
3311, 5943192.000000, 2714.250000, 8171.000000, 8185.500000, 8178.000000
3312, 5943352.000000, 2633.250000, 8159.000000, 8176.500000, 8159.500000
3313, 5943512.000000, 2462.000000, 8163.000000, 8175.500000, 8156.500000
3314, 5943672.000000, 2247.250000, 8225.500000, 8321.000000, 8330.500000
3315, 5943832.000000, 2010.625000, 8497.000000, 7825.000000, 7996.000000
3316, 5943992.000000, 1771.625000, 7960.000000, 7794.500000, 7689.000000
3317, 5944152.000000, 1576.125000, 8163.500000, 8164.000000, 8138.500000
3318, 5944312.000000, 1461.875000, 8184.000000, 8214.500000, 8206.500000
3319, 5944472.000000, 1446.375000, 8194.000000, 8219.000000, 8216.000000
3320, 5944632.000000, 1490.000000, 8201.000000, 8218.000000, 8219.000000
3321, 5944792.000000, 1556.750000, 8213.000000, 8218.500000, 8225.500000
3322, 5944952.000000, 1611.625000, 8229.000000, 8225.000000, 8240.500000
3323, 5945112.000000, 1632.625000, 8246.500000, 8236.500000, 8258.500000
3324, 5945272.000000, 1612.625000, 8266.500000, 8253.500000, 8283.000000
3325, 5945432.000000, 1558.500000, 8280.000000, 8267.500000, 8301.500000
3326, 5945592.000000, 1483.000000, 8275.500000, 8269.000000, 8300.500000
3327, 5945752.000000, 1396.500000, 8257.500000, 8253.500000, 8278.000000
3328, 5945912.000000, 1310.125000, 8226.000000, 8209.000000, 8220.500000
3329, 5946072.000000, 1233.125000, 8187.500000, 8151.500000, 8148.500000
3330, 5946232.000000, 1168.875000, 8155.000000, 8119.000000, 8102.500000
3331, 5946392.000000, 1119.250000, 8143.500000, 8110.500000, 8090.500000
3332, 5946552.000000, 1081.625000, 8145.000000, 8112.500000, 8093.500000
3333, 5946712.000000, 1054.625000, 8152.000000, 8115.500000, 8100.000000
3334, 5946872.000000, 1036.750000, 8158.000000, 8117.000000, 8102.000000
3335, 5947032.000000, 1028.250000, 8159.000000, 8118.000000, 8103.500000
3336, 5947192.000000, 1022.375000, 8158.000000, 8119.000000, 8105.500000
3337, 5947352.000000, 1006.250000, 8157.000000, 8120.500000, 8106.500000
3338, 5947512.000000, 975.750000, 8154.500000, 8123.500000, 8107.000000
3339, 5947672.000000, 961.250000, 8154.500000, 8124.500000, 8107.000000
3340, 5947832.000000, 1060.125000, 8153.500000, 8126.500000, 8109.000000
3341, 5947992.000000, 1383.750000, 8153.500000, 8130.500000, 8114.000000
3342, 5948152.000000, 1878.625000, 8155.500000, 8137.000000, 8123.000000
3343, 5948312.000000, 2370.625000, 8164.500000, 8150.500000, 8145.500000
3344, 5948472.000000, 2716.625000, 8174.000000, 8154.500000, 8161.500000
3345, 5948632.000000, 2865.500000, 8174.500000, 8148.000000, 8145.500000
3346, 5948792.000000, 2843.750000, 8161.000000, 8140.000000, 8124.500000
3347, 5948952.000000, 2703.875000, 8159.500000, 8136.000000, 8118.500000
3348, 5949112.000000, 2499.750000, 8166.500000, 8198.000000, 8169.500000
3349, 5949272.000000, 2273.125000, 8426.000000, 8112.500000, 8223.500000
3350, 5949432.000000, 2038.875000, 8247.000000, 7542.500000, 7602.500000
3351, 5949592.000000, 1817.625000, 8068.500000, 7984.500000, 7902.500000
3352, 5949752.000000, 1648.875000, 8181.000000, 8210.000000, 8202.000000
3353, 5949912.000000, 1565.750000, 8191.000000, 8233.000000, 8229.500000
3354, 5950072.000000, 1563.000000, 8199.500000, 8240.000000, 8241.000000
3355, 5950232.000000, 1605.250000, 8208.500000, 8246.500000, 8251.500000
3356, 5950392.000000, 1659.375000, 8221.000000, 8255.500000, 8267.000000
3357, 5950552.000000, 1696.375000, 8237.500000, 8268.000000, 8287.000000
3358, 5950712.000000, 1701.500000, 8257.000000, 8284.000000, 8309.500000
3359, 5950872.000000, 1662.750000, 8277.000000, 8301.500000, 8335.000000
3360, 5951032.000000, 1596.750000, 8283.500000, 8309.000000, 8344.000000
3361, 5951192.000000, 1513.500000, 8271.000000, 8303.500000, 8333.000000
3362, 5951352.000000, 1424.375000, 8247.500000, 8275.000000, 8295.000000
3363, 5951512.000000, 1339.000000, 8209.000000, 8219.000000, 8223.500000
3364, 5951672.000000, 1264.500000, 8172.000000, 8172.000000, 8161.000000
3365, 5951832.000000, 1202.750000, 8148.000000, 8152.500000, 8133.500000
3366, 5951992.000000, 1153.250000, 8145.500000, 8151.000000, 8131.500000
3367, 5952152.000000, 1116.500000, 8150.000000, 8155.500000, 8140.500000
3368, 5952312.000000, 1092.000000, 8156.000000, 8156.500000, 8142.000000
3369, 5952472.000000, 1078.125000, 8160.000000, 8156.500000, 8142.500000
3370, 5952632.000000, 1067.500000, 8159.000000, 8155.000000, 8140.500000
3371, 5952792.000000, 1056.750000, 8157.000000, 8155.500000, 8140.500000
3372, 5952952.000000, 1033.500000, 8157.000000, 8157.000000, 8141.000000
3373, 5953112.000000, 1001.000000, 8157.000000, 8156.500000, 8139.500000
3374, 5953272.000000, 1021.750000, 8159.000000, 8157.500000, 8140.500000
3375, 5953432.000000, 1237.125000, 8158.500000, 8158.000000, 8141.000000
3376, 5953592.000000, 1664.125000, 8157.500000, 8159.500000, 8142.000000
3377, 5953752.000000, 2196.875000, 8163.000000, 8170.000000, 8160.000000
3378, 5953912.000000, 2638.875000, 8168.500000, 8176.000000, 8170.000000
3379, 5954072.000000, 2894.250000, 8175.000000, 8174.500000, 8177.000000
3380, 5954232.000000, 2954.750000, 8174.500000, 8172.500000, 8166.000000
3381, 5954392.000000, 2862.750000, 8163.500000, 8167.000000, 8150.500000
3382, 5954552.000000, 2681.125000, 8164.000000, 8169.500000, 8150.500000
3383, 5954712.000000, 2458.875000, 8188.000000, 8286.500000, 8271.500000
3384, 5954872.000000, 2226.750000, 8533.500000, 7969.500000, 8137.500000
3385, 5955032.000000, 1993.875000, 8013.000000, 7739.500000, 7676.500000
3386, 5955192.000000, 1788.375000, 8141.000000, 8138.000000, 8092.500000
3387, 5955352.000000, 1650.500000, 8184.500000, 8245.500000, 8238.000000
3388, 5955512.000000, 1594.500000, 8192.000000, 8261.000000, 8257.500000
3389, 5955672.000000, 1607.250000, 8201.500000, 8266.000000, 8267.500000
3390, 5955832.000000, 1651.500000, 8212.500000, 8273.000000, 8279.500000
3391, 5955992.000000, 1696.625000, 8226.000000, 8281.500000, 8295.000000
3392, 5956152.000000, 1718.625000, 8241.500000, 8293.000000, 8313.000000
3393, 5956312.000000, 1702.750000, 8262.000000, 8307.500000, 8335.000000
3394, 5956472.000000, 1651.125000, 8277.000000, 8319.000000, 8349.000000
3395, 5956632.000000, 1576.625000, 8275.500000, 8317.500000, 8347.000000
3396, 5956792.000000, 1490.375000, 8258.500000, 8306.500000, 8329.500000
3397, 5956952.000000, 1402.250000, 8233.000000, 8273.500000, 8288.000000
3398, 5957112.000000, 1320.875000, 8194.500000, 8224.000000, 8223.500000
3399, 5957272.000000, 1250.250000, 8159.500000, 8188.500000, 8175.000000
3400, 5957432.000000, 1193.500000, 8145.500000, 8177.000000, 8158.500000
3401, 5957592.000000, 1150.125000, 8146.500000, 8179.500000, 8163.500000
3402, 5957752.000000, 1120.375000, 8153.500000, 8184.500000, 8171.000000
3403, 5957912.000000, 1099.750000, 8157.000000, 8189.000000, 8176.000000
3404, 5958072.000000, 1088.375000, 8162.000000, 8192.500000, 8181.500000
3405, 5958232.000000, 1082.875000, 8162.000000, 8199.500000, 8188.500000
3406, 5958392.000000, 1072.750000, 8156.500000, 8211.000000, 8196.500000
3407, 5958552.000000, 1048.500000, 8154.500000, 8222.000000, 8206.500000
3408, 5958712.000000, 1018.250000, 8155.500000, 8230.500000, 8215.500000
3409, 5958872.000000, 1039.250000, 8155.000000, 8242.500000, 8225.500000
3410, 5959032.000000, 1236.125000, 8156.500000, 8250.500000, 8235.000000
3411, 5959192.000000, 1641.250000, 8162.000000, 8262.500000, 8256.000000
