1497, 12343504.000000, 1276.250000, 8141.000000, 8165.000000, 8146.000000
1498, 12343664.000000, 1230.500000, 8148.000000, 8167.000000, 8151.000000
1499, 12343824.000000, 1203.000000, 8149.000000, 8168.000000, 8153.000000
1500, 12343984.000000, 1182.250000, 8150.000000, 8169.000000, 8154.000000
1501, 12344144.000000, 1153.750000, 8152.000000, 8168.000000, 8153.000000
1502, 12344304.000000, 1127.500000, 8152.000000, 8164.000000, 8147.000000
1503, 12344464.000000, 1173.000000, 8151.000000, 8163.000000, 8147.000000
1504, 12344624.000000, 1378.500000, 8147.000000, 8164.000000, 8147.000000
1505, 12344784.000000, 1772.000000, 8150.000000, 8166.000000, 8149.000000
1506, 12344944.000000, 2247.750000, 8154.000000, 8167.000000, 8151.000000
1507, 12345104.000000, 2663.000000, 8163.000000, 8175.000000, 8167.000000
1508, 12345264.000000, 2916.250000, 8165.000000, 8180.000000, 8177.000000
1509, 12345424.000000, 2995.250000, 8168.000000, 8174.000000, 8175.000000
1510, 12345584.000000, 2937.750000, 8168.000000, 8172.000000, 8165.000000
1511, 12345744.000000, 2799.000000, 8161.000000, 8165.000000, 8150.000000
1512, 12345904.000000, 2630.000000, 8161.000000, 8165.000000, 8148.000000
1513, 12346064.000000, 2441.500000, 8200.000000, 8289.000000, 8284.000000
1514, 12346224.000000, 2244.000000, 8493.000000, 7946.000000, 8100.000000
1515, 12346384.000000, 2060.250000, 7993.000000, 7743.000000, 7668.000000
1516, 12346544.000000, 1926.250000, 8148.000000, 8146.000000, 8108.000000
1517, 12346704.000000, 1854.500000, 8186.000000, 8236.000000, 8231.000000
1518, 12346864.000000, 1833.750000, 8193.000000, 8251.000000, 8251.000000
1519, 12347024.000000, 1841.500000, 8201.000000, 8258.000000, 8261.000000
1520, 12347184.000000, 1852.500000, 8214.000000, 8268.000000, 8276.000000
1521, 12347344.000000, 1843.250000, 8230.000000, 8277.000000, 8291.000000
1522, 12347504.000000, 1805.000000, 8251.000000, 8289.000000, 8313.000000
1523, 12347664.000000, 1742.250000, 8268.000000, 8308.000000, 8338.000000
1524, 12347824.000000, 1663.250000, 8285.000000, 8320.000000, 8357.000000
1525, 12347984.000000, 1579.250000, 8282.000000, 8319.000000, 8352.000000
1526, 12348144.000000, 1494.250000, 8267.000000, 8300.000000, 8327.000000
1527, 12348304.000000, 1416.750000, 8222.000000, 8251.000000, 8260.000000
1528, 12348464.000000, 1349.250000, 8175.000000, 8199.000000, 8191.000000
1529, 12348624.000000, 1296.500000, 8143.000000, 8173.000000, 8154.000000
1530, 12348784.000000, 1254.000000, 8136.000000, 8167.000000, 8145.000000
1531, 12348944.000000, 1220.250000, 8140.000000, 8166.000000, 8145.000000
1532, 12349104.000000, 1196.000000, 8146.000000, 8166.000000, 8147.000000
1533, 12349264.000000, 1181.750000, 8149.000000, 8167.000000, 8150.000000
1534, 12349424.000000, 1168.250000, 8152.000000, 8168.000000, 8153.000000
1535, 12349584.000000, 1150.500000, 8153.000000, 8168.000000, 8153.000000
1536, 12349744.000000, 1119.500000, 8156.000000, 8168.000000, 8153.000000
1537, 12349904.000000, 1096.000000, 8157.000000, 8166.000000, 8150.000000
1538, 12350064.000000, 1172.750000, 8153.000000, 8165.000000, 8148.000000
1539, 12350224.000000, 1442.000000, 8153.000000, 8167.000000, 8150.000000
1540, 12350384.000000, 1924.750000, 8153.000000, 8168.000000, 8151.000000
1541, 12350544.000000, 2467.000000, 8155.000000, 8169.000000, 8152.000000
1542, 12350704.000000, 2920.500000, 8157.000000, 8170.000000, 8152.000000
1543, 12350864.000000, 3176.750000, 8158.000000, 8170.000000, 8153.000000
1544, 12351024.000000, 3250.000000, 8158.000000, 8171.000000, 8154.000000
1545, 12351184.000000, 3183.250000, 8158.000000, 8175.000000, 8158.000000
1546, 12351344.000000, 3047.000000, 8164.000000, 8178.000000, 8165.000000
1547, 12351504.000000, 2885.000000, 8170.000000, 8185.000000, 8178.000000
1548, 12351664.000000, 2694.000000, 8177.000000, 8188.000000, 8193.000000
1549, 12351824.000000, 2481.500000, 8176.000000, 8182.000000, 8177.000000
1550, 12351984.000000, 2276.250000, 8167.000000, 8175.000000, 8160.000000
1551, 12352144.000000, 2121.500000, 8168.000000, 8172.000000, 8155.000000
1552, 12352304.000000, 2024.000000, 8177.000000, 8227.000000, 8202.000000
1553, 12352464.000000, 1980.000000, 8422.000000, 8156.000000, 8258.000000
1554, 12352624.000000, 1968.250000, 8302.000000, 7582.000000, 7660.000000
1555, 12352784.000000, 1966.250000, 8067.000000, 8004.000000, 7920.000000
1556, 12352944.000000, 1949.500000, 8187.000000, 8240.000000, 8234.000000
1557, 12353104.000000, 1904.750000, 8196.000000, 8263.000000, 8261.000000
1558, 12353264.000000, 1831.250000, 8203.000000, 8272.000000, 8274.000000
1559, 12353424.000000, 1740.250000, 8214.000000, 8281.000000, 8287.000000
1560, 12353584.000000, 1642.000000, 8226.000000, 8289.000000, 8301.000000
1561, 12353744.000000, 1547.000000, 8247.000000, 8299.000000, 8319.000000
1562, 12353904.000000, 1461.250000, 8266.000000, 8314.000000, 8342.000000
1563, 12354064.000000, 1386.500000, 8286.000000, 8330.000000, 8366.000000
1564, 12354224.000000, 1326.500000, 8294.000000, 8335.000000, 8374.000000
1565, 12354384.000000, 1278.750000, 8285.000000, 8325.000000, 8360.000000
1566, 12354544.000000, 1240.250000, 8254.000000, 8285.000000, 8307.000000
1567, 12354704.000000, 1212.750000, 8205.000000, 8227.000000, 8229.000000
1568, 12354864.000000, 1188.500000, 8162.000000, 8186.000000, 8173.000000
1569, 12355024.000000, 1168.000000, 8144.000000, 8170.000000, 8151.000000
1570, 12355184.000000, 1148.000000, 8142.000000, 8167.000000, 8147.000000
1571, 12355344.000000, 1131.750000, 8148.000000, 8168.000000, 8150.000000
1572, 12355504.000000, 1120.000000, 8151.000000, 8167.000000, 8151.000000
1573, 12355664.000000, 1108.500000, 8154.000000, 8167.000000, 8153.000000
1574, 12355824.000000, 1092.000000, 8155.000000, 8168.000000, 8155.000000
1575, 12355984.000000, 1062.250000, 8158.000000, 8169.000000, 8156.000000
1576, 12356144.000000, 1024.500000, 8161.000000, 8169.000000, 8156.000000
1577, 12356304.000000, 1025.750000, 8159.000000, 8168.000000, 8153.000000
1578, 12356464.000000, 1203.750000, 8157.000000, 8166.000000, 8152.000000
1579, 12356624.000000, 1614.500000, 8155.000000, 8167.000000, 8152.000000
1580, 12356784.000000, 2198.250000, 8156.000000, 8168.000000, 8153.000000
1581, 12356944.000000, 2760.750000, 8161.000000, 8168.000000, 8153.000000
1582, 12357104.000000, 3163.250000, 8161.000000, 8167.000000, 8152.000000
1583, 12357264.000000, 3342.750000, 8161.000000, 8168.000000, 8153.000000
1584, 12357424.000000, 3345.750000, 8161.000000, 8169.000000, 8156.000000
1585, 12357584.000000, 3235.500000, 8163.000000, 8171.000000, 8159.000000
1586, 12357744.000000, 3077.000000, 8167.000000, 8171.000000, 8160.000000
1587, 12357904.000000, 2896.000000, 8166.000000, 8171.000000, 8159.000000
1588, 12358064.000000, 2686.750000, 8167.000000, 8172.000000, 8161.000000
1589, 12358224.000000, 2465.500000, 8174.000000, 8182.000000, 8183.000000
1590, 12358384.000000, 2265.250000, 8178.000000, 8188.000000, 8194.000000
1591, 12358544.000000, 2122.500000, 8186.000000, 8183.000000, 8186.000000
1592, 12358704.000000, 2042.500000, 8179.000000, 8175.000000, 8170.000000
1593, 12358864.000000, 2011.750000, 8170.000000, 8170.000000, 8159.000000
1594, 12359024.000000, 2005.250000, 8172.000000, 8175.000000, 8163.000000
1595, 12359184.000000, 1998.000000, 8239.000000, 8333.000000, 8351.000000
1596, 12359344.000000, 1970.500000, 8503.000000, 7722.000000, 7900.000000
1597, 12359504.000000, 1914.750000, 7974.000000, 7781.000000, 7673.000000
1598, 12359664.000000, 1834.750000, 8181.000000, 8208.000000, 8200.000000
1599, 12359824.000000, 1739.500000, 8191.000000, 8258.000000, 8260.000000
1600, 12359984.000000, 1642.000000, 8199.000000, 8271.000000, 8275.000000
1601, 12360144.000000, 1547.000000, 8213.000000, 8277.000000, 8286.000000
1602, 12360304.000000, 1460.250000, 8224.000000, 8282.000000, 8296.000000
1603, 12360464.000000, 1385.000000, 8238.000000, 8291.000000, 8311.000000
1604, 12360624.000000, 1322.500000, 8255.000000, 8305.000000, 8334.000000
1605, 12360784.000000, 1275.000000, 8279.000000, 8322.000000, 8359.000000
1606, 12360944.000000, 1236.750000, 8296.000000, 8332.000000, 8374.000000
1607, 12361104.000000, 1208.500000, 8293.000000, 8330.000000, 8370.000000
1608, 12361264.000000, 1184.250000, 8272.000000, 8308.000000, 8340.000000
1609, 12361424.000000, 1163.000000, 8229.000000, 8259.000000, 8275.000000
1610, 12361584.000000, 1143.000000, 8182.000000, 8203.000000, 8200.000000
1611, 12361744.000000, 1122.750000, 8150.000000, 8172.000000, 8157.000000
1612, 12361904.000000, 1101.750000, 8141.000000, 8163.000000, 8144.000000
1613, 12362064.000000, 1082.250000, 8140.000000, 8164.000000, 8145.000000
1614, 12362224.000000, 1068.250000, 8143.000000, 8165.000000, 8148.000000
1615, 12362384.000000, 1054.500000, 8150.000000, 8167.000000, 8154.000000
1616, 12362544.000000, 1035.250000, 8155.000000, 8167.000000, 8154.000000
1617, 12362704.000000, 1011.750000, 8157.000000, 8165.000000, 8153.000000
1618, 12362864.000000, 975.750000, 8155.000000, 8167.000000, 8154.000000
1619, 12363024.000000, 941.250000, 8154.000000, 8167.000000, 8153.000000
1620, 12363184.000000, 972.500000, 8155.000000, 8167.000000, 8152.000000
1621, 12363344.000000, 1187.500000, 8155.000000, 8167.000000, 8150.000000
1622, 12363504.000000, 1634.000000, 8157.000000, 8166.000000, 8150.000000
1623, 12363664.000000, 2219.000000, 8154.000000, 8167.000000, 8151.000000
1624, 12363824.000000, 2758.250000, 8155.000000, 8168.000000, 8153.000000
1625, 12363984.000000, 3125.000000, 8159.000000, 8170.000000, 8157.000000
1626, 12364144.000000, 3271.000000, 8162.000000, 8171.000000, 8158.000000
1627, 12364304.000000, 3244.250000, 8164.000000, 8170.000000, 8157.000000
1628, 12364464.000000, 3108.750000, 8165.000000, 8171.000000, 8160.000000
1629, 12364624.000000, 2931.000000, 8165.000000, 8172.000000, 8161.000000
1630, 12364784.000000, 2736.250000, 8169.000000, 8174.000000, 8164.000000
1631, 12364944.000000, 2521.250000, 8172.000000, 8177.000000, 8167.000000
1632, 12365104.000000, 2309.250000, 8177.000000, 8184.000000, 8183.000000
1633, 12365264.000000, 2131.500000, 8185.000000, 8189.000000, 8195.000000
1634, 12365424.000000, 2015.750000, 8183.000000, 8182.000000, 8181.000000
1635, 12365584.000000, 1960.000000, 8173.000000, 8173.000000, 8162.000000
1636, 12365744.000000, 1941.750000, 8174.000000, 8170.000000, 8157.000000
1637, 12365904.000000, 1943.250000, 8178.000000, 8215.000000, 8193.000000
1638, 12366064.000000, 1940.000000, 8409.000000, 8185.000000, 8281.000000
1639, 12366224.000000, 1910.750000, 8334.000000, 7566.000000, 7666.000000
1640, 12366384.000000, 1854.000000, 8057.000000, 7983.000000, 7896.000000
1641, 12366544.000000, 1774.500000, 8192.000000, 8240.000000, 8237.000000
1642, 12366704.000000, 1685.250000, 8198.000000, 8263.000000, 8264.000000
1643, 12366864.000000, 1590.750000, 8206.000000, 8272.000000, 8278.000000
1644, 12367024.000000, 1501.500000, 8215.000000, 8279.000000, 8289.000000
1645, 12367184.000000, 1422.500000, 8228.000000, 8286.000000, 8301.000000
1646, 12367344.000000, 1353.250000, 8246.000000, 8294.000000, 8317.000000
1647, 12367504.000000, 1299.000000, 8265.000000, 8309.000000, 8341.000000
1648, 12367664.000000, 1255.750000, 8284.000000, 8327.000000, 8367.000000
1649, 12367824.000000, 1221.000000, 8295.000000, 8336.000000, 8380.000000
1650, 12367984.000000, 1195.250000, 8285.000000, 8328.000000, 8367.000000
1651, 12368144.000000, 1175.000000, 8258.000000, 8290.000000, 8317.000000
1652, 12368304.000000, 1155.000000, 8210.000000, 8229.000000, 8238.000000
1653, 12368464.000000, 1136.250000, 8164.000000, 8181.000000, 8172.000000
1654, 12368624.000000, 1118.750000, 8141.000000, 8161.000000, 8142.000000
1655, 12368784.000000, 1102.000000, 8136.000000, 8157.000000, 8135.000000
1656, 12368944.000000, 1084.500000, 8141.000000, 8158.000000, 8139.000000
1657, 12369104.000000, 1067.500000, 8148.000000, 8161.000000, 8145.000000
1658, 12369264.000000, 1052.500000, 8151.000000, 8163.000000, 8149.000000
1659, 12369424.000000, 1035.250000, 8154.000000, 8166.000000, 8152.000000
1660, 12369584.000000, 1014.250000, 8157.000000, 8166.000000, 8154.000000
1661, 12369744.000000, 982.250000, 8158.000000, 8164.000000, 8151.000000
1662, 12369904.000000, 948.000000, 8155.000000, 8163.000000, 8148.000000
1663, 12370064.000000, 961.250000, 8151.000000, 8163.000000, 8147.000000
1664, 12370224.000000, 1123.750000, 8151.000000, 8164.000000, 8148.000000
1665, 12370384.000000, 1512.250000, 8154.000000, 8165.000000, 8149.000000
1666, 12370544.000000, 2050.000000, 8156.000000, 8165.000000, 8150.000000
1667, 12370704.000000, 2567.000000, 8159.000000, 8165.000000, 8152.000000
1668, 12370864.000000, 2927.000000, 8157.000000, 8167.000000, 8153.000000
1669, 12371024.000000, 3087.500000, 8159.000000, 8169.000000, 8156.000000
1670, 12371184.000000, 3073.250000, 8162.000000, 8171.000000, 8160.000000
1671, 12371344.000000, 2941.250000, 8167.000000, 8170.000000, 8159.000000
1672, 12371504.000000, 2757.000000, 8167.000000, 8171.000000, 8160.000000
1673, 12371664.000000, 2547.250000, 8168.000000, 8173.000000, 8164.000000
1674, 12371824.000000, 2326.250000, 8173.000000, 8185.000000, 8185.000000
1675, 12371984.000000, 2114.500000, 8180.000000, 8188.000000, 8193.000000
1676, 12372144.000000, 1951.250000, 8188.000000, 8183.000000, 8185.000000
1677, 12372304.000000, 1853.750000, 8175.000000, 8174.000000, 8166.000000
1678, 12372464.000000, 1818.750000, 8168.000000, 8170.000000, 8159.000000
1679, 12372624.000000, 1824.000000, 8170.000000, 8187.000000, 8168.000000
1680, 12372784.000000, 1845.000000, 8325.000000, 8288.000000, 8344.000000
1681, 12372944.000000, 1857.000000, 8442.000000, 7573.000000, 7735.000000
1682, 12373104.000000, 1843.500000, 8003.000000, 7893.000000, 7784.000000
1683, 12373264.000000, 1800.750000, 8190.000000, 8231.000000, 8229.000000
1684, 12373424.000000, 1731.500000, 8194.000000, 8262.000000, 8264.000000
1685, 12373584.000000, 1649.250000, 8204.000000, 8273.000000, 8278.000000
1686, 12373744.000000, 1562.750000, 8213.000000, 8278.000000, 8287.000000
1687, 12373904.000000, 1477.750000, 8223.000000, 8284.000000, 8298.000000
1688, 12374064.000000, 1402.000000, 8241.000000, 8296.000000, 8318.000000
1689, 12374224.000000, 1339.250000, 8259.000000, 8313.000000, 8343.000000
1690, 12374384.000000, 1287.500000, 8284.000000, 8331.000000, 8371.000000
1691, 12374544.000000, 1245.250000, 8296.000000, 8342.000000, 8384.000000
1692, 12374704.000000, 1211.000000, 8287.000000, 8336.000000, 8374.000000
1693, 12374864.000000, 1184.750000, 8262.000000, 8307.000000, 8335.000000
1694, 12375024.000000, 1163.750000, 8216.000000, 8249.000000, 8258.000000
1695, 12375184.000000, 1147.750000, 8175.000000, 8194.000000, 8188.000000
1696, 12375344.000000, 1136.000000, 8148.000000, 8167.000000, 8149.000000
1697, 12375504.000000, 1126.000000, 8139.000000, 8160.000000, 8138.000000
1698, 12375664.000000, 1113.500000, 8143.000000, 8162.000000, 8143.000000
1699, 12375824.000000, 1102.000000, 8148.000000, 8166.000000, 8150.000000
1700, 12375984.000000, 1089.500000, 8156.000000, 8168.000000, 8155.000000
1701, 12376144.000000, 1073.500000, 8160.000000, 8166.000000, 8154.000000
1702, 12376304.000000, 1055.250000, 8159.000000, 8165.000000, 8152.000000
1703, 12376464.000000, 1031.250000, 8157.000000, 8166.000000, 8152.000000
1704, 12376624.000000, 1001.250000, 8155.000000, 8168.000000, 8153.000000
1705, 12376784.000000, 973.750000, 8155.000000, 8166.000000, 8149.000000
1706, 12376944.000000, 1028.750000, 8157.000000, 8165.000000, 8149.000000
1707, 12377104.000000, 1259.750000, 8157.000000, 8165.000000, 8149.000000
1708, 12377264.000000, 1707.500000, 8158.000000, 8167.000000, 8152.000000
1709, 12377424.000000, 2235.250000, 8159.000000, 8169.000000, 8154.000000
1710, 12377584.000000, 2688.500000, 8161.000000, 8169.000000, 8154.000000
1711, 12377744.000000, 2959.250000, 8165.000000, 8169.000000, 8156.000000
1712, 12377904.000000, 3042.500000, 8165.000000, 8169.000000, 8156.000000
1713, 12378064.000000, 2968.000000, 8166.000000, 8172.000000, 8160.000000
1714, 12378224.000000, 2801.000000, 8168.000000, 8173.000000, 8162.000000
1715, 12378384.000000, 2589.000000, 8175.000000, 8182.000000, 8178.000000
1716, 12378544.000000, 2354.750000, 8178.000000, 8186.000000, 8186.000000
1717, 12378704.000000, 2121.000000, 8188.000000, 8185.000000, 8187.000000
1718, 12378864.000000, 1919.750000, 8180.000000, 8177.000000, 8172.000000
1719, 12379024.000000, 1789.500000, 8170.000000, 8172.000000, 8159.000000
1720, 12379184.000000, 1736.250000, 8174.000000, 8175.000000, 8162.000000
1721, 12379344.000000, 1740.500000, 8233.000000, 8326.000000, 8338.000000
1722, 12379504.000000, 1773.250000, 8522.000000, 7737.000000, 7926.000000
1723, 12379664.000000, 1809.250000, 7965.000000, 7794.000000, 7684.000000
1724, 12379824.000000, 1822.500000, 8182.000000, 8210.000000, 8199.000000
1725, 12379984.000000, 1805.250000, 8195.000000, 8259.000000, 8258.000000
1726, 12380144.000000, 1756.000000, 8203.000000, 8272.000000, 8274.000000
1727, 12380304.000000, 1684.250000, 8211.000000, 8278.000000, 8284.000000
1728, 12380464.000000, 1601.750000, 8221.000000, 8286.000000, 8298.000000
1729, 12380624.000000, 1514.750000, 8235.000000, 8298.000000, 8314.000000
1730, 12380784.000000, 1433.750000, 8255.000000, 8312.000000, 8337.000000
1731, 12380944.000000, 1364.750000, 8277.000000, 8329.000000, 8361.000000
1732, 12381104.000000, 1306.250000, 8290.000000, 8343.000000, 8381.000000
1733, 12381264.000000, 1261.750000, 8287.000000, 8343.000000, 8379.000000
1734, 12381424.000000, 1224.250000, 8269.000000, 8320.000000, 8348.000000
1735, 12381584.000000, 1196.750000, 8231.000000, 8266.000000, 8279.000000
1736, 12381744.000000, 1176.750000, 8187.000000, 8207.000000, 8203.000000
1737, 12381904.000000, 1161.500000, 8155.000000, 8175.000000, 8160.000000
1738, 12382064.000000, 1148.250000, 8141.000000, 8167.000000, 8146.000000
1739, 12382224.000000, 1138.000000, 8146.000000, 8170.000000, 8151.000000
1740, 12382384.000000, 1128.750000, 8154.000000, 8173.000000, 8155.000000
1741, 12382544.000000, 1121.250000, 8163.000000, 8173.000000, 8161.000000
1742, 12382704.000000, 1114.750000, 8164.000000, 8174.000000, 8161.000000
1743, 12382864.000000, 1102.500000, 8162.000000, 8176.000000, 8163.000000
1744, 12383024.000000, 1085.750000, 8160.000000, 8176.000000, 8162.000000
1745, 12383184.000000, 1062.000000, 8161.000000, 8176.000000, 8161.000000
1746, 12383344.000000, 1028.500000, 8159.000000, 8174.000000, 8159.000000
1747, 12383504.000000, 1013.750000, 8159.000000, 8174.000000, 8159.000000
1748, 12383664.000000, 1107.750000, 8158.000000, 8174.000000, 8159.000000
1749, 12383824.000000, 1397.750000, 8159.000000, 8176.000000, 8163.000000
1750, 12383984.000000, 1860.000000, 8164.000000, 8176.000000, 8163.000000
1751, 12384144.000000, 2343.750000, 8164.000000, 8175.000000, 8162.000000
1752, 12384304.000000, 2713.500000, 8164.000000, 8175.000000, 8162.000000
1753, 12384464.000000, 2905.750000, 8163.000000, 8176.000000, 8164.000000
1754, 12384624.000000, 2925.250000, 8172.000000, 8185.000000, 8181.000000
1755, 12384784.000000, 2820.750000, 8178.000000, 8189.000000, 8191.000000
1756, 12384944.000000, 2636.250000, 8185.000000, 8187.000000, 8193.000000
1757, 12385104.000000, 2409.750000, 8180.000000, 8181.000000, 8178.000000
1758, 12385264.000000, 2169.000000, 8167.000000, 8174.000000, 8161.000000
1759, 12385424.000000, 1944.000000, 8171.000000, 8175.000000, 8162.000000
1760, 12385584.000000, 1774.500000, 8213.000000, 8297.000000, 8300.000000
1761, 12385744.000000, 1687.500000, 8560.000000, 7949.000000, 8135.000000
1762, 12385904.000000, 1680.250000, 7976.000000, 7809.000000, 7734.000000
1763, 12386064.000000, 1716.250000, 8157.000000, 8157.000000, 8121.000000
1764, 12386224.000000, 1769.750000, 8194.000000, 8241.000000, 8236.000000
1765, 12386384.000000, 1809.500000, 8204.000000, 8254.000000, 8255.000000
1766, 12386544.000000, 1821.250000, 8213.000000, 8260.000000, 8265.000000
1767, 12386704.000000, 1797.000000, 8222.000000, 8266.000000, 8275.000000
1768, 12386864.000000, 1745.250000, 8237.000000, 8274.000000, 8291.000000
1769, 12387024.000000, 1677.250000, 8258.000000, 8288.000000, 8313.000000
1770, 12387184.000000, 1597.000000, 8276.000000, 8305.000000, 8336.000000
1771, 12387344.000000, 1519.500000, 8289.000000, 8316.000000, 8350.000000
1772, 12387504.000000, 1445.250000, 8284.000000, 8314.000000, 8348.000000
1773, 12387664.000000, 1379.750000, 8266.000000, 8297.000000, 8325.000000
1774, 12387824.000000, 1322.250000, 8230.000000, 8253.000000, 8267.000000
1775, 12387984.000000, 1274.750000, 8188.000000, 8202.000000, 8199.000000
1776, 12388144.000000, 1235.500000, 8157.000000, 8170.000000, 8158.000000
1777, 12388304.000000, 1206.500000, 8138.000000, 8161.000000, 8144.000000
1778, 12388464.000000, 1185.750000, 8140.000000, 8165.000000, 8148.000000
1779, 12388624.000000, 1173.250000, 8150.000000, 8169.000000, 8156.000000
1780, 12388784.000000, 1169.250000, 8157.000000, 8170.000000, 8158.000000
1781, 12388944.000000, 1169.000000, 8162.000000, 8171.000000, 8162.000000
1782, 12389104.000000, 1168.250000, 8160.000000, 8173.000000, 8163.000000
1783, 12389264.000000, 1159.750000, 8158.000000, 8175.000000, 8162.000000
1784, 12389424.000000, 1144.000000, 8157.000000, 8177.000000, 8165.000000
1785, 12389584.000000, 1121.000000, 8160.000000, 8179.000000, 8165.000000
1786, 12389744.000000, 1090.750000, 8159.000000, 8178.000000, 8165.000000
1787, 12389904.000000, 1096.750000, 8157.000000, 8178.000000, 8164.000000
1788, 12390064.000000, 1231.500000, 8157.000000, 8179.000000, 8165.000000
1789, 12390224.000000, 1543.750000, 8160.000000, 8180.000000, 8168.000000
1790, 12390384.000000, 1972.750000, 8165.000000, 8181.000000, 8170.000000
1791, 12390544.000000, 2373.000000, 8171.000000, 8188.000000, 8185.000000
1792, 12390704.000000, 2647.500000, 8176.000000, 8195.000000, 8201.000000
1793, 12390864.000000, 2766.500000, 8180.000000, 8191.000000, 8194.000000
1794, 12391024.000000, 2746.000000, 8169.000000, 8182.000000, 8172.000000
1795, 12391184.000000, 2626.250000, 8167.000000, 8177.000000, 8162.000000
1796, 12391344.000000, 2437.500000, 8171.000000, 8192.000000, 8171.000000
1797, 12391504.000000, 2212.000000, 8332.000000, 8313.000000, 8377.000000
1798, 12391664.000000, 1976.750000, 8423.000000, 7814.000000, 7957.000000
1799, 12391824.000000, 1777.250000, 7998.000000, 7934.000000, 7836.000000
1800, 12391984.000000, 1648.750000, 8182.000000, 8207.000000, 8192.000000
1801, 12392144.000000, 1604.750000, 8197.000000, 8237.000000, 8234.000000
1802, 12392304.000000, 1624.000000, 8203.000000, 8247.000000, 8249.000000
1803, 12392464.000000, 1677.000000, 8213.000000, 8255.000000, 8260.000000
1804, 12392624.000000, 1733.750000, 8229.000000, 8263.000000, 8275.000000
1805, 12392784.000000, 1770.750000, 8245.000000, 8272.000000, 8290.000000
1806, 12392944.000000, 1775.000000, 8264.000000, 8286.000000, 8311.000000
1807, 12393104.000000, 1744.500000, 8281.000000, 8301.000000, 8333.000000
1808, 12393264.000000, 1690.250000, 8294.000000, 8310.000000, 8345.000000
1809, 12393424.000000, 1620.000000, 8284.000000, 8303.000000, 8333.000000
1810, 12393584.000000, 1550.750000, 8259.000000, 8277.000000, 8297.000000
1811, 12393744.000000, 1484.750000, 8217.000000, 8234.000000, 8240.000000
1812, 12393904.000000, 1424.750000, 8174.000000, 8193.000000, 8186.000000
1813, 12394064.000000, 1368.000000, 8149.000000, 8172.000000, 8157.000000
1814, 12394224.000000, 1320.500000, 8143.000000, 8166.000000, 8149.000000
1815, 12394384.000000, 1282.000000, 8151.000000, 8166.000000, 8152.000000
1816, 12394544.000000, 1256.250000, 8156.000000, 8167.000000, 8156.000000
1817, 12394704.000000, 1237.500000, 8160.000000, 8169.000000, 8159.000000
1818, 12394864.000000, 1224.250000, 8160.000000, 8171.000000, 8161.000000
1819, 12395024.000000, 1216.000000, 8161.000000, 8171.000000, 8160.000000
1820, 12395184.000000, 1204.250000, 8164.000000, 8170.000000, 8159.000000
1821, 12395344.000000, 1192.250000, 8159.000000, 8169.000000, 8156.000000
1822, 12395504.000000, 1173.250000, 8158.000000, 8169.000000, 8156.000000
1823, 12395664.000000, 1153.250000, 8159.000000, 8172.000000, 8159.000000
1824, 12395824.000000, 1183.250000, 8166.000000, 8181.000000, 8177.000000
1825, 12395984.000000, 1346.000000, 8172.000000, 8189.000000, 8193.000000
1826, 12396144.000000, 1683.500000, 8174.000000, 8179.000000, 8180.000000
1827, 12396304.000000, 2102.000000, 8165.000000, 8172.000000, 8161.000000
1828, 12396464.000000, 2467.250000, 8159.000000, 8168.000000, 8151.000000
1829, 12396624.000000, 2696.750000, 8166.000000, 8184.000000, 8162.000000
1830, 12396784.000000, 2781.000000, 8310.000000, 8312.000000, 8366.000000
1831, 12396944.000000, 2742.750000, 8423.000000, 7860.000000, 7997.000000
1832, 12397104.000000, 2620.250000, 7988.000000, 7929.000000, 7834.000000
1833, 12397264.000000, 2438.500000, 8170.000000, 8191.000000, 8168.000000
1834, 12397424.000000, 2218.250000, 8189.000000, 8229.000000, 8222.000000
1835, 12397584.000000, 1992.000000, 8200.000000, 8238.000000, 8235.000000
1836, 12397744.000000, 1801.000000, 8209.000000, 8243.000000, 8245.000000
1837, 12397904.000000, 1683.500000, 8221.000000, 8252.000000, 8260.000000
1838, 12398064.000000, 1644.250000, 8239.000000, 8264.000000, 8280.000000
1839, 12398224.000000, 1667.750000, 8260.000000, 8278.000000, 8302.000000
1840, 12398384.000000, 1722.000000, 8280.000000, 8293.000000, 8323.000000
1841, 12398544.000000, 1778.750000, 8287.000000, 8300.000000, 8332.000000
1842, 12398704.000000, 1815.500000, 8275.000000, 8295.000000, 8323.000000
1843, 12398864.000000, 1822.500000, 8250.000000, 8272.000000, 8290.000000
1844, 12399024.000000, 1796.500000, 8208.000000, 8231.000000, 8233.000000
1845, 12399184.000000, 1743.500000, 8166.000000, 8191.000000, 8181.000000
1846, 12399344.000000, 1676.000000, 8143.000000, 8171.000000, 8154.000000
1847, 12399504.000000, 1601.750000, 8134.000000, 8165.000000, 8146.000000
1848, 12399664.000000, 1530.750000, 8139.000000, 8166.000000, 8150.000000
1849, 12399824.000000, 1466.000000, 8146.000000, 8168.000000, 8153.000000
1850, 12399984.000000, 1411.000000, 8156.000000, 8169.000000, 8158.000000
1851, 12400144.000000, 1366.000000, 8159.000000, 8170.000000, 8161.000000
1852, 12400304.000000, 1328.500000, 8155.000000, 8171.000000, 8160.000000
1853, 12400464.000000, 1299.250000, 8155.000000, 8172.000000, 8161.000000
1854, 12400624.000000, 1272.750000, 8152.000000, 8171.000000, 8158.000000
1855, 12400784.000000, 1243.000000, 8156.000000, 8173.000000, 8164.000000
1856, 12400944.000000, 1216.750000, 8159.000000, 8180.000000, 8175.000000
1857, 12401104.000000, 1236.500000, 8163.000000, 8186.000000, 8192.000000
1858, 12401264.000000, 1396.750000, 8165.000000, 8180.000000, 8179.000000
1859, 12401424.000000, 1722.750000, 8155.000000, 8172.000000, 8157.000000
1860, 12401584.000000, 2147.000000, 8155.000000, 8169.000000, 8152.000000
1861, 12401744.000000, 2523.000000, 8167.000000, 8229.000000, 8208.000000
1862, 12401904.000000, 2766.750000, 8432.000000, 8212.000000, 8327.000000
1863, 12402064.000000, 2856.500000, 8216.000000, 7797.000000, 7844.000000
1864, 12402224.000000, 2823.000000, 8043.000000, 8007.000000, 7915.000000
1865, 12402384.000000, 2697.750000, 8177.000000, 8213.000000, 8204.000000
1866, 12402544.000000, 2515.000000, 8182.000000, 8234.000000, 8229.000000
1867, 12402704.000000, 2299.000000, 8191.000000, 8241.000000, 8243.000000
1868, 12402864.000000, 2071.250000, 8200.000000, 8250.000000, 8256.000000
1869, 12403024.000000, 1878.000000, 8218.000000, 8260.000000, 8272.000000
1870, 12403184.000000, 1749.500000, 8234.000000, 8271.000000, 8290.000000
1871, 12403344.000000, 1703.250000, 8252.000000, 8287.000000, 8314.000000
1872, 12403504.000000, 1716.750000, 8271.000000, 8306.000000, 8340.000000
1873, 12403664.000000, 1762.500000, 8274.000000, 8310.000000, 8344.000000
1874, 12403824.000000, 1816.000000, 8262.000000, 8297.000000, 8325.000000
1875, 12403984.000000, 1855.000000, 8228.000000, 8261.000000, 8276.000000
1876, 12404144.000000, 1862.500000, 8182.000000, 8214.000000, 8214.000000
1877, 12404304.000000, 1837.250000, 8147.000000, 8180.000000, 8169.000000
1878, 12404464.000000, 1781.500000, 8134.000000, 8165.000000, 8148.000000
1879, 12404624.000000, 1708.250000, 8132.000000, 8162.000000, 8145.000000
1880, 12404784.000000, 1631.500000, 8139.000000, 8161.000000, 8147.000000
1881, 12404944.000000, 1558.250000, 8146.000000, 8165.000000, 8152.000000
1882, 12405104.000000, 1493.000000, 8148.000000, 8167.000000, 8157.000000
1883, 12405264.000000, 1439.000000, 8151.000000, 8171.000000, 8161.000000
1884, 12405424.000000, 1391.500000, 8152.000000, 8171.000000, 8160.000000
1885, 12405584.000000, 1350.750000, 8151.000000, 8169.000000, 8157.000000
1886, 12405744.000000, 1309.000000, 8150.000000, 8168.000000, 8155.000000
1887, 12405904.000000, 1266.250000, 8151.000000, 8173.000000, 8163.000000
1888, 12406064.000000, 1262.000000, 8155.000000, 8181.000000, 8176.000000
1889, 12406224.000000, 1392.000000, 8165.000000, 8183.000000, 8190.000000
1890, 12406384.000000, 1731.250000, 8165.000000, 8175.000000, 8172.000000
1891, 12406544.000000, 2202.250000, 8152.000000, 8164.000000, 8149.000000
1892, 12406704.000000, 2654.500000, 8151.000000, 8163.000000, 8147.000000
1893, 12406864.000000, 2964.500000, 8169.000000, 8238.000000, 8220.000000
1894, 12407024.000000, 3106.500000, 8452.000000, 8153.000000, 8277.000000
1895, 12407184.000000, 3091.750000, 8175.000000, 7742.000000, 7766.000000
1896, 12407344.000000, 2970.750000, 8067.000000, 8021.000000, 7941.000000
1897, 12407504.000000, 2785.250000, 8176.000000, 8216.000000, 8209.000000
1898, 12407664.000000, 2566.000000, 8185.000000, 8236.000000, 8233.000000
1899, 12407824.000000, 2331.750000, 8199.000000, 8244.000000, 8246.000000
1900, 12407984.000000, 2112.250000, 8210.000000, 8252.000000, 8259.000000
1901, 12408144.000000, 1949.750000, 8225.000000, 8261.000000, 8274.000000
1902, 12408304.000000, 1868.000000, 8238.000000, 8276.000000, 8294.000000
1903, 12408464.000000, 1857.500000, 8259.000000, 8296.000000, 8322.000000
1904, 12408624.000000, 1886.000000, 8277.000000, 8311.000000, 8343.000000
1905, 12408784.000000, 1930.000000, 8280.000000, 8312.000000, 8342.000000
1906, 12408944.000000, 1960.000000, 8262.000000, 8298.000000, 8322.000000
1907, 12409104.000000, 1963.250000, 8230.000000, 8260.000000, 8274.000000
1908, 12409264.000000, 1933.000000, 8185.000000, 8212.000000, 8209.000000
1909, 12409424.000000, 1872.500000, 8153.000000, 8176.000000, 8161.000000
1910, 12409584.000000, 1794.250000, 8140.000000, 8163.000000, 8142.000000
1911, 12409744.000000, 1708.500000, 8138.000000, 8160.000000, 8141.000000
1912, 12409904.000000, 1623.500000, 8142.000000, 8164.000000, 8146.000000
1913, 12410064.000000, 1546.000000, 8151.000000, 8169.000000, 8155.000000
1914, 12410224.000000, 1481.000000, 8156.000000, 8170.000000, 8157.000000
1915, 12410384.000000, 1429.500000, 8158.000000, 8169.000000, 8154.000000
1916, 12410544.000000, 1388.000000, 8158.000000, 8169.000000, 8154.000000
1917, 12410704.000000, 1346.750000, 8154.000000, 8170.000000, 8154.000000
1918, 12410864.000000, 1301.000000, 8154.000000, 8171.000000, 8155.000000
1919, 12411024.000000, 1262.750000, 8155.000000, 8169.000000, 8152.000000
1920, 12411184.000000, 1312.500000, 8160.000000, 8173.000000, 8161.000000
1921, 12411344.000000, 1559.500000, 8162.000000, 8181.000000, 8174.000000
1922, 12411504.000000, 2020.500000, 8169.000000, 8180.000000, 8184.000000
1923, 12411664.000000, 2647.250000, 8171.000000, 8173.000000, 8168.000000
1924, 12411824.000000, 3120.250000, 8159.000000, 8159.000000, 8142.000000
1925, 12411984.000000, 3289.500000, 8161.000000, 8155.000000, 8136.000000
1926, 12412144.000000, 3241.750000, 8177.000000, 8233.000000, 8214.000000
1927, 12412304.000000, 3056.750000, 8467.000000, 8102.000000, 8228.000000
1928, 12412464.000000, 2787.250000, 8150.000000, 7707.000000, 7714.000000
1929, 12412624.000000, 2526.500000, 8087.000000, 8028.000000, 7949.000000
1930, 12412784.000000, 2270.250000, 8186.000000, 8209.000000, 8200.000000
1931, 12412944.000000, 2094.500000, 8192.000000, 8227.000000, 8224.000000
1932, 12413104.000000, 1998.750000, 8201.000000, 8237.000000, 8238.000000
1933, 12413264.000000, 1968.000000, 8215.000000, 8247.000000, 8253.000000
1934, 12413424.000000, 1979.750000, 8231.000000, 8256.000000, 8267.000000
1935, 12413584.000000, 2005.750000, 8247.000000, 8270.000000, 8288.000000
1936, 12413744.000000, 2022.500000, 8266.000000, 8291.000000, 8317.000000
1937, 12413904.000000, 2008.500000, 8284.000000, 8308.000000, 8340.000000
1938, 12414064.000000, 1960.000000, 8287.000000, 8311.000000, 8343.000000
1939, 12414224.000000, 1889.750000, 8271.000000, 8297.000000, 8321.000000
1940, 12414384.000000, 1802.250000, 8235.000000, 8258.000000, 8268.000000
1941, 12414544.000000, 1708.750000, 8187.000000, 8208.000000, 8202.000000
1942, 12414704.000000, 1619.000000, 8151.000000, 8177.000000, 8159.000000
1943, 12414864.000000, 1534.000000, 8137.000000, 8166.000000, 8143.000000
1944, 12415024.000000, 1461.500000, 8141.000000, 8164.000000, 8141.000000
1945, 12415184.000000, 1404.000000, 8148.000000, 8164.000000, 8144.000000
1946, 12415344.000000, 1360.750000, 8153.000000, 8168.000000, 8151.000000
1947, 12415504.000000, 1331.000000, 8158.000000, 8173.000000, 8158.000000
1948, 12415664.000000, 1302.750000, 8160.000000, 8174.000000, 8160.000000
1949, 12415824.000000, 1267.500000, 8161.000000, 8172.000000, 8157.000000
1950, 12415984.000000, 1228.000000, 8159.000000, 8168.000000, 8153.000000
1951, 12416144.000000, 1260.750000, 8157.000000, 8167.000000, 8151.000000
1952, 12416304.000000, 1471.000000, 8157.000000, 8168.000000, 8152.000000
1953, 12416464.000000, 1912.750000, 8158.000000, 8168.000000, 8151.000000
1954, 12416624.000000, 2460.250000, 8161.000000, 8167.000000, 8150.000000
1955, 12416784.000000, 2940.750000, 8163.000000, 8168.000000, 8152.000000
1956, 12416944.000000, 3230.500000, 8169.000000, 8177.000000, 8169.000000
1957, 12417104.000000, 3323.750000, 8170.000000, 8185.000000, 8180.000000
1958, 12417264.000000, 3262.000000, 8176.000000, 8183.000000, 8183.000000
1959, 12417424.000000, 3104.750000, 8178.000000, 8177.000000, 8169.000000
1960, 12417584.000000, 2911.250000, 8166.000000, 8168.000000, 8150.000000
1961, 12417744.000000, 2703.250000, 8167.000000, 8168.000000, 8151.000000
1962, 12417904.000000, 2479.750000, 8202.000000, 8292.000000, 8286.000000
1963, 12418064.000000, 2264.250000, 8505.000000, 7970.000000, 8120.000000
1964, 12418224.000000, 2099.250000, 8009.000000, 7764.000000, 7693.000000
1965, 12418384.000000, 2001.500000, 8146.000000, 8134.000000, 8085.000000
1966, 12418544.000000, 1965.750000, 8188.000000, 8238.000000, 8231.000000
1967, 12418704.000000, 1964.750000, 8196.000000, 8255.000000, 8253.000000
1968, 12418864.000000, 1974.000000, 8206.000000, 8264.000000, 8266.000000
1969, 12419024.000000, 1975.750000, 8218.000000, 8270.000000, 8276.000000
1970, 12419184.000000, 1948.000000, 8231.000000, 8281.000000, 8292.000000
1971, 12419344.000000, 1893.500000, 8246.000000, 8297.000000, 8316.000000
1972, 12419504.000000, 1810.000000, 8267.000000, 8318.000000, 8345.000000
1973, 12419664.000000, 1714.000000, 8285.000000, 8334.000000, 8365.000000
1974, 12419824.000000, 1614.750000, 8286.000000, 8334.000000, 8364.000000
1975, 12419984.000000, 1523.500000, 8267.000000, 8315.000000, 8338.000000
1976, 12420144.000000, 1442.500000, 8230.000000, 8270.000000, 8280.000000
1977, 12420304.000000, 1375.000000, 8184.000000, 8216.000000, 8210.000000
1978, 12420464.000000, 1320.750000, 8153.000000, 8185.000000, 8168.000000
1979, 12420624.000000, 1277.250000, 8144.000000, 8173.000000, 8152.000000
1980, 12420784.000000, 1243.000000, 8145.000000, 8172.000000, 8152.000000
1981, 12420944.000000, 1219.000000, 8150.000000, 8175.000000, 8158.000000
1982, 12421104.000000, 1201.500000, 8153.000000, 8179.000000, 8164.000000
1983, 12421264.000000, 1189.750000, 8160.000000, 8180.000000, 8166.000000
1984, 12421424.000000, 1169.750000, 8163.000000, 8180.000000, 8166.000000
1985, 12421584.000000, 1135.000000, 8163.000000, 8178.000000, 8164.000000
1986, 12421744.000000, 1108.000000, 8161.000000, 8177.000000, 8162.000000
1987, 12421904.000000, 1173.500000, 8161.000000, 8178.000000, 8163.000000
1988, 12422064.000000, 1458.000000, 8160.000000, 8176.000000, 8158.000000
1989, 12422224.000000, 1949.000000, 8163.000000, 8175.000000, 8157.000000
1990, 12422384.000000, 2496.750000, 8164.000000, 8174.000000, 8157.000000
1991, 12422544.000000, 2920.000000, 8162.000000, 8174.000000, 8157.000000
1992, 12422704.000000, 3152.500000, 8162.000000, 8177.000000, 8160.000000
1993, 12422864.000000, 3196.250000, 8166.000000, 8178.000000, 8162.000000
1994, 12423024.000000, 3104.750000, 8170.000000, 8177.000000, 8162.000000
1995, 12423184.000000, 2948.500000, 8175.000000, 8186.000000, 8180.000000
1996, 12423344.000000, 2769.250000, 8178.000000, 8192.000000, 8192.000000
1997, 12423504.000000, 2576.750000, 8182.000000, 8186.000000, 8186.000000
1998, 12423664.000000, 2370.750000, 8181.000000, 8182.000000, 8174.000000
1999, 12423824.000000, 2172.250000, 8171.000000, 8173.000000, 8156.000000
2000, 12423984.000000, 2020.500000, 8175.000000, 8174.000000, 8158.000000
2001, 12424144.000000, 1934.000000, 8224.000000, 8320.000000, 8326.000000
2002, 12424304.000000, 1903.500000, 8510.000000, 7855.000000, 8016.000000
2003, 12424464.000000, 1899.250000, 7984.000000, 7772.000000, 7675.000000
2004, 12424624.000000, 1901.750000, 8175.000000, 8185.000000, 8159.000000
2005, 12424784.000000, 1890.500000, 8195.000000, 8253.000000, 8248.000000
2006, 12424944.000000, 1855.500000, 8201.000000, 8269.000000, 8268.000000
2007, 12425104.000000, 1793.750000, 8210.000000, 8276.000000, 8279.000000
2008, 12425264.000000, 1712.750000, 8223.000000, 8284.000000, 8290.000000
2009, 12425424.000000, 1620.500000, 8238.000000, 8293.000000, 8305.000000
2010, 12425584.000000, 1525.500000, 8255.000000, 8304.000000, 8325.000000
2011, 12425744.000000, 1435.750000, 8274.000000, 8321.000000, 8349.000000
2012, 12425904.000000, 1360.000000, 8291.000000, 8336.000000, 8371.000000
2013, 12426064.000000, 1299.750000, 8293.000000, 8336.000000, 8370.000000
2014, 12426224.000000, 1250.500000, 8271.000000, 8316.000000, 8340.000000
2015, 12426384.000000, 1212.750000, 8234.000000, 8266.000000, 8277.000000
2016, 12426544.000000, 1182.750000, 8188.000000, 8209.000000, 8202.000000
2017, 12426704.000000, 1156.750000, 8154.000000, 8178.000000, 8160.000000
2018, 12426864.000000, 1135.750000, 8143.000000, 8166.000000, 8143.000000
2019, 12427024.000000, 1120.000000, 8146.000000, 8165.000000, 8142.000000
2020, 12427184.000000, 1111.000000, 8151.000000, 8165.000000, 8147.000000
2021, 12427344.000000, 1101.000000, 8153.000000, 8168.000000, 8151.000000
2022, 12427504.000000, 1090.250000, 8156.000000, 8170.000000, 8155.000000
2023, 12427664.000000, 1070.500000, 8161.000000, 8170.000000, 8155.000000
2024, 12427824.000000, 1038.000000, 8163.000000, 8170.000000, 8154.000000
2025, 12427984.000000, 1005.000000, 8161.000000, 8170.000000, 8153.000000
2026, 12428144.000000, 1072.500000, 8158.000000, 8169.000000, 8152.000000
2027, 12428304.000000, 1344.500000, 8158.000000, 8169.000000, 8150.000000
2028, 12428464.000000, 1844.000000, 8161.000000, 8168.000000, 8149.000000
2029, 12428624.000000, 2399.000000, 8161.000000, 8168.000000, 8149.000000
2030, 12428784.000000, 2847.250000, 8161.000000, 8169.000000, 8150.000000
2031, 12428944.000000, 3097.250000, 8161.000000, 8170.000000, 8151.000000
2032, 12429104.000000, 3164.500000, 8162.000000, 8172.000000, 8155.000000
2033, 12429264.000000, 3092.500000, 8165.000000, 8172.000000, 8155.000000
2034, 12429424.000000, 2948.000000, 8168.000000, 8170.000000, 8155.000000
2035, 12429584.000000, 2777.750000, 8169.000000, 8171.000000, 8157.000000
2036, 12429744.000000, 2593.750000, 8174.000000, 8182.000000, 8179.000000
2037, 12429904.000000, 2395.500000, 8179.000000, 8190.000000, 8196.000000
2038, 12430064.000000, 2200.250000, 8187.000000, 8182.000000, 8182.000000
2039, 12430224.000000, 2047.250000, 8181.000000, 8174.000000, 8166.000000
2040, 12430384.000000, 1955.500000, 8172.000000, 8169.000000, 8155.000000
2041, 12430544.000000, 1915.500000, 8173.000000, 8174.000000, 8159.000000
2042, 12430704.000000, 1909.000000, 8255.000000, 8331.000000, 8352.000000
2043, 12430864.000000, 1909.250000, 8496.000000, 7714.000000, 7886.000000
2044, 12431024.000000, 1897.750000, 7975.000000, 7808.000000, 7693.000000
2045, 12431184.000000, 1859.500000, 8183.000000, 8211.000000, 8200.000000
2046, 12431344.000000, 1798.000000, 8193.000000, 8255.000000, 8253.000000
2047, 12431504.000000, 1716.000000, 8201.000000, 8268.000000, 8269.000000
2048, 12431664.000000, 1623.500000, 8213.000000, 8274.000000, 8279.000000
2049, 12431824.000000, 1533.000000, 8227.000000, 8280.000000, 8290.000000
2050, 12431984.000000, 1446.250000, 8238.000000, 8289.000000, 8305.000000
2051, 12432144.000000, 1369.000000, 8256.000000, 8305.000000, 8329.000000
2052, 12432304.000000, 1304.000000, 8276.000000, 8324.000000, 8357.000000
2053, 12432464.000000, 1251.500000, 8294.000000, 8336.000000, 8375.000000
2054, 12432624.000000, 1209.750000, 8291.000000, 8334.000000, 8369.000000
2055, 12432784.000000, 1177.500000, 8271.000000, 8312.000000, 8340.000000
2056, 12432944.000000, 1155.000000, 8231.000000, 8260.000000, 8273.000000
2057, 12433104.000000, 1137.500000, 8183.000000, 8204.000000, 8199.000000
2058, 12433264.000000, 1122.500000, 8152.000000, 8173.000000, 8154.000000
2059, 12433424.000000, 1106.000000, 8142.000000, 8162.000000, 8140.000000
2060, 12433584.000000, 1089.250000, 8142.000000, 8161.000000, 8141.000000
2061, 12433744.000000, 1074.750000, 8146.000000, 8163.000000, 8146.000000
2062, 12433904.000000, 1064.000000, 8152.000000, 8166.000000, 8151.000000
2063, 12434064.000000, 1050.500000, 8160.000000, 8167.000000, 8155.000000
2064, 12434224.000000, 1032.250000, 8159.000000, 8166.000000, 8153.000000
2065, 12434384.000000, 997.750000, 8158.000000, 8167.000000, 8154.000000
2066, 12434544.000000, 962.750000, 8156.000000, 8167.000000, 8154.000000
2067, 12434704.000000, 993.750000, 8156.000000, 8167.000000, 8154.000000
2068, 12434864.000000, 1227.000000, 8157.000000, 8166.000000, 8152.000000
2069, 12435024.000000, 1685.750000, 8158.000000, 8165.000000, 8150.000000
2070, 12435184.000000, 2246.750000, 8161.000000, 8164.000000, 8151.000000
2071, 12435344.000000, 2720.250000, 8161.000000, 8166.000000, 8153.000000
2072, 12435504.000000, 3017.250000, 8161.000000, 8169.000000, 8156.000000
2073, 12435664.000000, 3120.500000, 8164.000000, 8169.000000, 8156.000000
2074, 12435824.000000, 3072.500000, 8164.000000, 8169.000000, 8154.000000
2075, 12435984.000000, 2938.750000, 8166.000000, 8169.000000, 8157.000000
2076, 12436144.000000, 2767.750000, 8163.000000, 8172.000000, 8158.000000
2077, 12436304.000000, 2579.250000, 8167.000000, 8174.000000, 8163.000000
2078, 12436464.000000, 2375.750000, 8180.000000, 8185.000000, 8186.000000
2079, 12436624.000000, 2175.500000, 8181.000000, 8188.000000, 8192.000000
2080, 12436784.000000, 2014.500000, 8185.000000, 8183.000000, 8183.000000
2081, 12436944.000000, 1915.500000, 8176.000000, 8176.000000, 8169.000000
2082, 12437104.000000, 1872.250000, 8171.000000, 8172.000000, 8161.000000
2083, 12437264.000000, 1870.000000, 8175.000000, 8179.000000, 8165.000000
2084, 12437424.000000, 1881.000000, 8277.000000, 8325.000000, 8357.000000
2085, 12437584.000000, 1879.500000, 8489.000000, 7650.000000, 7827.000000
2086, 12437744.000000, 1853.000000, 7977.000000, 7837.000000, 7721.000000
2087, 12437904.000000, 1793.750000, 8189.000000, 8224.000000, 8219.000000
2088, 12438064.000000, 1712.750000, 8197.000000, 8261.000000, 8261.000000
2089, 12438224.000000, 1622.000000, 8202.000000, 8271.000000, 8273.000000
2090, 12438384.000000, 1532.000000, 8210.000000, 8278.000000, 8285.000000
2091, 12438544.000000, 1445.750000, 8221.000000, 8284.000000, 8296.000000
2092, 12438704.000000, 1367.500000, 8238.000000, 8295.000000, 8313.000000
2093, 12438864.000000, 1300.000000, 8259.000000, 8308.000000, 8334.000000
2094, 12439024.000000, 1245.000000, 8276.000000, 8326.000000, 8359.000000
2095, 12439184.000000, 1202.500000, 8290.000000, 8340.000000, 8380.000000
2096, 12439344.000000, 1172.500000, 8287.000000, 8340.000000, 8378.000000
2097, 12439504.000000, 1151.000000, 8268.000000, 8318.000000, 8348.000000
2098, 12439664.000000, 1131.750000, 8229.000000, 8264.000000, 8278.000000
2099, 12439824.000000, 1114.250000, 8182.000000, 8204.000000, 8199.000000
2100, 12439984.000000, 1098.500000, 8149.000000, 8174.000000, 8157.000000
2101, 12440144.000000, 1084.500000, 8137.000000, 8166.000000, 8145.000000
2102, 12440304.000000, 1071.250000, 8142.000000, 8167.000000, 8149.000000
2103, 12440464.000000, 1057.750000, 8148.000000, 8168.000000, 8152.000000
2104, 12440624.000000, 1044.250000, 8154.000000, 8168.000000, 8156.000000
2105, 12440784.000000, 1030.500000, 8156.000000, 8170.000000, 8159.000000
2106, 12440944.000000, 1010.500000, 8158.000000, 8171.000000, 8160.000000
2107, 12441104.000000, 981.250000, 8160.000000, 8171.000000, 8159.000000
2108, 12441264.000000, 941.750000, 8160.000000, 8169.000000, 8155.000000
2109, 12441424.000000, 944.500000, 8160.000000, 8168.000000, 8154.000000
2110, 12441584.000000, 1090.750000, 8157.000000, 8168.000000, 8152.000000
2111, 12441744.000000, 1479.000000, 8157.000000, 8169.000000, 8153.000000
2112, 12441904.000000, 2014.500000, 8160.000000, 8170.000000, 8156.000000
2113, 12442064.000000, 2532.750000, 8161.000000, 8170.000000, 8155.000000
2114, 12442224.000000, 2886.500000, 8163.000000, 8169.000000, 8155.000000
2115, 12442384.000000, 3054.750000, 8162.000000, 8169.000000, 8156.000000
2116, 12442544.000000, 3046.750000, 8164.000000, 8172.000000, 8159.000000
2117, 12442704.000000, 2928.500000, 8167.000000, 8174.000000, 8161.000000
2118, 12442864.000000, 2751.000000, 8171.000000, 8173.000000, 8162.000000
2119, 12443024.000000, 2548.000000, 8169.000000, 8173.000000, 8161.000000
2120, 12443184.000000, 2331.250000, 8176.000000, 8185.000000, 8185.000000
2121, 12443344.000000, 2117.250000, 8180.000000, 8189.000000, 8194.000000
2122, 12443504.000000, 1944.750000, 8185.000000, 8184.000000, 8184.000000
2123, 12443664.000000, 1838.000000, 8177.000000, 8173.000000, 8164.000000
2124, 12443824.000000, 1801.500000, 8172.000000, 8169.000000, 8157.000000
2125, 12443984.000000, 1808.500000, 8170.000000, 8196.000000, 8173.000000
2126, 12444144.000000, 1835.250000, 8358.000000, 8256.000000, 8328.000000
2127, 12444304.000000, 1852.500000, 8409.000000, 7567.000000, 7711.000000
2128, 12444464.000000, 1843.250000, 8025.000000, 7929.000000, 7829.000000
2129, 12444624.000000, 1803.000000, 8191.000000, 8235.000000, 8232.000000
2130, 12444784.000000, 1733.750000, 8196.000000, 8262.000000, 8264.000000
2131, 12444944.000000, 1648.000000, 8204.000000, 8273.000000, 8278.000000
2132, 12445104.000000, 1556.250000, 8215.000000, 8279.000000, 8289.000000
2133, 12445264.000000, 1467.250000, 8226.000000, 8285.000000, 8297.000000
2134, 12445424.000000, 1384.750000, 8241.000000, 8294.000000, 8314.000000
2135, 12445584.000000, 1315.500000, 8257.000000, 8309.000000, 8337.000000
2136, 12445744.000000, 1258.000000, 8278.000000, 8331.000000, 8367.000000
2137, 12445904.000000, 1214.000000, 8293.000000, 8341.000000, 8381.000000
2138, 12446064.000000, 1180.750000, 8284.000000, 8336.000000, 8370.000000
2139, 12446224.000000, 1155.750000, 8259.000000, 8306.000000, 8330.000000
2140, 12446384.000000, 1137.500000, 8216.000000, 8249.000000, 8258.000000
2141, 12446544.000000, 1122.750000, 8172.000000, 8195.000000, 8187.000000
2142, 12446704.000000, 1112.000000, 8146.000000, 8170.000000, 8151.000000
2143, 12446864.000000, 1098.750000, 8140.000000, 8162.000000, 8139.000000
2144, 12447024.000000, 1088.000000, 8142.000000, 8162.000000, 8142.000000
2145, 12447184.000000, 1074.750000, 8148.000000, 8164.000000, 8148.000000
2146, 12447344.000000, 1064.000000, 8153.000000, 8168.000000, 8155.000000
2147, 12447504.000000, 1050.250000, 8159.000000, 8168.000000, 8157.000000
2148, 12447664.000000, 1031.000000, 8160.000000, 8167.000000, 8155.000000
2149, 12447824.000000, 1006.000000, 8157.000000, 8165.000000, 8151.000000
2150, 12447984.000000, 971.750000, 8155.000000, 8164.000000, 8149.000000
2151, 12448144.000000, 951.750000, 8153.000000, 8167.000000, 8152.000000
2152, 12448304.000000, 1042.500000, 8155.000000, 8167.000000, 8150.000000
2153, 12448464.000000, 1340.500000, 8157.000000, 8166.000000, 8150.000000
2154, 12448624.000000, 1823.250000, 8156.000000, 8166.000000, 8151.000000
2155, 12448784.000000, 2333.750000, 8156.000000, 8168.000000, 8153.000000
2156, 12448944.000000, 2718.750000, 8160.000000, 8170.000000, 8156.000000
2157, 12449104.000000, 2918.750000, 8162.000000, 8171.000000, 8156.000000
2158, 12449264.000000, 2950.750000, 8166.000000, 8169.000000, 8155.000000
2159, 12449424.000000, 2850.250000, 8165.000000, 8170.000000, 8157.000000
2160, 12449584.000000, 2679.250000, 8172.000000, 8180.000000, 8176.000000
2161, 12449744.000000, 2469.750000, 8175.000000, 8186.000000, 8190.000000
2162, 12449904.000000, 2242.250000, 8187.000000, 8185.000000, 8189.000000
2163, 12450064.000000, 2017.500000, 8180.000000, 8176.000000, 8171.000000
2164, 12450224.000000, 1834.000000, 8170.000000, 8168.000000, 8155.000000
2165, 12450384.000000, 1727.250000, 8170.000000, 8171.000000, 8158.000000
2166, 12450544.000000, 1693.750000, 8219.000000, 8322.000000, 8329.000000
2167, 12450704.000000, 1713.750000, 8521.000000, 7771.000000, 7955.000000
2168, 12450864.000000, 1755.750000, 7966.000000, 7770.000000, 7667.000000
2169, 12451024.000000, 1791.250000, 8182.000000, 8198.000000, 8185.000000
2170, 12451184.000000, 1799.500000, 8193.000000, 8254.000000, 8252.000000
2171, 12451344.000000, 1773.000000, 8200.000000, 8269.000000, 8271.000000
2172, 12451504.000000, 1713.750000, 8212.000000, 8276.000000, 8282.000000
2173, 12451664.000000, 1637.750000, 8224.000000, 8283.000000, 8293.000000
2174, 12451824.000000, 1553.750000, 8237.000000, 8292.000000, 8309.000000
2175, 12451984.000000, 1469.750000, 8253.000000, 8308.000000, 8332.000000
2176, 12452144.000000, 1389.750000, 8274.000000, 8329.000000, 8361.000000
2177, 12452304.000000, 1317.500000, 8291.000000, 8343.000000, 8380.000000
2178, 12452464.000000, 1257.500000, 8288.000000, 8342.000000, 8377.000000
2179, 12452624.000000, 1210.000000, 8267.000000, 8322.000000, 8349.000000
2180, 12452784.000000, 1177.500000, 8230.000000, 8270.000000, 8284.000000
2181, 12452944.000000, 1155.250000, 8188.000000, 8211.000000, 8208.000000
2182, 12453104.000000, 1140.250000, 8157.000000, 8176.000000, 8162.000000
2183, 12453264.000000, 1130.000000, 8143.000000, 8165.000000, 8144.000000
2184, 12453424.000000, 1120.750000, 8146.000000, 8165.000000, 8146.000000
2185, 12453584.000000, 1113.000000, 8150.000000, 8167.000000, 8152.000000
2186, 12453744.000000, 1103.000000, 8156.000000, 8169.000000, 8156.000000
2187, 12453904.000000, 1096.250000, 8162.000000, 8169.000000, 8158.000000
2188, 12454064.000000, 1086.250000, 8163.000000, 8168.000000, 8156.000000
2189, 12454224.000000, 1069.750000, 8161.000000, 8166.000000, 8151.000000
2190, 12454384.000000, 1043.250000, 8159.000000, 8166.000000, 8153.000000
2191, 12454544.000000, 1004.500000, 8158.000000, 8167.000000, 8152.000000
2192, 12454704.000000, 995.250000, 8160.000000, 8167.000000, 8153.000000
2193, 12454864.000000, 1099.000000, 8162.000000, 8166.000000, 8153.000000
2194, 12455024.000000, 1411.500000, 8159.000000, 8166.000000, 8153.000000
2195, 12455184.000000, 1871.250000, 8161.000000, 8169.000000, 8156.000000
2196, 12455344.000000, 2330.000000, 8162.000000, 8172.000000, 8161.000000
2197, 12455504.000000, 2657.000000, 8168.000000, 8171.000000, 8162.000000
2198, 12455664.000000, 2814.000000, 8169.000000, 8172.000000, 8162.000000
2199, 12455824.000000, 2813.000000, 8175.000000, 8179.000000, 8177.000000
2200, 12455984.000000, 2702.750000, 8176.000000, 8186.000000, 8190.000000
2201, 12456144.000000, 2523.250000, 8185.000000, 8185.000000, 8193.000000
2202, 12456304.000000, 2304.750000, 8183.000000, 8178.000000, 8177.000000
2203, 12456464.000000, 2072.000000, 8173.000000, 8169.000000, 8160.000000
2204, 12456624.000000, 1855.250000, 8172.000000, 8168.000000, 8158.000000
2205, 12456784.000000, 1694.750000, 8213.000000, 8299.000000, 8306.000000
2206, 12456944.000000, 1613.750000, 8560.000000, 7914.000000, 8102.000000
2207, 12457104.000000, 1608.250000, 7975.000000, 7794.000000, 7715.000000
2208, 12457264.000000, 1647.000000, 8163.000000, 8160.000000, 8130.000000
2209, 12457424.000000, 1701.250000, 8192.000000, 8238.000000, 8237.000000
2210, 12457584.000000, 1744.750000, 8201.000000, 8254.000000, 8257.000000
2211, 12457744.000000, 1754.500000, 8209.000000, 8261.000000, 8267.000000
2212, 12457904.000000, 1728.500000, 8222.000000, 8268.000000, 8279.000000
2213, 12458064.000000, 1674.250000, 8236.000000, 8276.000000, 8292.000000
2214, 12458224.000000, 1602.500000, 8253.000000, 8289.000000, 8313.000000
2215, 12458384.000000, 1524.000000, 8271.000000, 8308.000000, 8338.000000
2216, 12458544.000000, 1444.750000, 8288.000000, 8322.000000, 8359.000000
2217, 12458704.000000, 1372.250000, 8285.000000, 8320.000000, 8353.000000
2218, 12458864.000000, 1308.000000, 8266.000000, 8301.000000, 8327.000000
2219, 12459024.000000, 1255.500000, 8228.000000, 8259.000000, 8272.000000
2220, 12459184.000000, 1213.000000, 8186.000000, 8208.000000, 8207.000000
2221, 12459344.000000, 1176.750000, 8150.000000, 8175.000000, 8162.000000
2222, 12459504.000000, 1148.500000, 8138.000000, 8163.000000, 8146.000000
2223, 12459664.000000, 1128.250000, 8140.000000, 8160.000000, 8143.000000
2224, 12459824.000000, 1113.250000, 8145.000000, 8164.000000, 8150.000000
2225, 12459984.000000, 1104.500000, 8151.000000, 8166.000000, 8154.000000
2226, 12460144.000000, 1100.500000, 8155.000000, 8168.000000, 8157.000000
2227, 12460304.000000, 1095.250000, 8158.000000, 8167.000000, 8156.000000
2228, 12460464.000000, 1086.250000, 8156.000000, 8166.000000, 8153.000000
2229, 12460624.000000, 1068.500000, 8154.000000, 8166.000000, 8154.000000
2230, 12460784.000000, 1039.250000, 8152.000000, 8168.000000, 8153.000000
2231, 12460944.000000, 1010.500000, 8152.000000, 8171.000000, 8154.000000
2232, 12461104.000000, 1036.250000, 8153.000000, 8169.000000, 8154.000000
2233, 12461264.000000, 1205.000000, 8156.000000, 8169.000000, 8154.000000
2234, 12461424.000000, 1554.250000, 8157.000000, 8170.000000, 8156.000000
2235, 12461584.000000, 1983.000000, 8156.000000, 8173.000000, 8158.000000
2236, 12461744.000000, 2355.000000, 8165.000000, 8183.000000, 8176.000000
2237, 12461904.000000, 2586.500000, 8173.000000, 8189.000000, 8191.000000
2238, 12462064.000000, 2671.000000, 8177.000000, 8183.000000, 8182.000000
2239, 12462224.000000, 2627.250000, 8165.000000, 8174.000000, 8163.000000
2240, 12462384.000000, 2498.000000, 8161.000000, 8170.000000, 8155.000000
2241, 12462544.000000, 2310.000000, 8167.000000, 8186.000000, 8163.000000
2242, 12462704.000000, 2088.250000, 8326.000000, 8309.000000, 8369.000000
2243, 12462864.000000, 1860.000000, 8429.000000, 7825.000000, 7970.000000
2244, 12463024.000000, 1669.000000, 7989.000000, 7925.000000, 7827.000000
2245, 12463184.000000, 1553.750000, 8175.000000, 8198.000000, 8180.000000
2246, 12463344.000000, 1519.500000, 8190.000000, 8231.000000, 8225.000000
2247, 12463504.000000, 1549.000000, 8200.000000, 8239.000000, 8236.000000
2248, 12463664.000000, 1605.000000, 8210.000000, 8246.000000, 8249.000000
2249, 12463824.000000, 1655.500000, 8221.000000, 8252.000000, 8260.000000
2250, 12463984.000000, 1680.500000, 8236.000000, 8264.000000, 8278.000000
2251, 12464144.000000, 1673.250000, 8259.000000, 8278.000000, 8300.000000
2252, 12464304.000000, 1638.250000, 8278.000000, 8293.000000, 8321.000000
2253, 12464464.000000, 1580.500000, 8286.000000, 8299.000000, 8327.000000
2254, 12464624.000000, 1510.500000, 8277.000000, 8294.000000, 8320.000000
2255, 12464784.000000, 1436.750000, 8255.000000, 8273.000000, 8290.000000
2256, 12464944.000000, 1366.000000, 8216.000000, 8235.000000, 8240.000000
2257, 12465104.000000, 1300.000000, 8175.000000, 8193.000000, 8183.000000
2258, 12465264.000000, 1244.250000, 8149.000000, 8168.000000, 8151.000000
2259, 12465424.000000, 1197.750000, 8138.000000, 8162.000000, 8143.000000
2260, 12465584.000000, 1159.500000, 8145.000000, 8164.000000, 8148.000000
2261, 12465744.000000, 1130.500000, 8153.000000, 8165.000000, 8152.000000
2262, 12465904.000000, 1109.750000, 8158.000000, 8164.000000, 8151.000000
2263, 12466064.000000, 1094.750000, 8158.000000, 8166.000000, 8153.000000
2264, 12466224.000000, 1085.750000, 8160.000000, 8165.000000, 8153.000000
2265, 12466384.000000, 1076.750000, 8159.000000, 8165.000000, 8154.000000
2266, 12466544.000000, 1061.750000, 8156.000000, 8163.000000, 8150.000000
2267, 12466704.000000, 1039.500000, 8159.000000, 8163.000000, 8150.000000
2268, 12466864.000000, 1016.750000, 8162.000000, 8167.000000, 8158.000000
2269, 12467024.000000, 1043.000000, 8162.000000, 8173.000000, 8168.000000
2270, 12467184.000000, 1189.750000, 8169.000000, 8177.000000, 8181.000000
2271, 12467344.000000, 1498.000000, 8171.000000, 8171.000000, 8168.000000
2272, 12467504.000000, 1879.000000, 8161.000000, 8160.000000, 8145.000000
2273, 12467664.000000, 2219.250000, 8160.000000, 8156.000000, 8140.000000
2274, 12467824.000000, 2432.250000, 8182.000000, 8241.000000, 8228.000000
2275, 12467984.000000, 2514.250000, 8518.000000, 8103.000000, 8251.000000
2276, 12468144.000000, 2480.750000, 8067.000000, 7815.000000, 7799.000000
2277, 12468304.000000, 2360.250000, 8085.000000, 8033.000000, 7955.000000
2278, 12468464.000000, 2188.000000, 8184.000000, 8195.000000, 8187.000000
2279, 12468624.000000, 1981.750000, 8189.000000, 8211.000000, 8208.000000
2280, 12468784.000000, 1770.500000, 8198.000000, 8220.000000, 8221.000000
2281, 12468944.000000, 1591.750000, 8211.000000, 8223.000000, 8229.000000
2282, 12469104.000000, 1482.750000, 8226.000000, 8223.000000, 8235.000000
2283, 12469264.000000, 1452.000000, 8244.000000, 8226.000000, 8244.000000
2284, 12469424.000000, 1479.750000, 8261.000000, 8236.000000, 8261.000000
2285, 12469584.000000, 1536.250000, 8281.000000, 8248.000000, 8280.000000
2286, 12469744.000000, 1596.500000, 8285.000000, 8247.000000, 8278.000000
2287, 12469904.000000, 1636.500000, 8268.000000, 8233.000000, 8257.000000
2288, 12470064.000000, 1648.250000, 8232.000000, 8200.000000, 8212.000000
2289, 12470224.000000, 1626.000000, 8187.000000, 8158.000000, 8156.000000
2290, 12470384.000000, 1576.750000, 8151.000000, 8128.000000, 8114.000000
2291, 12470544.000000, 1514.250000, 8137.000000, 8117.000000, 8098.000000
2292, 12470704.000000, 1445.000000, 8138.000000, 8117.000000, 8098.000000
2293, 12470864.000000, 1376.750000, 8143.000000, 8121.000000, 8104.000000
2294, 12471024.000000, 1316.750000, 8149.000000, 8128.000000, 8115.000000
2295, 12471184.000000, 1263.000000, 8155.000000, 8135.000000, 8124.000000
2296, 12471344.000000, 1216.500000, 8158.000000, 8138.000000, 8125.000000
2297, 12471504.000000, 1177.500000, 8157.000000, 8139.000000, 8127.000000
2298, 12471664.000000, 1145.000000, 8155.000000, 8142.000000, 8129.000000
2299, 12471824.000000, 1119.500000, 8153.000000, 8149.000000, 8136.000000
2300, 12471984.000000, 1095.250000, 8159.000000, 8162.000000, 8155.000000
2301, 12472144.000000, 1087.250000, 8164.000000, 8177.000000, 8174.000000
2302, 12472304.000000, 1148.250000, 8170.000000, 8178.000000, 8180.000000
2303, 12472464.000000, 1357.250000, 8165.000000, 8178.000000, 8171.000000
2304, 12472624.000000, 1697.250000, 8153.000000, 8172.000000, 8155.000000
2305, 12472784.000000, 2076.750000, 8155.000000, 8174.000000, 8155.000000
2306, 12472944.000000, 2376.000000, 8201.000000, 8298.000000, 8301.000000
2307, 12473104.000000, 2547.250000, 8505.000000, 8009.000000, 8165.000000
2308, 12473264.000000, 2583.500000, 7975.000000, 7841.000000, 7772.000000
2309, 12473424.000000, 2516.250000, 8123.000000, 8117.000000, 8058.000000
2310, 12473584.000000, 2378.000000, 8181.000000, 8220.000000, 8212.000000
2311, 12473744.000000, 2191.500000, 8191.000000, 8227.000000, 8224.000000
2312, 12473904.000000, 1981.250000, 8202.000000, 8228.000000, 8226.000000
2313, 12474064.000000, 1772.500000, 8208.000000, 8227.000000, 8231.000000
2314, 12474224.000000, 1614.250000, 8226.000000, 8235.000000, 8247.000000
2315, 12474384.000000, 1528.250000, 8244.000000, 8248.000000, 8266.000000
2316, 12474544.000000, 1516.750000, 8263.000000, 8264.000000, 8290.000000
2317, 12474704.000000, 1553.500000, 8280.000000, 8278.000000, 8308.000000
2318, 12474864.000000, 1611.000000, 8278.000000, 8278.000000, 8306.000000
2319, 12475024.000000, 1661.750000, 8253.000000, 8261.000000, 8281.000000
2320, 12475184.000000, 1687.750000, 8219.000000, 8223.000000, 8230.000000
2321, 12475344.000000, 1681.500000, 8176.000000, 8176.000000, 8169.000000
2322, 12475504.000000, 1646.500000, 8147.000000, 8149.000000, 8130.000000
2323, 12475664.000000, 1591.500000, 8135.000000, 8140.000000, 8119.000000
2324, 12475824.000000, 1525.750000, 8135.000000, 8143.000000, 8122.000000
2325, 12475984.000000, 1457.500000, 8145.000000, 8149.000000, 8133.000000
2326, 12476144.000000, 1393.250000, 8153.000000, 8152.000000, 8137.000000
2327, 12476304.000000, 1339.000000, 8160.000000, 8156.000000, 8144.000000
2328, 12476464.000000, 1293.250000, 8156.000000, 8159.000000, 8146.000000
2329, 12476624.000000, 1256.500000, 8156.000000, 8163.000000, 8150.000000
2330, 12476784.000000, 1221.500000, 8155.000000, 8170.000000, 8157.000000
2331, 12476944.000000, 1184.000000, 8157.000000, 8177.000000, 8163.000000
2332, 12477104.000000, 1152.750000, 8164.000000, 8190.000000, 8183.000000
2333, 12477264.000000, 1204.250000, 8166.000000, 8200.000000, 8202.000000
2334, 12477424.000000, 1418.500000, 8170.000000, 8195.000000, 8195.000000
2335, 12477584.000000, 1817.750000, 8160.000000, 8196.000000, 8184.000000
2336, 12477744.000000, 2274.000000, 8158.000000, 8196.000000, 8179.000000
2337, 12477904.000000, 2650.750000, 8160.000000, 8213.000000, 8189.000000
2338, 12478064.000000, 2865.250000, 8280.000000, 8352.000000, 8394.000000
2339, 12478224.000000, 2926.250000, 8417.000000, 7829.000000, 7966.000000
2340, 12478384.000000, 2857.500000, 7975.000000, 7923.000000, 7814.000000
2341, 12478544.000000, 2712.500000, 8174.000000, 8236.000000, 8217.000000
2342, 12478704.000000, 2525.750000, 8186.000000, 8272.000000, 8265.000000
2343, 12478864.000000, 2316.500000, 8195.000000, 8281.000000, 8278.000000
2344, 12479024.000000, 2103.750000, 8202.000000, 8288.000000, 8288.000000
2345, 12479184.000000, 1923.250000, 8217.000000, 8291.000000, 8297.000000
2346, 12479344.000000, 1808.500000, 8233.000000, 8296.000000, 8308.000000
2347, 12479504.000000, 1765.500000, 8253.000000, 8308.000000, 8328.000000
2348, 12479664.000000, 1777.250000, 8270.000000, 8326.000000, 8353.000000
2349, 12479824.000000, 1814.500000, 8284.000000, 8340.000000, 8372.000000
2350, 12479984.000000, 1858.000000, 8277.000000, 8339.000000, 8367.000000
2351, 12480144.000000, 1880.750000, 8251.000000, 8313.000000, 8331.000000
2352, 12480304.000000, 1873.500000, 8207.000000, 8265.000000, 8268.000000
2353, 12480464.000000, 1830.000000, 8167.000000, 8224.000000, 8213.000000
2354, 12480624.000000, 1761.500000, 8142.000000, 8207.000000, 8187.000000
2355, 12480784.000000, 1684.000000, 8140.000000, 8202.000000, 8181.000000
2356, 12480944.000000, 1604.750000, 8147.000000, 8205.000000, 8186.000000
2357, 12481104.000000, 1532.250000, 8152.000000, 8207.000000, 8190.000000
2358, 12481264.000000, 1468.000000, 8157.000000, 8212.000000, 8198.000000
2359, 12481424.000000, 1418.750000, 8158.000000, 8214.000000, 8201.000000
2360, 12481584.000000, 1377.750000, 8160.000000, 8218.000000, 8204.000000
2361, 12481744.000000, 1340.000000, 8161.000000, 8218.000000, 8203.000000
2362, 12481904.000000, 1297.500000, 8159.000000, 8217.000000, 8200.000000
2363, 12482064.000000, 1253.750000, 8156.000000, 8216.000000, 8199.000000
2364, 12482224.000000, 1260.000000, 8158.000000, 8220.000000, 8205.000000
2365, 12482384.000000, 1422.250000, 8163.000000, 8227.000000, 8219.000000
2366, 12482544.000000, 1784.500000, 8172.000000, 8225.000000, 8225.000000
2367, 12482704.000000, 2268.000000, 8171.000000, 8216.000000, 8209.000000
2368, 12482864.000000, 2711.500000, 8157.000000, 8206.000000, 8186.000000
2369, 12483024.000000, 2999.000000, 8157.000000, 8204.000000, 8182.000000
2370, 12483184.000000, 3104.250000, 8173.000000, 8283.000000, 8258.000000
2371, 12483344.000000, 3064.000000, 8464.000000, 8148.000000, 8268.000000
2372, 12483504.000000, 2927.750000, 8158.000000, 7737.000000, 7745.000000
2373, 12483664.000000, 2747.750000, 8080.000000, 8067.000000, 7984.000000
2374, 12483824.000000, 2546.000000, 8179.000000, 8256.000000, 8243.000000
2375, 12483984.000000, 2331.500000, 8188.000000, 8274.000000, 8265.000000
2376, 12484144.000000, 2126.000000, 8203.000000, 8278.000000, 8275.000000
2377, 12484304.000000, 1968.250000, 8210.000000, 8283.000000, 8284.000000
2378, 12484464.000000, 1882.750000, 8223.000000, 8292.000000, 8298.000000
2379, 12484624.000000, 1858.250000, 8240.000000, 8303.000000, 8316.000000
2380, 12484784.000000, 1869.250000, 8262.000000, 8322.000000, 8344.000000
2381, 12484944.000000, 1889.750000, 8282.000000, 8336.000000, 8365.000000
2382, 12485104.000000, 1900.000000, 8284.000000, 8336.000000, 8364.000000
2383, 12485264.000000, 1882.250000, 8268.000000, 8322.000000, 8344.000000
2384, 12485424.000000, 1834.000000, 8233.000000, 8283.000000, 8293.000000
2385, 12485584.000000, 1761.000000, 8187.000000, 8228.000000, 8220.000000
2386, 12485744.000000, 1676.750000, 8151.000000, 8193.000000, 8171.000000
2387, 12485904.000000, 1589.250000, 8139.000000, 8177.000000, 8151.000000
2388, 12486064.000000, 1504.250000, 8136.000000, 8175.000000, 8149.000000
2389, 12486224.000000, 1429.000000, 8140.000000, 8178.000000, 8153.000000
2390, 12486384.000000, 1364.000000, 8149.000000, 8180.000000, 8159.000000
2391, 12486544.000000, 1311.500000, 8155.000000, 8179.000000, 8160.000000
2392, 12486704.000000, 1271.500000, 8156.000000, 8178.000000, 8159.000000
2393, 12486864.000000, 1240.750000, 8154.000000, 8178.000000, 8158.000000
2394, 12487024.000000, 1206.750000, 8152.000000, 8178.000000, 8157.000000
2395, 12487184.000000, 1166.500000, 8152.000000, 8177.000000, 8156.000000
2396, 12487344.000000, 1149.500000, 8153.000000, 8174.000000, 8151.000000
2397, 12487504.000000, 1246.750000, 8153.000000, 8172.000000, 8149.000000
2398, 12487664.000000, 1528.000000, 8153.000000, 8174.000000, 8151.000000
2399, 12487824.000000, 1970.500000, 8155.000000, 8178.000000, 8157.000000
2400, 12487984.000000, 2420.750000, 8163.000000, 8188.000000, 8176.000000
2401, 12488144.000000, 2750.750000, 8172.000000, 8192.000000, 8190.000000
2402, 12488304.000000, 2902.750000, 8174.000000, 8183.000000, 8174.000000
2403, 12488464.000000, 2906.750000, 8162.000000, 8174.000000, 8155.000000
2404, 12488624.000000, 2804.750000, 8159.000000, 8171.000000, 8148.000000
2405, 12488784.000000, 2653.500000, 8165.000000, 8193.000000, 8164.000000
2406, 12488944.000000, 2485.250000, 8332.000000, 8285.000000, 8337.000000
2407, 12489104.000000, 2302.250000, 8382.000000, 7678.000000, 7798.000000
2408, 12489264.000000, 2114.500000, 7994.000000, 7908.000000, 7791.000000
2409, 12489424.000000, 1948.250000, 8179.000000, 8224.000000, 8209.000000
2410, 12489584.000000, 1838.500000, 8189.000000, 8251.000000, 8242.000000
2411, 12489744.000000, 1784.750000, 8196.000000, 8260.000000, 8254.000000
2412, 12489904.000000, 1774.000000, 8205.000000, 8265.000000, 8263.000000
2413, 12490064.000000, 1780.000000, 8217.000000, 8274.000000, 8278.000000
2414, 12490224.000000, 1784.250000, 8232.000000, 8287.000000, 8299.000000
2415, 12490384.000000, 1769.250000, 8255.000000, 8303.000000, 8324.000000
2416, 12490544.000000, 1729.250000, 8276.000000, 8320.000000, 8347.000000
2417, 12490704.000000, 1665.750000, 8285.000000, 8329.000000, 8358.000000
2418, 12490864.000000, 1588.000000, 8276.000000, 8324.000000, 8351.000000
2419, 12491024.000000, 1505.750000, 8251.000000, 8296.000000, 8314.000000
2420, 12491184.000000, 1425.750000, 8209.000000, 8242.000000, 8244.000000
2421, 12491344.000000, 1351.250000, 8167.000000, 8194.000000, 8179.000000
2422, 12491504.000000, 1290.500000, 8143.000000, 8172.000000, 8149.000000
2423, 12491664.000000, 1241.000000, 8136.000000, 8167.000000, 8143.000000
2424, 12491824.000000, 1203.500000, 8139.000000, 8169.000000, 8147.000000
2425, 12491984.000000, 1174.750000, 8147.000000, 8170.000000, 8151.000000
2426, 12492144.000000, 1153.000000, 8154.000000, 8171.000000, 8155.000000
2427, 12492304.000000, 1138.750000, 8154.000000, 8171.000000, 8155.000000
2428, 12492464.000000, 1127.250000, 8153.000000, 8172.000000, 8157.000000
2429, 12492624.000000, 1108.500000, 8153.000000, 8172.000000, 8157.000000
2430, 12492784.000000, 1080.250000, 8155.000000, 8171.000000, 8154.000000
2431, 12492944.000000, 1056.250000, 8154.000000, 8168.000000, 8150.000000
2432, 12493104.000000, 1113.750000, 8153.000000, 8168.000000, 8151.000000
2433, 12493264.000000, 1343.750000, 8152.000000, 8171.000000, 8154.000000
2434, 12493424.000000, 1751.250000, 8154.000000, 8175.000000, 8159.000000
2435, 12493584.000000, 2296.000000, 8158.000000, 8176.000000, 8159.000000
2436, 12493744.000000, 2678.750000, 8163.000000, 8177.000000, 8165.000000
2437, 12493904.000000, 2836.750000, 8165.000000, 8185.000000, 8180.000000
2438, 12494064.000000, 2825.250000, 8172.000000, 8189.000000, 8193.000000
2439, 12494224.000000, 2700.000000, 8174.000000, 8186.000000, 8183.000000
2440, 12494384.000000, 2563.250000, 8164.000000, 8175.000000, 8160.000000
2441, 12494544.000000, 2377.250000, 8164.000000, 8170.000000, 8153.000000
2442, 12494704.000000, 2136.250000, 8172.000000, 8226.000000, 8202.000000
2443, 12494864.000000, 1954.250000, 8427.000000, 8160.000000, 8266.000000
2444, 12495024.000000, 1857.750000, 8275.000000, 7617.000000, 7687.000000
2445, 12495184.000000, 1807.750000, 8067.000000, 8003.000000, 7921.000000
2446, 12495344.000000, 1793.750000, 8187.000000, 8235.000000, 8229.000000
2447, 12495504.000000, 1792.750000, 8194.000000, 8256.000000, 8256.000000
2448, 12495664.000000, 1786.000000, 8202.000000, 8265.000000, 8269.000000
2449, 12495824.000000, 1762.000000, 8214.000000, 8272.000000, 8280.000000
2450, 12495984.000000, 1714.500000, 8228.000000, 8279.000000, 8292.000000
2451, 12496144.000000, 1647.500000, 8244.000000, 8290.000000, 8310.000000
2452, 12496304.000000, 1569.000000, 8262.000000, 8307.000000, 8335.000000
2453, 12496464.000000, 1487.750000, 8283.000000, 8325.000000, 8361.000000
2454, 12496624.000000, 1410.500000, 8290.000000, 8331.000000, 8369.000000
2455, 12496784.000000, 1340.750000, 8282.000000, 8321.000000, 8354.000000
2456, 12496944.000000, 1282.250000, 8251.000000, 8286.000000, 8308.000000
2457, 12497104.000000, 1238.000000, 8203.000000, 8231.000000, 8237.000000
2458, 12497264.000000, 1202.250000, 8162.000000, 8190.000000, 8181.000000
2459, 12497424.000000, 1175.750000, 8143.000000, 8173.000000, 8156.000000
2460, 12497584.000000, 1155.000000, 8142.000000, 8168.000000, 8150.000000
2461, 12497744.000000, 1138.750000, 8145.000000, 8168.000000, 8152.000000
2462, 12497904.000000, 1128.000000, 8149.000000, 8170.000000, 8157.000000
2463, 12498064.000000, 1116.000000, 8153.000000, 8172.000000, 8163.000000
2464, 12498224.000000, 1101.000000, 8158.000000, 8173.000000, 8164.000000
2465, 12498384.000000, 1076.000000, 8161.000000, 8171.000000, 8162.000000
2466, 12498544.000000, 1046.750000, 8160.000000, 8170.000000, 8160.000000
2467, 12498704.000000, 1052.750000, 8157.000000, 8171.000000, 8159.000000
2468, 12498864.000000, 1187.500000, 8157.000000, 8172.000000, 8162.000000
2469, 12499024.000000, 1504.250000, 8157.000000, 8172.000000, 8160.000000
2470, 12499184.000000, 1943.000000, 8160.000000, 8170.000000, 8158.000000
2471, 12499344.000000, 2364.500000, 8161.000000, 8169.000000, 8156.000000
2472, 12499504.000000, 2664.000000, 8161.000000, 8171.000000, 8158.000000
2473, 12499664.000000, 2803.000000, 8162.000000, 8172.000000, 8161.000000
2474, 12499824.000000, 2801.750000, 8164.000000, 8174.000000, 8163.000000
2475, 12499984.000000, 2715.250000, 8168.000000, 8174.000000, 8165.000000
2476, 12500144.000000, 2586.750000, 8176.000000, 8183.000000, 8183.000000
2477, 12500304.000000, 2435.500000, 8182.000000, 8189.000000, 8201.000000
2478, 12500464.000000, 2266.500000, 8184.000000, 8184.000000, 8188.000000
2479, 12500624.000000, 2091.500000, 8171.000000, 8176.000000, 8169.000000
2480, 12500784.000000, 1945.500000, 8172.000000, 8170.000000, 8160.000000
2481, 12500944.000000, 1850.750000, 8173.000000, 8192.000000, 8173.000000
2482, 12501104.000000, 1807.500000, 8350.000000, 8271.000000, 8339.000000
2483, 12501264.000000, 1799.250000, 8417.000000, 7627.000000, 7774.000000
2484, 12501424.000000, 1803.250000, 8013.000000, 7917.000000, 7815.000000
2485, 12501584.000000, 1798.500000, 8190.000000, 8229.000000, 8227.000000
2486, 12501744.000000, 1775.250000, 8197.000000, 8256.000000, 8260.000000
2487, 12501904.000000, 1725.000000, 8202.000000, 8266.000000, 8272.000000
2488, 12502064.000000, 1659.250000, 8211.000000, 8272.000000, 8282.000000
2489, 12502224.000000, 1583.250000, 8225.000000, 8280.000000, 8295.000000
2490, 12502384.000000, 1506.500000, 8240.000000, 8290.000000, 8311.000000
2491, 12502544.000000, 1434.250000, 8257.000000, 8305.000000, 8333.000000
2492, 12502704.000000, 1369.000000, 8276.000000, 8323.000000, 8358.000000
2493, 12502864.000000, 1312.000000, 8291.000000, 8335.000000, 8376.000000
2494, 12503024.000000, 1263.750000, 8286.000000, 8332.000000, 8368.000000
2495, 12503184.000000, 1225.750000, 8265.000000, 8303.000000, 8331.000000
2496, 12503344.000000, 1196.500000, 8220.000000, 8249.000000, 8261.000000
2497, 12503504.000000, 1176.500000, 8173.000000, 8198.000000, 8193.000000
2498, 12503664.000000, 1161.500000, 8147.000000, 8176.000000, 8161.000000
2499, 12503824.000000, 1146.500000, 8141.000000, 8169.000000, 8152.000000
2500, 12503984.000000, 1132.250000, 8146.000000, 8168.000000, 8153.000000
2501, 12504144.000000, 1122.000000, 8153.000000, 8168.000000, 8157.000000
2502, 12504304.000000, 1112.000000, 8157.000000, 8169.000000, 8161.000000
2503, 12504464.000000, 1100.250000, 8160.000000, 8172.000000, 8164.000000
2504, 12504624.000000, 1078.750000, 8164.000000, 8172.000000, 8165.000000
2505, 12504784.000000, 1046.250000, 8164.000000, 8170.000000, 8161.000000
2506, 12504944.000000, 1023.500000, 8163.000000, 8169.000000, 8159.000000
2507, 12505104.000000, 1082.750000, 8160.000000, 8168.000000, 8156.000000
2508, 12505264.000000, 1323.000000, 8159.000000, 8169.000000, 8158.000000
2509, 12505424.000000, 1734.750000, 8161.000000, 8169.000000, 8156.000000
2510, 12505584.000000, 2206.250000, 8166.000000, 8168.000000, 8158.000000
2511, 12505744.000000, 2589.750000, 8165.000000, 8169.000000, 8158.000000
2512, 12505904.000000, 2823.250000, 8162.000000, 8170.000000, 8159.000000
2513, 12506064.000000, 2896.500000, 8166.000000, 8173.000000, 8163.000000
2514, 12506224.000000, 2847.750000, 8168.000000, 8174.000000, 8165.000000
2515, 12506384.000000, 2730.750000, 8177.000000, 8180.000000, 8177.000000
2516, 12506544.000000, 2577.250000, 8178.000000, 8186.000000, 8188.000000
2517, 12506704.000000, 2402.250000, 8186.000000, 8188.000000, 8197.000000
2518, 12506864.000000, 2214.500000, 8184.000000, 8184.000000, 8184.000000
2519, 12507024.000000, 2049.750000, 8173.000000, 8174.000000, 8163.000000
2520, 12507184.000000, 1933.000000, 8176.000000, 8172.000000, 8161.000000
2521, 12507344.000000, 1875.250000, 8191.000000, 8263.000000, 8248.000000
2522, 12507504.000000, 1864.750000, 8500.000000, 8042.000000, 8190.000000
2523, 12507664.000000, 1876.250000, 8127.000000, 7650.000000, 7646.000000
2524, 12507824.000000, 1886.250000, 8128.000000, 8096.000000, 8045.000000
2525, 12507984.000000, 1874.000000, 8197.000000, 8245.000000, 8245.000000
2526, 12508144.000000, 1834.000000, 8202.000000, 8263.000000, 8267.000000
2527, 12508304.000000, 1769.500000, 8210.000000, 8270.000000, 8277.000000
2528, 12508464.000000, 1691.250000, 8220.000000, 8277.000000, 8287.000000
2529, 12508624.000000, 1607.000000, 8236.000000, 8284.000000, 8302.000000
2530, 12508784.000000, 1528.000000, 8253.000000, 8294.000000, 8318.000000
2531, 12508944.000000, 1454.250000, 8270.000000, 8310.000000, 8341.000000
2532, 12509104.000000, 1390.750000, 8288.000000, 8327.000000, 8366.000000
2533, 12509264.000000, 1339.500000, 8295.000000, 8334.000000, 8374.000000
2534, 12509424.000000, 1297.750000, 8284.000000, 8324.000000, 8360.000000
2535, 12509584.000000, 1265.250000, 8252.000000, 8284.000000, 8305.000000
2536, 12509744.000000, 1240.250000, 8206.000000, 8225.000000, 8231.000000
2537, 12509904.000000, 1221.500000, 8163.000000, 8182.000000, 8172.000000
2538, 12510064.000000, 1208.250000, 8144.000000, 8167.000000, 8150.000000
2539, 12510224.000000, 1198.000000, 8143.000000, 8165.000000, 8146.000000
2540, 12510384.000000, 1188.000000, 8150.000000, 8165.000000, 8150.000000
2541, 12510544.000000, 1177.750000, 8156.000000, 8166.000000, 8155.000000
2542, 12510704.000000, 1163.500000, 8158.000000, 8168.000000, 8157.000000
2543, 12510864.000000, 1146.000000, 8160.000000, 8169.000000, 8159.000000
2544, 12511024.000000, 1121.000000, 8163.000000, 8168.000000, 8158.000000
2545, 12511184.000000, 1089.750000, 8162.000000, 8166.000000, 8155.000000
2546, 12511344.000000, 1067.750000, 8158.000000, 8165.000000, 8150.000000
2547, 12511504.000000, 1125.250000, 8155.000000, 8166.000000, 8151.000000
2548, 12511664.000000, 1357.750000, 8158.000000, 8168.000000, 8155.000000
2549, 12511824.000000, 1765.250000, 8159.000000, 8169.000000, 8156.000000
2550, 12511984.000000, 2239.500000, 8162.000000, 8167.000000, 8154.000000
2551, 12512144.000000, 2633.500000, 8162.000000, 8167.000000, 8154.000000
2552, 12512304.000000, 2876.250000, 8161.000000, 8168.000000, 8155.000000
2553, 12512464.000000, 2952.250000, 8163.000000, 8170.000000, 8158.000000
2554, 12512624.000000, 2897.500000, 8167.000000, 8170.000000, 8159.000000
2555, 12512784.000000, 2764.750000, 8170.000000, 8172.000000, 8163.000000
2556, 12512944.000000, 2591.250000, 8172.000000, 8181.000000, 8179.000000
2557, 12513104.000000, 2394.500000, 8181.000000, 8186.000000, 8194.000000
2558, 12513264.000000, 2191.750000, 8182.000000, 8181.000000, 8183.000000
2559, 12513424.000000, 2021.750000, 8170.000000, 8172.000000, 8161.000000
2560, 12513584.000000, 1910.000000, 8170.000000, 8168.000000, 8155.000000
2561, 12513744.000000, 1864.500000, 8171.000000, 8214.000000, 8191.000000
2562, 12513904.000000, 1863.750000, 8419.000000, 8188.000000, 8292.000000
2563, 12514064.000000, 1886.500000, 8321.000000, 7589.000000, 7688.000000
2564, 12514224.000000, 1905.750000, 8058.000000, 7985.000000, 7901.000000
2565, 12514384.000000, 1899.500000, 8190.000000, 8235.000000, 8233.000000
2566, 12514544.000000, 1863.000000, 8195.000000, 8259.000000, 8260.000000
2567, 12514704.000000, 1797.500000, 8202.000000, 8269.000000, 8275.000000
2568, 12514864.000000, 1715.000000, 8212.000000, 8277.000000, 8287.000000
2569, 12515024.000000, 1625.250000, 8228.000000, 8284.000000, 8299.000000
2570, 12515184.000000, 1541.250000, 8244.000000, 8294.000000, 8316.000000
2571, 12515344.000000, 1465.000000, 8261.000000, 8310.000000, 8339.000000
2572, 12515504.000000, 1400.000000, 8280.000000, 8330.000000, 8368.000000
2573, 12515664.000000, 1347.500000, 8292.000000, 8340.000000, 8382.000000
2574, 12515824.000000, 1305.750000, 8284.000000, 8334.000000, 8372.000000
2575, 12515984.000000, 1273.250000, 8255.000000, 8300.000000, 8325.000000
2576, 12516144.000000, 1248.250000, 8212.000000, 8241.000000, 8251.000000
2577, 12516304.000000, 1228.250000, 8168.000000, 8192.000000, 8185.000000
2578, 12516464.000000, 1213.250000, 8143.000000, 8172.000000, 8155.000000
2579, 12516624.000000, 1200.500000, 8141.000000, 8166.000000, 8147.000000
2580, 12516784.000000, 1188.000000, 8147.000000, 8166.000000, 8151.000000
2581, 12516944.000000, 1178.000000, 8151.000000, 8169.000000, 8155.000000
2582, 12517104.000000, 1168.000000, 8158.000000, 8171.000000, 8160.000000
2583, 12517264.000000, 1154.500000, 8160.000000, 8172.000000, 8162.000000
2584, 12517424.000000, 1134.500000, 8163.000000, 8171.000000, 8161.000000
2585, 12517584.000000, 1105.500000, 8164.000000, 8168.000000, 8157.000000
2586, 12517744.000000, 1069.500000, 8159.000000, 8169.000000, 8156.000000
2587, 12517904.000000, 1072.750000, 8158.000000, 8170.000000, 8157.000000
2588, 12518064.000000, 1211.750000, 8160.000000, 8172.000000, 8160.000000
2589, 12518224.000000, 1547.750000, 8164.000000, 8171.000000, 8160.000000
2590, 12518384.000000, 2021.500000, 8166.000000, 8169.000000, 8157.000000
2591, 12518544.000000, 2480.250000, 8165.000000, 8171.000000, 8160.000000
2592, 12518704.000000, 2812.500000, 8164.000000, 8174.000000, 8163.000000
2593, 12518864.000000, 2967.750000, 8165.000000, 8177.000000, 8166.000000
2594, 12519024.000000, 2964.000000, 8169.000000, 8176.000000, 8166.000000
2595, 12519184.000000, 2853.500000, 8175.000000, 8183.000000, 8179.000000
2596, 12519344.000000, 2682.500000, 8176.000000, 8188.000000, 8190.000000
2597, 12519504.000000, 2481.750000, 8184.000000, 8188.000000, 8194.000000
2598, 12519664.000000, 2267.500000, 8182.000000, 8184.000000, 8181.000000
2599, 12519824.000000, 2068.250000, 8174.000000, 8174.000000, 8163.000000
2600, 12519984.000000, 1920.750000, 8175.000000, 8173.000000, 8161.000000
2601, 12520144.000000, 1845.500000, 8210.000000, 8298.000000, 8299.000000
2602, 12520304.000000, 1833.250000, 8548.000000, 7938.000000, 8116.000000
2603, 12520464.000000, 1853.000000, 7985.000000, 7781.000000, 7706.000000
2604, 12520624.000000, 1882.250000, 8159.000000, 8155.000000, 8120.000000
2605, 12520784.000000, 1896.750000, 8194.000000, 8239.000000, 8236.000000
2606, 12520944.000000, 1883.500000, 8199.000000, 8253.000000, 8253.000000
2607, 12521104.000000, 1839.000000, 8209.000000, 8261.000000, 8267.000000
2608, 12521264.000000, 1769.750000, 8221.000000, 8268.000000, 8278.000000
2609, 12521424.000000, 1687.250000, 8237.000000, 8275.000000, 8290.000000
2610, 12521584.000000, 1602.250000, 8253.000000, 8287.000000, 8309.000000
2611, 12521744.000000, 1524.750000, 8271.000000, 8304.000000, 8334.000000
2612, 12521904.000000, 1456.500000, 8292.000000, 8320.000000, 8358.000000
2613, 12522064.000000, 1396.500000, 8292.000000, 8321.000000, 8357.000000
2614, 12522224.000000, 1346.500000, 8276.000000, 8303.000000, 8332.000000
2615, 12522384.000000, 1308.750000, 8242.000000, 8262.000000, 8280.000000
2616, 12522544.000000, 1282.250000, 8194.000000, 8207.000000, 8209.000000
2617, 12522704.000000, 1260.250000, 8155.000000, 8175.000000, 8162.000000
2618, 12522864.000000, 1244.500000, 8141.000000, 8163.000000, 8146.000000
2619, 12523024.000000, 1230.750000, 8142.000000, 8161.000000, 8143.000000
2620, 12523184.000000, 1221.750000, 8149.000000, 8163.000000, 8148.000000
2621, 12523344.000000, 1216.500000, 8152.000000, 8165.000000, 8152.000000
2622, 12523504.000000, 1210.750000, 8155.000000, 8169.000000, 8158.000000
2623, 12523664.000000, 1199.750000, 8158.000000, 8171.000000, 8160.000000
2624, 12523824.000000, 1182.250000, 8160.000000, 8171.000000, 8159.000000
2625, 12523984.000000, 1151.500000, 8156.000000, 8169.000000, 8156.000000
2626, 12524144.000000, 1115.500000, 8152.000000, 8169.000000, 8154.000000
2627, 12524304.000000, 1112.500000, 8151.000000, 8170.000000, 8156.000000
2628, 12524464.000000, 1238.250000, 8154.000000, 8171.000000, 8157.000000
2629, 12524624.000000, 1555.500000, 8158.000000, 8170.000000, 8155.000000
2630, 12524784.000000, 2007.750000, 8157.000000, 8169.000000, 8155.000000
2631, 12524944.000000, 2449.500000, 8157.000000, 8171.000000, 8157.000000
2632, 12525104.000000, 2766.500000, 8159.000000, 8174.000000, 8163.000000
2633, 12525264.000000, 2917.500000, 8164.000000, 8174.000000, 8163.000000
2634, 12525424.000000, 2912.000000, 8167.000000, 8172.000000, 8161.000000
2635, 12525584.000000, 2799.750000, 8170.000000, 8175.000000, 8168.000000
2636, 12525744.000000, 2620.500000, 8172.000000, 8184.000000, 8182.000000
2637, 12525904.000000, 2403.000000, 8180.000000, 8192.000000, 8201.000000
2638, 12526064.000000, 2173.750000, 8185.000000, 8188.000000, 8194.000000
2639, 12526224.000000, 1970.750000, 8175.000000, 8179.000000, 8173.000000
2640, 12526384.000000, 1832.250000, 8172.000000, 8176.000000, 8166.000000
2641, 12526544.000000, 1775.500000, 8174.000000, 8207.000000, 8188.000000
2642, 12526704.000000, 1783.250000, 8393.000000, 8276.000000, 8369.000000
2643, 12526864.000000, 1821.750000, 8373.000000, 7756.000000, 7874.000000
2644, 12527024.000000, 1864.250000, 8027.000000, 7964.000000, 7869.000000
2645, 12527184.000000, 1885.250000, 8188.000000, 8216.000000, 8211.000000
2646, 12527344.000000, 1874.500000, 8196.000000, 8241.000000, 8243.000000
2647, 12527504.000000, 1831.500000, 8207.000000, 8251.000000, 8258.000000
2648, 12527664.000000, 1765.500000, 8218.000000, 8257.000000, 8269.000000
2649, 12527824.000000, 1686.750000, 8233.000000, 8264.000000, 8282.000000
2650, 12527984.000000, 1602.500000, 8246.000000, 8275.000000, 8298.000000
2651, 12528144.000000, 1522.500000, 8263.000000, 8289.000000, 8319.000000
2652, 12528304.000000, 1452.500000, 8284.000000, 8305.000000, 8343.000000
2653, 12528464.000000, 1395.000000, 8297.000000, 8313.000000, 8354.000000
2654, 12528624.000000, 1349.250000, 8293.000000, 8305.000000, 8345.000000
2655, 12528784.000000, 1312.750000, 8263.000000, 8280.000000, 8310.000000
2656, 12528944.000000, 1280.250000, 8223.000000, 8237.000000, 8253.000000
2657, 12529104.000000, 1258.250000, 8182.000000, 8193.000000, 8197.000000
2658, 12529264.000000, 1244.250000, 8155.000000, 8170.000000, 8163.000000
2659, 12529424.000000, 1234.250000, 8149.000000, 8162.000000, 8153.000000
2660, 12529584.000000, 1226.750000, 8152.000000, 8162.000000, 8155.000000
2661, 12529744.000000, 1220.500000, 8158.000000, 8163.000000, 8160.000000
2662, 12529904.000000, 1214.750000, 8163.000000, 8167.000000, 8165.000000
2663, 12530064.000000, 1206.250000, 8169.000000, 8167.000000, 8167.000000
2664, 12530224.000000, 1194.500000, 8171.000000, 8165.000000, 8164.000000
2665, 12530384.000000, 1175.250000, 8167.000000, 8163.000000, 8160.000000
2666, 12530544.000000, 1142.750000, 8164.000000, 8163.000000, 8160.000000
2667, 12530704.000000, 1109.250000, 8163.000000, 8164.000000, 8160.000000
2668, 12530864.000000, 1139.750000, 8167.000000, 8164.000000, 8161.000000
2669, 12531024.000000, 1342.750000, 8169.000000, 8164.000000, 8162.000000
2670, 12531184.000000, 1741.750000, 8167.000000, 8164.000000, 8161.000000
2671, 12531344.000000, 2235.250000, 8169.000000, 8165.000000, 8163.000000
2672, 12531504.000000, 2664.250000, 8169.000000, 8168.000000, 8166.000000
2673, 12531664.000000, 2938.250000, 8177.000000, 8172.000000, 8175.000000
2674, 12531824.000000, 3036.750000, 8181.000000, 8176.000000, 8184.000000
2675, 12531984.000000, 2994.250000, 8187.000000, 8177.000000, 8193.000000
2676, 12532144.000000, 2848.250000, 8186.000000, 8173.000000, 8182.000000
2677, 12532304.000000, 2646.750000, 8176.000000, 8167.000000, 8167.000000
2678, 12532464.000000, 2416.750000, 8179.000000, 8165.000000, 8165.000000
2679, 12532624.000000, 2184.750000, 8201.000000, 8249.000000, 8250.000000
2680, 12532784.000000, 1986.750000, 8529.000000, 8101.000000, 8261.000000
2681, 12532944.000000, 1862.750000, 8093.000000, 7794.000000, 7795.000000
2682, 12533104.000000, 1822.250000, 8104.000000, 8055.000000, 7994.000000
2683, 12533264.000000, 1837.000000, 8196.000000, 8214.000000, 8218.000000
2684, 12533424.000000, 1883.000000, 8207.000000, 8230.000000, 8239.000000
2685, 12533584.000000, 1927.250000, 8212.000000, 8236.000000, 8250.000000
2686, 12533744.000000, 1951.750000, 8221.000000, 8245.000000, 8263.000000
2687, 12533904.000000, 1938.500000, 8238.000000, 8254.000000, 8278.000000
2688, 12534064.000000, 1891.000000, 8255.000000, 8263.000000, 8294.000000
2689, 12534224.000000, 1819.000000, 8274.000000, 8277.000000, 8315.000000
2690, 12534384.000000, 1734.750000, 8294.000000, 8292.000000, 8337.000000
2691, 12534544.000000, 1648.500000, 8298.000000, 8296.000000, 8340.000000
2692, 12534704.000000, 1568.500000, 8283.000000, 8287.000000, 8327.000000
2693, 12534864.000000, 1500.750000, 8255.000000, 8256.000000, 8283.000000
2694, 12535024.000000, 1441.500000, 8207.000000, 8209.000000, 8220.000000
2695, 12535184.000000, 1393.750000, 8167.000000, 8173.000000, 8170.000000
2696, 12535344.000000, 1355.500000, 8144.000000, 8159.000000, 8150.000000
2697, 12535504.000000, 1326.750000, 8142.000000, 8158.000000, 8148.000000
2698, 12535664.000000, 1306.000000, 8151.000000, 8158.000000, 8150.000000
2699, 12535824.000000, 1291.000000, 8156.000000, 8160.000000, 8155.000000
2700, 12535984.000000, 1283.500000, 8158.000000, 8163.000000, 8158.000000
2701, 12536144.000000, 1279.500000, 8160.000000, 8165.000000, 8161.000000
2702, 12536304.000000, 1272.000000, 8158.000000, 8167.000000, 8160.000000
2703, 12536464.000000, 1257.000000, 8160.000000, 8166.000000, 8160.000000
2704, 12536624.000000, 1230.250000, 8160.000000, 8165.000000, 8157.000000
2705, 12536784.000000, 1203.000000, 8157.000000, 8164.000000, 8156.000000
2706, 12536944.000000, 1256.250000, 8157.000000, 8166.000000, 8158.000000
2707, 12537104.000000, 1475.500000, 8159.000000, 8168.000000, 8161.000000
2708, 12537264.000000, 1890.500000, 8163.000000, 8170.000000, 8164.000000
2709, 12537424.000000, 2369.000000, 8170.000000, 8177.000000, 8177.000000
2710, 12537584.000000, 2771.500000, 8175.000000, 8182.000000, 8192.000000
2711, 12537744.000000, 3005.000000, 8175.000000, 8176.000000, 8182.000000
2712, 12537904.000000, 3075.750000, 8166.000000, 8169.000000, 8163.000000
2713, 12538064.000000, 3008.500000, 8167.000000, 8164.000000, 8153.000000
2714, 12538224.000000, 2853.000000, 8173.000000, 8207.000000, 8190.000000
2715, 12538384.000000, 2649.250000, 8398.000000, 8253.000000, 8353.000000
2716, 12538544.000000, 2415.750000, 8311.000000, 7785.000000, 7875.000000
2717, 12538704.000000, 2181.250000, 8023.000000, 7969.000000, 7874.000000
2718, 12538864.000000, 1985.000000, 8182.000000, 8209.000000, 8202.000000
2719, 12539024.000000, 1869.250000, 8190.000000, 8231.000000, 8229.000000
2720, 12539184.000000, 1834.500000, 8195.000000, 8240.000000, 8241.000000
2721, 12539344.000000, 1855.250000, 8208.000000, 8247.000000, 8253.000000
2722, 12539504.000000, 1902.000000, 8222.000000, 8256.000000, 8269.000000
2723, 12539664.000000, 1948.250000, 8240.000000, 8265.000000, 8284.000000
2724, 12539824.000000, 1971.500000, 8262.000000, 8281.000000, 8307.000000
2725, 12539984.000000, 1959.500000, 8280.000000, 8297.000000, 8331.000000
2726, 12540144.000000, 1911.250000, 8289.000000, 8305.000000, 8341.000000
2727, 12540304.000000, 1835.500000, 8282.000000, 8300.000000, 8333.000000
2728, 12540464.000000, 1746.250000, 8258.000000, 8272.000000, 8295.000000
2729, 12540624.000000, 1654.250000, 8207.000000, 8227.000000, 8232.000000
2730, 12540784.000000, 1569.250000, 8162.000000, 8187.000000, 8176.000000
2731, 12540944.000000, 1496.250000, 8138.000000, 8168.000000, 8151.000000
2732, 12541104.000000, 1434.500000, 8132.000000, 8163.000000, 8142.000000
2733, 12541264.000000, 1383.750000, 8138.000000, 8164.000000, 8145.000000
2734, 12541424.000000, 1347.250000, 8144.000000, 8165.000000, 8148.000000
2735, 12541584.000000, 1318.750000, 8149.000000, 8168.000000, 8153.000000
2736, 12541744.000000, 1300.500000, 8153.000000, 8173.000000, 8160.000000
2737, 12541904.000000, 1286.500000, 8157.000000, 8174.000000, 8162.000000
2738, 12542064.000000, 1269.750000, 8155.000000, 8172.000000, 8157.000000
2739, 12542224.000000, 1247.250000, 8154.000000, 8172.000000, 8156.000000
2740, 12542384.000000, 1224.500000, 8150.000000, 8171.000000, 8154.000000
2741, 12542544.000000, 1268.000000, 8151.000000, 8173.000000, 8155.000000
2742, 12542704.000000, 1473.000000, 8153.000000, 8173.000000, 8156.000000
2743, 12542864.000000, 1887.500000, 8163.000000, 8182.000000, 8174.000000
2744, 12543024.000000, 2393.750000, 8164.000000, 8188.000000, 8185.000000
2745, 12543184.000000, 2832.000000, 8168.000000, 8181.000000, 8180.000000
2746, 12543344.000000, 3098.250000, 8164.000000, 8179.000000, 8168.000000
2747, 12543504.000000, 3188.750000, 8155.000000, 8173.000000, 8152.000000
2748, 12543664.000000, 3130.000000, 8161.000000, 8176.000000, 8155.000000
2749, 12543824.000000, 2976.000000, 8228.000000, 8318.000000, 8331.000000
2750, 12543984.000000, 2776.000000, 8479.000000, 7902.000000, 8056.000000
2751, 12544144.000000, 2549.500000, 7962.000000, 7859.000000, 7765.000000
2752, 12544304.000000, 2313.500000, 8151.000000, 8171.000000, 8131.000000
2753, 12544464.000000, 2097.500000, 8183.000000, 8235.000000, 8224.000000
2754, 12544624.000000, 1946.750000, 8190.000000, 8245.000000, 8239.000000
2755, 12544784.000000, 1879.000000, 8196.000000, 8252.000000, 8248.000000
2756, 12544944.000000, 1877.500000, 8208.000000, 8261.000000, 8263.000000
2757, 12545104.000000, 1911.500000, 8228.000000, 8270.000000, 8281.000000
2758, 12545264.000000, 1955.000000, 8248.000000, 8282.000000, 8300.000000
2759, 12545424.000000, 1975.250000, 8269.000000, 8302.000000, 8328.000000
2760, 12545584.000000, 1960.250000, 8286.000000, 8315.000000, 8345.000000
2761, 12545744.000000, 1908.750000, 8285.000000, 8314.000000, 8343.000000
2762, 12545904.000000, 1827.000000, 8265.000000, 8294.000000, 8314.000000
2763, 12546064.000000, 1733.250000, 8226.000000, 8253.000000, 8259.000000
2764, 12546224.000000, 1634.750000, 8175.000000, 8204.000000, 8192.000000
2765, 12546384.000000, 1543.250000, 8141.000000, 8177.000000, 8154.000000
2766, 12546544.000000, 1460.750000, 8129.000000, 8168.000000, 8141.000000
2767, 12546704.000000, 1393.000000, 8131.000000, 8168.000000, 8141.000000
2768, 12546864.000000, 1339.000000, 8139.000000, 8168.000000, 8144.000000
2769, 12547024.000000, 1297.750000, 8145.000000, 8171.000000, 8149.000000
2770, 12547184.000000, 1268.500000, 8147.000000, 8172.000000, 8153.000000
2771, 12547344.000000, 1247.000000, 8150.000000, 8174.000000, 8155.000000
2772, 12547504.000000, 1228.000000, 8150.000000, 8175.000000, 8154.000000
2773, 12547664.000000, 1200.500000, 8151.000000, 8172.000000, 8150.000000
2774, 12547824.000000, 1168.500000, 8147.000000, 8170.000000, 8147.000000
2775, 12547984.000000, 1194.750000, 8150.000000, 8172.000000, 8151.000000
2776, 12548144.000000, 1383.750000, 8148.000000, 8173.000000, 8151.000000
2777, 12548304.000000, 1799.750000, 8151.000000, 8174.000000, 8152.000000
2778, 12548464.000000, 2338.250000, 8161.000000, 8182.000000, 8169.000000
2779, 12548624.000000, 2822.750000, 8163.000000, 8188.000000, 8180.000000
2780, 12548784.000000, 3127.500000, 8165.000000, 8182.000000, 8175.000000
2781, 12548944.000000, 3238.250000, 8161.000000, 8178.000000, 8161.000000
2782, 12549104.000000, 3189.250000, 8154.000000, 8172.000000, 8148.000000
2783, 12549264.000000, 3037.500000, 8158.000000, 8174.000000, 8149.000000
2784, 12549424.000000, 2842.500000, 8220.000000, 8319.000000, 8325.000000
2785, 12549584.000000, 2631.250000, 8489.000000, 7900.000000, 8053.000000
2786, 12549744.000000, 2406.000000, 7962.000000, 7838.000000, 7740.000000
2787, 12549904.000000, 2188.500000, 8152.000000, 8177.000000, 8136.000000
2788, 12550064.000000, 2018.250000, 8180.000000, 8243.000000, 8230.000000
2789, 12550224.000000, 1923.000000, 8189.000000, 8256.000000, 8249.000000
2790, 12550384.000000, 1895.500000, 8198.000000, 8263.000000, 8260.000000
2791, 12550544.000000, 1908.250000, 8207.000000, 8270.000000, 8271.000000
2792, 12550704.000000, 1935.250000, 8226.000000, 8279.000000, 8287.000000
2793, 12550864.000000, 1951.250000, 8243.000000, 8292.000000, 8307.000000
2794, 12551024.000000, 1937.750000, 8263.000000, 8309.000000, 8333.000000
2795, 12551184.000000, 1890.250000, 8284.000000, 8324.000000, 8356.000000
2796, 12551344.000000, 1812.500000, 8283.000000, 8325.000000, 8355.000000
2797, 12551504.000000, 1718.000000, 8267.000000, 8306.000000, 8329.000000
2798, 12551664.000000, 1617.000000, 8227.000000, 8261.000000, 8269.000000
2799, 12551824.000000, 1520.000000, 8177.000000, 8208.000000, 8197.000000
2800, 12551984.000000, 1435.000000, 8141.000000, 8178.000000, 8155.000000
2801, 12552144.000000, 1365.000000, 8130.000000, 8170.000000, 8142.000000
2802, 12552304.000000, 1309.250000, 8135.000000, 8168.000000, 8143.000000
2803, 12552464.000000, 1265.250000, 8139.000000, 8168.000000, 8144.000000
2804, 12552624.000000, 1233.500000, 8144.000000, 8171.000000, 8150.000000
2805, 12552784.000000, 1211.250000, 8149.000000, 8173.000000, 8154.000000
2806, 12552944.000000, 1196.250000, 8152.000000, 8177.000000, 8158.000000
2807, 12553104.000000, 1180.000000, 8154.000000, 8176.000000, 8158.000000
2808, 12553264.000000, 1153.250000, 8152.000000, 8174.000000, 8153.000000
2809, 12553424.000000, 1122.250000, 8151.000000, 8172.000000, 8152.000000
2810, 12553584.000000, 1171.250000, 8149.000000, 8173.000000, 8152.000000
2811, 12553744.000000, 1403.250000, 8150.000000, 8174.000000, 8153.000000
2812, 12553904.000000, 1871.000000, 8153.000000, 8174.000000, 8155.000000
2813, 12554064.000000, 2430.500000, 8153.000000, 8174.000000, 8153.000000
2814, 12554224.000000, 2910.750000, 8153.000000, 8175.000000, 8154.000000
2815, 12554384.000000, 3192.750000, 8155.000000, 8181.000000, 8164.000000
2816, 12554544.000000, 3281.000000, 8159.000000, 8189.000000, 8178.000000
2817, 12554704.000000, 3215.000000, 8171.000000, 8188.000000, 8187.000000
2818, 12554864.000000, 3058.750000, 8170.000000, 8182.000000, 8171.000000
2819, 12555024.000000, 2867.000000, 8159.000000, 8174.000000, 8153.000000
2820, 12555184.000000, 2662.000000, 8159.000000, 8174.000000, 8153.000000
2821, 12555344.000000, 2445.000000, 8175.000000, 8251.000000, 8227.000000
2822, 12555504.000000, 2235.750000, 8469.000000, 8118.000000, 8240.000000
2823, 12555664.000000, 2072.750000, 8199.000000, 7669.000000, 7691.000000
2824, 12555824.000000, 1980.250000, 8081.000000, 8040.000000, 7959.000000
2825, 12555984.000000, 1946.000000, 8179.000000, 8237.000000, 8224.000000
2826, 12556144.000000, 1947.000000, 8188.000000, 8256.000000, 8249.000000
2827, 12556304.000000, 1961.000000, 8201.000000, 8264.000000, 8263.000000
2828, 12556464.000000, 1966.000000, 8211.000000, 8270.000000, 8272.000000
2829, 12556624.000000, 1944.750000, 8221.000000, 8278.000000, 8286.000000
2830, 12556784.000000, 1891.500000, 8239.000000, 8291.000000, 8307.000000
2831, 12556944.000000, 1808.750000, 8260.000000, 8311.000000, 8335.000000
2832, 12557104.000000, 1711.250000, 8284.000000, 8328.000000, 8362.000000
2833, 12557264.000000, 1611.000000, 8293.000000, 8334.000000, 8370.000000
2834, 12557424.000000, 1514.250000, 8282.000000, 8326.000000, 8357.000000
2835, 12557584.000000, 1428.250000, 8253.000000, 8293.000000, 8315.000000
2836, 12557744.000000, 1358.250000, 8206.000000, 8239.000000, 8243.000000
2837, 12557904.000000, 1304.500000, 8164.000000, 8196.000000, 8183.000000
2838, 12558064.000000, 1262.000000, 8143.000000, 8177.000000, 8156.000000
2839, 12558224.000000, 1228.250000, 8136.000000, 8172.000000, 8148.000000
2840, 12558384.000000, 1203.250000, 8139.000000, 8174.000000, 8152.000000
2841, 12558544.000000, 1185.750000, 8146.000000, 8177.000000, 8158.000000
2842, 12558704.000000, 1175.000000, 8152.000000, 8177.000000, 8160.000000
2843, 12558864.000000, 1168.000000, 8154.000000, 8177.000000, 8161.000000
2844, 12559024.000000, 1155.500000, 8154.000000, 8176.000000, 8160.000000
2845, 12559184.000000, 1128.000000, 8152.000000, 8177.000000, 8160.000000
2846, 12559344.000000, 1087.000000, 8154.000000, 8176.000000, 8160.000000
2847, 12559504.000000, 1090.750000, 8155.000000, 8174.000000, 8155.000000
2848, 12559664.000000, 1259.000000, 8155.000000, 8173.000000, 8154.000000
2849, 12559824.000000, 1679.500000, 8153.000000, 8173.000000, 8154.000000
2850, 12559984.000000, 2258.000000, 8153.000000, 8177.000000, 8158.000000
2851, 12560144.000000, 2807.750000, 8156.000000, 8178.000000, 8161.000000
2852, 12560304.000000, 3177.500000, 8159.000000, 8178.000000, 8159.000000
2853, 12560464.000000, 3337.000000, 8161.000000, 8177.000000, 8158.000000
2854, 12560624.000000, 3320.500000, 8160.000000, 8178.000000, 8160.000000
2855, 12560784.000000, 3188.250000, 8163.000000, 8183.000000, 8169.000000
2856, 12560944.000000, 3009.750000, 8169.000000, 8191.000000, 8183.000000
2857, 12561104.000000, 2817.750000, 8180.000000, 8192.000000, 8195.000000
2858, 12561264.000000, 2606.000000, 8178.000000, 8184.000000, 8178.000000
2859, 12561424.000000, 2386.000000, 8167.000000, 8176.000000, 8159.000000
2860, 12561584.000000, 2190.750000, 8167.000000, 8175.000000, 8158.000000
2861, 12561744.000000, 2058.500000, 8178.000000, 8230.000000, 8206.000000
2862, 12561904.000000, 1996.000000, 8430.000000, 8172.000000, 8276.000000
2863, 12562064.000000, 1981.250000, 8293.000000, 7612.000000, 7688.000000
2864, 12562224.000000, 1985.500000, 8063.000000, 8000.000000, 7913.000000
2865, 12562384.000000, 1987.000000, 8188.000000, 8240.000000, 8233.000000
2866, 12562544.000000, 1965.250000, 8195.000000, 8262.000000, 8259.000000
2867, 12562704.000000, 1914.250000, 8206.000000, 8270.000000, 8272.000000
2868, 12562864.000000, 1835.750000, 8215.000000, 8275.000000, 8281.000000
2869, 12563024.000000, 1741.250000, 8225.000000, 8283.000000, 8294.000000
2870, 12563184.000000, 1641.250000, 8240.000000, 8294.000000, 8311.000000
2871, 12563344.000000, 1542.250000, 8262.000000, 8312.000000, 8338.000000
2872, 12563504.000000, 1451.500000, 8282.000000, 8329.000000, 8362.000000
2873, 12563664.000000, 1375.250000, 8294.000000, 8338.000000, 8375.000000
2874, 12563824.000000, 1314.500000, 8288.000000, 8333.000000, 8368.000000
2875, 12563984.000000, 1267.000000, 8264.000000, 8305.000000, 8330.000000
2876, 12564144.000000, 1231.250000, 8219.000000, 8248.000000, 8255.000000
2877, 12564304.000000, 1203.750000, 8174.000000, 8196.000000, 8185.000000
2878, 12564464.000000, 1183.750000, 8147.000000, 8175.000000, 8154.000000
2879, 12564624.000000, 1167.500000, 8139.000000, 8169.000000, 8145.000000
2880, 12564784.000000, 1153.250000, 8141.000000, 8169.000000, 8146.000000
2881, 12564944.000000, 1138.750000, 8149.000000, 8171.000000, 8152.000000
2882, 12565104.000000, 1125.500000, 8156.000000, 8171.000000, 8154.000000
2883, 12565264.000000, 1113.750000, 8157.000000, 8170.000000, 8156.000000
2884, 12565424.000000, 1097.750000, 8159.000000, 8170.000000, 8157.000000
2885, 12565584.000000, 1071.250000, 8157.000000, 8172.000000, 8156.000000
2886, 12565744.000000, 1027.750000, 8158.000000, 8171.000000, 8154.000000
2887, 12565904.000000, 1009.750000, 8159.000000, 8169.000000, 8152.000000
2888, 12566064.000000, 1127.500000, 8157.000000, 8170.000000, 8152.000000
2889, 12566224.000000, 1501.500000, 8156.000000, 8169.000000, 8152.000000
2890, 12566384.000000, 2085.250000, 8156.000000, 8172.000000, 8155.000000
2891, 12566544.000000, 2683.250000, 8159.000000, 8173.000000, 8156.000000
2892, 12566704.000000, 3122.500000, 8161.000000, 8171.000000, 8154.000000
2893, 12566864.000000, 3345.500000, 8162.000000, 8172.000000, 8157.000000
2894, 12567024.000000, 3377.250000, 8161.000000, 8175.000000, 8158.000000
2895, 12567184.000000, 3268.000000, 8163.000000, 8177.000000, 8163.000000
2896, 12567344.000000, 3090.250000, 8174.000000, 8185.000000, 8182.000000
2897, 12567504.000000, 2891.500000, 8178.000000, 8190.000000, 8192.000000
2898, 12567664.000000, 2680.500000, 8184.000000, 8184.000000, 8184.000000
2899, 12567824.000000, 2460.250000, 8175.000000, 8176.000000, 8168.000000
2900, 12567984.000000, 2254.250000, 8166.000000, 8172.000000, 8158.000000
2901, 12568144.000000, 2105.000000, 8170.000000, 8174.000000, 8159.000000
2902, 12568304.000000, 2020.750000, 8236.000000, 8327.000000, 8341.000000
2903, 12568464.000000, 1992.500000, 8492.000000, 7744.000000, 7915.000000
2904, 12568624.000000, 1995.250000, 7964.000000, 7776.000000, 7665.000000
2905, 12568784.000000, 2001.750000, 8178.000000, 8204.000000, 8192.000000
2906, 12568944.000000, 1986.000000, 8190.000000, 8254.000000, 8252.000000
2907, 12569104.000000, 1937.250000, 8200.000000, 8264.000000, 8266.000000
2908, 12569264.000000, 1862.250000, 8205.000000, 8268.000000, 8272.000000
2909, 12569424.000000, 1769.250000, 8216.000000, 8275.000000, 8286.000000
2910, 12569584.000000, 1668.250000, 8229.000000, 8283.000000, 8299.000000
2911, 12569744.000000, 1568.250000, 8249.000000, 8297.000000, 8322.000000
2912, 12569904.000000, 1474.000000, 8268.000000, 8313.000000, 8345.000000
2913, 12570064.000000, 1390.250000, 8285.000000, 8328.000000, 8367.000000
2914, 12570224.000000, 1321.250000, 8288.000000, 8331.000000, 8370.000000
2915, 12570384.000000, 1270.750000, 8273.000000, 8317.000000, 8350.000000
2916, 12570544.000000, 1234.000000, 8238.000000, 8270.000000, 8288.000000
2917, 12570704.000000, 1206.500000, 8190.000000, 8210.000000, 8210.000000
2918, 12570864.000000, 1183.250000, 8152.000000, 8175.000000, 8160.000000
2919, 12571024.000000, 1165.500000, 8135.000000, 8165.000000, 8146.000000
2920, 12571184.000000, 1149.750000, 8135.000000, 8166.000000, 8147.000000
2921, 12571344.000000, 1133.500000, 8144.000000, 8168.000000, 8153.000000
2922, 12571504.000000, 1120.250000, 8149.000000, 8168.000000, 8153.000000
2923, 12571664.000000, 1110.000000, 8153.000000, 8168.000000, 8157.000000
2924, 12571824.000000, 1099.250000, 8153.000000, 8168.000000, 8157.000000
2925, 12571984.000000, 1077.250000, 8154.000000, 8168.000000, 8156.000000
2926, 12572144.000000, 1045.750000, 8154.000000, 8167.000000, 8155.000000
2927, 12572304.000000, 1001.000000, 8155.000000, 8165.000000, 8152.000000
2928, 12572464.000000, 993.250000, 8154.000000, 8164.000000, 8150.000000
2929, 12572624.000000, 1138.000000, 8153.000000, 8166.000000, 8153.000000
2930, 12572784.000000, 1540.750000, 8155.000000, 8168.000000, 8155.000000
2931, 12572944.000000, 2114.500000, 8157.000000, 8167.000000, 8153.000000
2932, 12573104.000000, 2675.250000, 8160.000000, 8167.000000, 8153.000000
2933, 12573264.000000, 3065.750000, 8159.000000, 8166.000000, 8153.000000
2934, 12573424.000000, 3247.000000, 8159.000000, 8169.000000, 8156.000000
2935, 12573584.000000, 3240.500000, 8162.000000, 8170.000000, 8159.000000
2936, 12573744.000000, 3113.500000, 8166.000000, 8175.000000, 8167.000000
2937, 12573904.000000, 2925.250000, 8175.000000, 8182.000000, 8182.000000
2938, 12574064.000000, 2711.000000, 8181.000000, 8183.000000, 8189.000000
2939, 12574224.000000, 2484.500000, 8178.000000, 8178.000000, 8176.000000
2940, 12574384.000000, 2252.500000, 8166.000000, 8170.000000, 8158.000000
2941, 12574544.000000, 2059.500000, 8169.000000, 8168.000000, 8154.000000
2942, 12574704.000000, 1933.500000, 8179.000000, 8246.000000, 8225.000000
2943, 12574864.000000, 1880.250000, 8474.000000, 8069.000000, 8204.000000
2944, 12575024.000000, 1879.750000, 8175.000000, 7598.000000, 7620.000000
2945, 12575184.000000, 1901.250000, 8106.000000, 8067.000000, 8007.000000
2946, 12575344.000000, 1916.250000, 8189.000000, 8243.000000, 8240.000000
2947, 12575504.000000, 1904.500000, 8197.000000, 8262.000000, 8262.000000
2948, 12575664.000000, 1857.750000, 8202.000000, 8270.000000, 8272.000000
2949, 12575824.000000, 1779.750000, 8213.000000, 8276.000000, 8285.000000
2950, 12575984.000000, 1683.000000, 8227.000000, 8286.000000, 8300.000000
2951, 12576144.000000, 1583.000000, 8244.000000, 8297.000000, 8317.000000
2952, 12576304.000000, 1466.500000, 8263.000000, 8313.000000, 8341.000000
2953, 12576464.000000, 1350.750000, 8282.000000, 8331.000000, 8366.000000
2954, 12576624.000000, 1277.500000, 8290.000000, 8341.000000, 8379.000000
2955, 12576784.000000, 1227.250000, 8282.000000, 8333.000000, 8366.000000
2956, 12576944.000000, 1188.000000, 8257.000000, 8296.000000, 8318.000000
2957, 12577104.000000, 1160.250000, 8208.000000, 8236.000000, 8238.000000
2958, 12577264.000000, 1144.500000, 8164.000000, 8188.000000, 8173.000000
2959, 12577424.000000, 1127.500000, 8140.000000, 8168.000000, 8145.000000
2960, 12577584.000000, 1112.000000, 8135.000000, 8165.000000, 8140.000000
2961, 12577744.000000, 1103.250000, 8144.000000, 8166.000000, 8145.000000
2962, 12577904.000000, 1093.250000, 8150.000000, 8166.000000, 8147.000000
2963, 12578064.000000, 1081.750000, 8155.000000, 8168.000000, 8151.000000
2964, 12578224.000000, 1066.000000, 8155.000000, 8170.000000, 8153.000000
2965, 12578384.000000, 1036.000000, 8159.000000, 8172.000000, 8157.000000
2966, 12578544.000000, 994.250000, 8159.000000, 8169.000000, 8152.000000
2967, 12578704.000000, 972.750000, 8157.000000, 8168.000000, 8150.000000
2968, 12578864.000000, 1068.250000, 8158.000000, 8168.000000, 8151.000000
2969, 12579024.000000, 1386.500000, 8156.000000, 8169.000000, 8152.000000
2970, 12579184.000000, 1898.500000, 8157.000000, 8172.000000, 8154.000000
2971, 12579344.000000, 2430.750000, 8161.000000, 8171.000000, 8154.000000
2972, 12579504.000000, 2821.500000, 8161.000000, 8170.000000, 8153.000000
2973, 12579664.000000, 3016.750000, 8161.000000, 8171.000000, 8154.000000
2974, 12579824.000000, 3035.250000, 8160.000000, 8172.000000, 8156.000000
2975, 12579984.000000, 2922.750000, 8164.000000, 8173.000000, 8158.000000
2976, 12580144.000000, 2741.750000, 8170.000000, 8176.000000, 8165.000000
2977, 12580304.000000, 2527.250000, 8174.000000, 8183.000000, 8178.000000
2978, 12580464.000000, 2294.750000, 8183.000000, 8188.000000, 8193.000000
2979, 12580624.000000, 2062.000000, 8182.000000, 8183.000000, 8180.000000
2980, 12580784.000000, 1875.250000, 8167.000000, 8175.000000, 8160.000000
2981, 12580944.000000, 1765.000000, 8170.000000, 8172.000000, 8155.000000
2982, 12581104.000000, 1730.000000, 8174.000000, 8226.000000, 8199.000000
2983, 12581264.000000, 1747.750000, 8450.000000, 8153.000000, 8268.000000
2984, 12581424.000000, 1787.250000, 8269.000000, 7596.000000, 7664.000000
2985, 12581584.000000, 1819.750000, 8074.000000, 8017.000000, 7936.000000
2986, 12581744.000000, 1820.500000, 8193.000000, 8242.000000, 8236.000000
2987, 12581904.000000, 1784.250000, 8199.000000, 8264.000000, 8262.000000
2988, 12582064.000000, 1716.750000, 8204.000000, 8272.000000, 8273.000000
2989, 12582224.000000, 1630.750000, 8214.000000, 8280.000000, 8286.000000
2990, 12582384.000000, 1537.500000, 8227.000000, 8288.000000, 8300.000000
2991, 12582544.000000, 1447.500000, 8245.000000, 8298.000000, 8316.000000
2992, 12582704.000000, 1365.750000, 8263.000000, 8313.000000, 8339.000000
2993, 12582864.000000, 1296.750000, 8280.000000, 8332.000000, 8364.000000
2994, 12583024.000000, 1238.250000, 8293.000000, 8343.000000, 8381.000000
2995, 12583184.000000, 1195.500000, 8285.000000, 8338.000000, 8371.000000
2996, 12583344.000000, 1164.750000, 8261.000000, 8303.000000, 8326.000000
2997, 12583504.000000, 1142.250000, 8218.000000, 8245.000000, 8253.000000
2998, 12583664.000000, 1128.250000, 8172.000000, 8193.000000, 8181.000000
2999, 12583824.000000, 1118.000000, 8147.000000, 8171.000000, 8152.000000
3000, 12583984.000000, 1105.500000, 8144.000000, 8166.000000, 8145.000000
3001, 12584144.000000, 1096.250000, 8150.000000, 8167.000000, 8148.000000
3002, 12584304.000000, 1087.000000, 8155.000000, 8168.000000, 8151.000000
3003, 12584464.000000, 1080.250000, 8157.000000, 8168.000000, 8152.000000
3004, 12584624.000000, 1070.250000, 8160.000000, 8169.000000, 8155.000000
3005, 12584784.000000, 1051.000000, 8159.000000, 8170.000000, 8155.000000
3006, 12584944.000000, 1017.750000, 8160.000000, 8168.000000, 8152.000000
3007, 12585104.000000, 979.500000, 8158.000000, 8167.000000, 8150.000000
3008, 12585264.000000, 1000.000000, 8154.000000, 8166.000000, 8148.000000
3009, 12585424.000000, 1188.250000, 8155.000000, 8168.000000, 8151.000000
3010, 12585584.000000, 1596.000000, 8156.000000, 8169.000000, 8152.000000
3011, 12585744.000000, 2110.750000, 8161.000000, 8168.000000, 8151.000000
3012, 12585904.000000, 2559.250000, 8160.000000, 8168.000000, 8150.000000
3013, 12586064.000000, 2837.000000, 8161.000000, 8169.000000, 8152.000000
3014, 12586224.000000, 2932.250000, 8162.000000, 8172.000000, 8157.000000
3015, 12586384.000000, 2873.000000, 8173.000000, 8184.000000, 8179.000000
3016, 12586544.000000, 2720.250000, 8177.000000, 8188.000000, 8189.000000
3017, 12586704.000000, 2513.250000, 8183.000000, 8181.000000, 8180.000000
3018, 12586864.000000, 2277.250000, 8174.000000, 8172.000000, 8163.000000
3019, 12587024.000000, 2036.250000, 8164.000000, 8168.000000, 8151.000000
3020, 12587184.000000, 1824.250000, 8170.000000, 8176.000000, 8157.000000
3021, 12587344.000000, 1687.000000, 8257.000000, 8327.000000, 8349.000000
3022, 12587504.000000, 1636.000000, 8490.000000, 7695.000000, 7873.000000
3023, 12587664.000000, 1652.000000, 7965.000000, 7822.000000, 7706.000000
3024, 12587824.000000, 1699.750000, 8183.000000, 8214.000000, 8203.000000
3025, 12587984.000000, 1749.000000, 8193.000000, 8255.000000, 8251.000000
3026, 12588144.000000, 1772.250000, 8200.000000, 8267.000000, 8264.000000
3027, 12588304.000000, 1759.250000, 8208.000000, 8273.000000, 8275.000000
3028, 12588464.000000, 1710.000000, 8216.000000, 8279.000000, 8286.000000
3029, 12588624.000000, 1635.500000, 8232.000000, 8289.000000, 8303.000000
3030, 12588784.000000, 1548.750000, 8253.000000, 8305.000000, 8327.000000
3031, 12588944.000000, 1461.250000, 8273.000000, 8323.000000, 8352.000000
3032, 12589104.000000, 1378.750000, 8288.000000, 8336.000000, 8371.000000
3033, 12589264.000000, 1309.500000, 8283.000000, 8335.000000, 8367.000000
3034, 12589424.000000, 1249.500000, 8266.000000, 8315.000000, 8341.000000
3035, 12589584.000000, 1202.000000, 8232.000000, 8263.000000, 8275.000000
3036, 12589744.000000, 1166.250000, 8188.000000, 8203.000000, 8198.000000
3037, 12589904.000000, 1141.500000, 8153.000000, 8169.000000, 8150.000000
3038, 12590064.000000, 1128.250000, 8139.000000, 8160.000000, 8136.000000
3039, 12590224.000000, 1119.250000, 8143.000000, 8162.000000, 8141.000000
3040, 12590384.000000, 1113.500000, 8153.000000, 8164.000000, 8147.000000
3041, 12590544.000000, 1109.750000, 8161.000000, 8164.000000, 8151.000000
3042, 12590704.000000, 1105.750000, 8162.000000, 8165.000000, 8152.000000
3043, 12590864.000000, 1095.500000, 8159.000000, 8165.000000, 8150.000000
3044, 12591024.000000, 1075.500000, 8159.000000, 8167.000000, 8152.000000
3045, 12591184.000000, 1043.250000, 8156.000000, 8165.000000, 8148.000000
3046, 12591344.000000, 1012.000000, 8156.000000, 8163.000000, 8146.000000
3047, 12591504.000000, 1056.500000, 8154.000000, 8163.000000, 8145.000000
3048, 12591664.000000, 1273.750000, 8154.000000, 8164.000000, 8148.000000
3049, 12591824.000000, 1686.250000, 8154.000000, 8167.000000, 8151.000000
3050, 12591984.000000, 2166.250000, 8158.000000, 8167.000000, 8152.000000
3051, 12592144.000000, 2561.750000, 8168.000000, 8176.000000, 8171.000000
3052, 12592304.000000, 2780.500000, 8169.000000, 8181.000000, 8181.000000
3053, 12592464.000000, 2832.250000, 8173.000000, 8178.000000, 8180.000000
3054, 12592624.000000, 2756.500000, 8170.000000, 8175.000000, 8166.000000
3055, 12592784.000000, 2594.000000, 8162.000000, 8165.000000, 8150.000000
3056, 12592944.000000, 2384.750000, 8163.000000, 8165.000000, 8147.000000
3057, 12593104.000000, 2143.250000, 8203.000000, 8303.000000, 8303.000000
3058, 12593264.000000, 1904.000000, 8523.000000, 7848.000000, 8026.000000
3059, 12593424.000000, 1709.000000, 7955.000000, 7757.000000, 7664.000000
3060, 12593584.000000, 1605.000000, 8166.000000, 8177.000000, 8155.000000
3061, 12593744.000000, 1587.250000, 8190.000000, 8242.000000, 8238.000000
3062, 12593904.000000, 1626.500000, 8197.000000, 8257.000000, 8257.000000
3063, 12594064.000000, 1690.250000, 8202.000000, 8265.000000, 8267.000000
3064, 12594224.000000, 1743.750000, 8216.000000, 8270.000000, 8279.000000
3065, 12594384.000000, 1767.000000, 8231.000000, 8280.000000, 8295.000000
3066, 12594544.000000, 1749.250000, 8249.000000, 8294.000000, 8317.000000
3067, 12594704.000000, 1698.250000, 8266.000000, 8311.000000, 8341.000000
3068, 12594864.000000, 1623.750000, 8282.000000, 8328.000000, 8363.000000
3069, 12595024.000000, 1540.500000, 8284.000000, 8333.000000, 8369.000000
3070, 12595184.000000, 1456.250000, 8268.000000, 8316.000000, 8344.000000
3071, 12595344.000000, 1377.750000, 8234.000000, 8266.000000, 8281.000000
3072, 12595504.000000, 1311.000000, 8187.000000, 8205.000000, 8203.000000
3073, 12595664.000000, 1256.500000, 8151.000000, 8171.000000, 8157.000000
3074, 12595824.000000, 1214.000000, 8135.000000, 8160.000000, 8141.000000
3075, 12595984.000000, 1184.750000, 8140.000000, 8159.000000, 8142.000000
3076, 12596144.000000, 1163.750000, 8148.000000, 8160.000000, 8146.000000
3077, 12596304.000000, 1150.250000, 8151.000000, 8161.000000, 8149.000000
3078, 12596464.000000, 1143.500000, 8151.000000, 8163.000000, 8151.000000
3079, 12596624.000000, 1137.000000, 8153.000000, 8165.000000, 8154.000000
3080, 12596784.000000, 1123.750000, 8154.000000, 8163.000000, 8151.000000
3081, 12596944.000000, 1101.000000, 8152.000000, 8161.000000, 8148.000000
3082, 12597104.000000, 1072.500000, 8152.000000, 8159.000000, 8146.000000
3083, 12597264.000000, 1074.250000, 8151.000000, 8158.000000, 8146.000000
3084, 12597424.000000, 1192.500000, 8151.000000, 8159.000000, 8147.000000
3085, 12597584.000000, 1489.000000, 8154.000000, 8159.000000, 8147.000000
3086, 12597744.000000, 1915.500000, 8161.000000, 8168.000000, 8165.000000
3087, 12597904.000000, 2320.750000, 8164.000000, 8171.000000, 8175.000000
3088, 12598064.000000, 2602.000000, 8170.000000, 8168.000000, 8174.000000
3089, 12598224.000000, 2721.000000, 8162.000000, 8162.000000, 8155.000000
3090, 12598384.000000, 2698.000000, 8155.000000, 8151.000000, 8136.000000
3091, 12598544.000000, 2578.250000, 8157.000000, 8151.000000, 8133.000000
3092, 12598704.000000, 2390.500000, 8210.000000, 8298.000000, 8305.000000
3093, 12598864.000000, 2162.500000, 8534.000000, 7786.000000, 7973.000000
3094, 12599024.000000, 1919.000000, 7948.000000, 7765.000000, 7660.000000
3095, 12599184.000000, 1705.000000, 8163.000000, 8167.000000, 8143.000000
3096, 12599344.000000, 1564.000000, 8178.000000, 8220.000000, 8208.000000
