2598, 27359448.000000, 1627.250000, 8195.500000, 8209.000000, 8201.000000
2599, 27359608.000000, 1591.125000, 8155.000000, 8176.500000, 8147.500000
2600, 27359768.000000, 1543.375000, 8136.500000, 8164.500000, 8135.000000
2601, 27359928.000000, 1481.250000, 8140.500000, 8159.500000, 8132.500000
2602, 27360088.000000, 1418.250000, 8153.000000, 8162.000000, 8135.500000
2603, 27360248.000000, 1358.750000, 8156.000000, 8162.500000, 8138.000000
2604, 27360408.000000, 1308.250000, 8170.000000, 8169.500000, 8151.000000
2605, 27360568.000000, 1263.375000, 8158.500000, 8171.500000, 8148.500000
2606, 27360728.000000, 1215.375000, 8153.000000, 8165.000000, 8142.500000
2607, 27360888.000000, 1156.875000, 8153.500000, 8179.500000, 8158.000000
2608, 27361048.000000, 1133.875000, 8173.500000, 8170.000000, 8161.000000
2609, 27361208.000000, 1264.250000, 8164.500000, 8160.000000, 8141.000000
2610, 27361368.000000, 1628.000000, 8148.500000, 8162.500000, 8138.000000
2611, 27361528.000000, 2134.125000, 8150.000000, 8163.000000, 8137.500000
2612, 27361688.000000, 2566.875000, 8176.500000, 8281.500000, 8264.500000
2613, 27361848.000000, 2810.500000, 8545.000000, 7988.500000, 8146.500000
2614, 27362008.000000, 2845.500000, 8019.000000, 7788.500000, 7713.500000
2615, 27362168.000000, 2746.625000, 8113.500000, 8093.000000, 8020.000000
2616, 27362328.000000, 2584.750000, 8163.000000, 8228.500000, 8206.500000
2617, 27362488.000000, 2410.625000, 8195.500000, 8222.000000, 8210.000000
2618, 27362648.000000, 2233.000000, 8190.500000, 8240.500000, 8231.500000
2619, 27362808.000000, 2054.875000, 8209.500000, 8247.000000, 8241.000000
2620, 27362968.000000, 1875.125000, 8232.500000, 8238.000000, 8246.000000
2621, 27363128.000000, 1721.750000, 8239.500000, 8262.500000, 8277.000000
2622, 27363288.000000, 1617.125000, 8279.000000, 8281.500000, 8298.500000
2623, 27363448.000000, 1576.875000, 8297.500000, 8315.500000, 8346.000000
2624, 27363608.000000, 1588.875000, 8300.000000, 8309.500000, 8340.500000
2625, 27363768.000000, 1630.625000, 8292.500000, 8289.500000, 8315.500000
2626, 27363928.000000, 1675.250000, 8228.500000, 8260.000000, 8265.000000
2627, 27364088.000000, 1700.250000, 8188.000000, 8190.500000, 8181.000000
2628, 27364248.000000, 1696.750000, 8141.000000, 8172.000000, 8143.500000
2629, 27364408.000000, 1672.625000, 8137.500000, 8154.500000, 8127.500000
2630, 27364568.000000, 1635.625000, 8132.500000, 8165.500000, 8139.000000
2631, 27364728.000000, 1592.250000, 8145.500000, 8158.000000, 8135.500000
2632, 27364888.000000, 1547.250000, 8154.000000, 8166.500000, 8143.500000
2633, 27365048.000000, 1503.125000, 8155.500000, 8166.000000, 8144.000000
2634, 27365208.000000, 1463.625000, 8164.000000, 8178.000000, 8160.500000
2635, 27365368.000000, 1419.375000, 8172.000000, 8174.500000, 8166.500000
2636, 27365528.000000, 1365.875000, 8171.500000, 8175.000000, 8169.000000
2637, 27365688.000000, 1348.125000, 8163.500000, 8170.000000, 8155.500000
2638, 27365848.000000, 1468.625000, 8158.500000, 8159.500000, 8133.500000
2639, 27366008.000000, 1806.500000, 8158.000000, 8167.000000, 8143.500000
2640, 27366168.000000, 2271.750000, 8182.500000, 8300.500000, 8294.000000
2641, 27366328.000000, 2700.375000, 8506.000000, 7978.000000, 8128.000000
2642, 27366488.000000, 2950.625000, 8000.000000, 7833.000000, 7753.500000
2643, 27366648.000000, 3017.750000, 8121.000000, 8123.500000, 8062.500000
2644, 27366808.000000, 2936.875000, 8171.500000, 8212.000000, 8194.500000
2645, 27366968.000000, 2786.375000, 8181.000000, 8223.000000, 8218.000000
2646, 27367128.000000, 2611.750000, 8188.000000, 8221.500000, 8218.500000
2647, 27367288.000000, 2435.750000, 8196.000000, 8224.000000, 8225.500000
2648, 27367448.000000, 2260.000000, 8221.500000, 8226.000000, 8236.000000
2649, 27367608.000000, 2080.875000, 8243.000000, 8239.000000, 8259.000000
2650, 27367768.000000, 1920.625000, 8264.500000, 8270.500000, 8300.000000
2651, 27367928.000000, 1800.125000, 8283.000000, 8288.500000, 8326.000000
2652, 27368088.000000, 1735.375000, 8295.500000, 8286.000000, 8323.000000
2653, 27368248.000000, 1718.000000, 8274.500000, 8265.000000, 8294.000000
2654, 27368408.000000, 1733.000000, 8218.500000, 8231.000000, 8242.500000
2655, 27368568.000000, 1750.250000, 8157.000000, 8189.500000, 8180.500000
2656, 27368728.000000, 1748.750000, 8143.000000, 8146.000000, 8129.500000
2657, 27368888.000000, 1724.500000, 8124.000000, 8149.000000, 8125.000000
2658, 27369048.000000, 1685.250000, 8137.000000, 8155.000000, 8135.500000
2659, 27369208.000000, 1641.250000, 8131.000000, 8160.000000, 8138.500000
2660, 27369368.000000, 1586.375000, 8153.000000, 8150.500000, 8138.000000
2661, 27369528.000000, 1526.000000, 8149.000000, 8161.000000, 8148.500000
2662, 27369688.000000, 1467.000000, 8152.000000, 8169.500000, 8161.000000
2663, 27369848.000000, 1404.250000, 8161.500000, 8181.500000, 8185.500000
2664, 27370008.000000, 1342.500000, 8166.500000, 8160.500000, 8152.000000
2665, 27370168.000000, 1321.500000, 8160.500000, 8156.500000, 8145.000000
2666, 27370328.000000, 1455.375000, 8138.000000, 8152.000000, 8131.500000
2667, 27370488.000000, 1763.875000, 8146.000000, 8185.500000, 8155.500000
2668, 27370648.000000, 2157.750000, 8321.500000, 8290.000000, 8357.500000
2669, 27370808.000000, 2489.000000, 8370.500000, 7731.000000, 7840.000000
2670, 27370968.000000, 2676.000000, 8012.500000, 7926.500000, 7814.000000
2671, 27371128.000000, 2702.375000, 8153.000000, 8199.500000, 8179.000000
2672, 27371288.000000, 2613.750000, 8166.500000, 8227.500000, 8219.500000
2673, 27371448.000000, 2464.875000, 8182.000000, 8224.500000, 8217.000000
2674, 27371608.000000, 2307.750000, 8182.500000, 8232.500000, 8234.000000
2675, 27371768.000000, 2151.000000, 8215.000000, 8237.000000, 8249.500000
2676, 27371928.000000, 1981.125000, 8220.500000, 8265.500000, 8279.500000
2677, 27372088.000000, 1808.500000, 8246.500000, 8285.500000, 8313.500000
2678, 27372248.000000, 1653.375000, 8277.500000, 8321.500000, 8355.500000
2679, 27372408.000000, 1546.250000, 8294.500000, 8339.500000, 8378.500000
2680, 27372568.000000, 1495.000000, 8286.500000, 8330.000000, 8369.000000
2681, 27372728.000000, 1490.625000, 8248.000000, 8297.000000, 8325.500000
2682, 27372888.000000, 1511.000000, 8195.500000, 8241.500000, 8247.000000
2683, 27373048.000000, 1527.375000, 8151.500000, 8201.000000, 8184.000000
2684, 27373208.000000, 1526.125000, 8126.500000, 8185.500000, 8166.000000
2685, 27373368.000000, 1505.375000, 8123.000000, 8190.500000, 8170.000000
2686, 27373528.000000, 1467.250000, 8136.500000, 8184.000000, 8166.500000
2687, 27373688.000000, 1415.750000, 8141.000000, 8190.000000, 8172.500000
2688, 27373848.000000, 1361.000000, 8145.000000, 8190.500000, 8179.500000
2689, 27374008.000000, 1300.875000, 8144.500000, 8191.000000, 8178.500000
2690, 27374168.000000, 1245.750000, 8155.000000, 8199.500000, 8195.000000
2691, 27374328.000000, 1192.625000, 8152.500000, 8200.500000, 8202.000000
2692, 27374488.000000, 1155.125000, 8152.000000, 8188.000000, 8186.500000
2693, 27374648.000000, 1209.875000, 8139.500000, 8190.500000, 8174.000000
2694, 27374808.000000, 1458.625000, 8137.000000, 8177.000000, 8157.000000
2695, 27374968.000000, 1870.625000, 8147.000000, 8190.500000, 8167.000000
2696, 27375128.000000, 2288.000000, 8301.500000, 8301.500000, 8365.500000
2697, 27375288.000000, 2558.375000, 8384.000000, 7733.500000, 7861.500000
2698, 27375448.000000, 2650.500000, 7990.500000, 7931.000000, 7815.000000
2699, 27375608.000000, 2621.125000, 8147.000000, 8212.000000, 8194.500000
2700, 27375768.000000, 2517.625000, 8167.000000, 8246.000000, 8238.000000
2701, 27375928.000000, 2387.750000, 8176.000000, 8249.000000, 8246.500000
2702, 27376088.000000, 2250.375000, 8187.500000, 8258.000000, 8262.000000
2703, 27376248.000000, 2109.125000, 8215.000000, 8260.000000, 8267.000000
2704, 27376408.000000, 1964.625000, 8224.500000, 8278.000000, 8297.500000
2705, 27376568.000000, 1828.500000, 8244.000000, 8293.500000, 8322.000000
2706, 27376728.000000, 1720.125000, 8275.000000, 8314.000000, 8354.500000
2707, 27376888.000000, 1645.000000, 8293.500000, 8331.000000, 8375.000000
2708, 27377048.000000, 1619.625000, 8293.000000, 8325.500000, 8367.500000
2709, 27377208.000000, 1630.125000, 8266.000000, 8287.500000, 8316.000000
2710, 27377368.000000, 1655.750000, 8199.000000, 8226.000000, 8232.000000
2711, 27377528.000000, 1669.750000, 8147.000000, 8183.000000, 8171.000000
2712, 27377688.000000, 1662.375000, 8132.000000, 8176.500000, 8154.000000
2713, 27377848.000000, 1638.375000, 8125.500000, 8159.000000, 8135.000000
2714, 27378008.000000, 1602.000000, 8145.500000, 8167.500000, 8150.000000
2715, 27378168.000000, 1556.500000, 8142.000000, 8174.500000, 8158.500000
2716, 27378328.000000, 1500.750000, 8151.500000, 8165.500000, 8153.000000
2717, 27378488.000000, 1445.750000, 8148.000000, 8175.000000, 8165.000000
2718, 27378648.000000, 1391.375000, 8163.000000, 8171.500000, 8151.500000
2719, 27378808.000000, 1329.250000, 8165.000000, 8185.000000, 8175.000000
2720, 27378968.000000, 1285.625000, 8167.000000, 8183.000000, 8185.500000
2721, 27379128.000000, 1345.250000, 8159.500000, 8173.500000, 8163.000000
2722, 27379288.000000, 1613.375000, 8153.500000, 8179.000000, 8157.000000
2723, 27379448.000000, 2041.125000, 8154.500000, 8171.000000, 8150.000000
2724, 27379608.000000, 2457.000000, 8146.000000, 8215.500000, 8181.500000
2725, 27379768.000000, 2731.000000, 8371.000000, 8211.000000, 8293.500000
2726, 27379928.000000, 2825.625000, 8370.000000, 7593.500000, 7698.000000
2727, 27380088.000000, 2791.500000, 8032.500000, 7955.000000, 7845.000000
2728, 27380248.000000, 2688.625000, 8153.000000, 8235.500000, 8217.000000
2729, 27380408.000000, 2564.125000, 8179.000000, 8247.500000, 8237.500000
2730, 27380568.000000, 2444.750000, 8180.000000, 8254.000000, 8256.000000
2731, 27380728.000000, 2327.875000, 8191.500000, 8261.500000, 8265.000000
2732, 27380888.000000, 2202.125000, 8210.000000, 8270.000000, 8280.000000
2733, 27381048.000000, 2071.375000, 8239.500000, 8285.500000, 8302.000000
2734, 27381208.000000, 1959.375000, 8257.000000, 8305.500000, 8337.000000
2735, 27381368.000000, 1884.875000, 8280.500000, 8336.500000, 8379.500000
2736, 27381528.000000, 1859.375000, 8303.000000, 8341.500000, 8390.500000
2737, 27381688.000000, 1875.625000, 8297.500000, 8328.500000, 8374.000000
2738, 27381848.000000, 1901.625000, 8260.500000, 8278.500000, 8312.000000
2739, 27382008.000000, 1911.875000, 8194.000000, 8223.500000, 8234.000000
2740, 27382168.000000, 1893.250000, 8151.500000, 8183.000000, 8170.500000
2741, 27382328.000000, 1858.125000, 8127.500000, 8159.000000, 8138.500000
2742, 27382488.000000, 1808.375000, 8126.500000, 8168.000000, 8147.500000
2743, 27382648.000000, 1745.250000, 8144.000000, 8159.000000, 8141.500000
2744, 27382808.000000, 1679.250000, 8145.500000, 8162.500000, 8149.000000
2745, 27382968.000000, 1616.125000, 8151.000000, 8146.500000, 8127.500000
2746, 27383128.000000, 1556.000000, 8145.000000, 8141.000000, 8125.000000
2747, 27383288.000000, 1493.375000, 8153.500000, 8136.500000, 8121.000000
2748, 27383448.000000, 1416.375000, 8163.000000, 8150.500000, 8133.500000
2749, 27383608.000000, 1367.750000, 8157.500000, 8154.500000, 8141.500000
2750, 27383768.000000, 1442.625000, 8168.500000, 8129.500000, 8127.000000
2751, 27383928.000000, 1714.875000, 8156.500000, 8131.500000, 8117.500000
2752, 27384088.000000, 2115.500000, 8159.500000, 8113.000000, 8092.500000
2753, 27384248.000000, 2495.500000, 8158.500000, 8125.000000, 8102.000000
2754, 27384408.000000, 2731.375000, 8172.500000, 8268.500000, 8249.000000
2755, 27384568.000000, 2809.875000, 8568.000000, 7834.500000, 8013.500000
2756, 27384728.000000, 2762.250000, 8005.000000, 7710.000000, 7622.000000
2757, 27384888.000000, 2656.000000, 8126.500000, 8110.000000, 8048.500000
2758, 27385048.000000, 2527.125000, 8174.000000, 8214.500000, 8200.000000
2759, 27385208.000000, 2392.750000, 8177.000000, 8232.000000, 8223.500000
2760, 27385368.000000, 2252.500000, 8179.000000, 8237.000000, 8232.000000
2761, 27385528.000000, 2098.750000, 8207.000000, 8239.500000, 8243.500000
2762, 27385688.000000, 1943.875000, 8223.500000, 8247.000000, 8253.000000
2763, 27385848.000000, 1808.250000, 8245.500000, 8252.000000, 8274.500000
2764, 27386008.000000, 1714.500000, 8274.500000, 8279.500000, 8312.500000
2765, 27386168.000000, 1662.875000, 8299.000000, 8295.500000, 8341.000000
2766, 27386328.000000, 1649.000000, 8303.500000, 8304.000000, 8351.500000
2767, 27386488.000000, 1651.875000, 8295.000000, 8239.000000, 8279.000000
2768, 27386648.000000, 1646.750000, 8245.500000, 8195.500000, 8216.000000
2769, 27386808.000000, 1620.750000, 8170.000000, 8145.000000, 8135.500000
2770, 27386968.000000, 1567.625000, 8134.000000, 8119.000000, 8095.500000
2771, 27387128.000000, 1503.250000, 8125.000000, 8113.000000, 8092.000000
2772, 27387288.000000, 1435.500000, 8133.000000, 8115.500000, 8087.500000
2773, 27387448.000000, 1365.500000, 8135.000000, 8127.500000, 8103.000000
2774, 27387608.000000, 1295.500000, 8147.500000, 8135.500000, 8116.500000
2775, 27387768.000000, 1226.375000, 8134.000000, 8142.000000, 8119.500000
2776, 27387928.000000, 1167.375000, 8142.500000, 8133.500000, 8119.000000
2777, 27388088.000000, 1112.750000, 8137.500000, 8150.000000, 8127.000000
2778, 27388248.000000, 1062.750000, 8141.000000, 8148.500000, 8128.000000
2779, 27388408.000000, 1067.625000, 8152.500000, 8158.500000, 8144.500000
2780, 27388568.000000, 1248.375000, 8147.500000, 8167.500000, 8158.500000
2781, 27388728.000000, 1612.000000, 8150.500000, 8158.000000, 8152.000000
2782, 27388888.000000, 2050.125000, 8148.000000, 8153.500000, 8137.500000
2783, 27389048.000000, 2382.375000, 8150.500000, 8152.500000, 8127.500000
2784, 27389208.000000, 2542.750000, 8139.500000, 8166.500000, 8134.000000
2785, 27389368.000000, 2555.250000, 8275.500000, 8303.000000, 8339.000000
2786, 27389528.000000, 2486.500000, 8548.000000, 7627.500000, 7815.000000
2787, 27389688.000000, 2391.000000, 7964.000000, 7866.000000, 7724.500000
2788, 27389848.000000, 2289.625000, 8141.500000, 8194.500000, 8170.000000
2789, 27390008.000000, 2184.375000, 8160.500000, 8248.500000, 8230.500000
2790, 27390168.000000, 2069.000000, 8176.000000, 8241.000000, 8234.000000
2791, 27390328.000000, 1946.250000, 8182.500000, 8265.500000, 8258.500000
2792, 27390488.000000, 1832.375000, 8203.500000, 8259.500000, 8267.000000
2793, 27390648.000000, 1749.375000, 8224.000000, 8271.000000, 8283.500000
2794, 27390808.000000, 1715.875000, 8255.500000, 8299.500000, 8322.000000
2795, 27390968.000000, 1722.125000, 8273.000000, 8327.000000, 8365.000000
2796, 27391128.000000, 1750.500000, 8298.000000, 8334.000000, 8379.500000
2797, 27391288.000000, 1773.250000, 8300.500000, 8339.000000, 8378.500000
2798, 27391448.000000, 1776.500000, 8287.000000, 8293.500000, 8329.000000
2799, 27391608.000000, 1757.250000, 8224.500000, 8236.000000, 8238.500000
2800, 27391768.000000, 1724.000000, 8151.000000, 8188.500000, 8169.500000
2801, 27391928.000000, 1683.000000, 8130.500000, 8165.000000, 8130.000000
2802, 27392088.000000, 1639.250000, 8126.500000, 8140.500000, 8110.500000
2803, 27392248.000000, 1597.000000, 8137.000000, 8159.500000, 8131.000000
2804, 27392408.000000, 1555.375000, 8150.000000, 8155.500000, 8133.000000
2805, 27392568.000000, 1518.750000, 8147.500000, 8163.000000, 8140.000000
2806, 27392728.000000, 1489.625000, 8158.500000, 8162.500000, 8139.500000
2807, 27392888.000000, 1464.250000, 8142.500000, 8177.000000, 8149.500000
2808, 27393048.000000, 1432.000000, 8146.000000, 8175.000000, 8150.500000
2809, 27393208.000000, 1395.375000, 8158.500000, 8164.500000, 8138.500000
2810, 27393368.000000, 1441.875000, 8152.000000, 8167.500000, 8144.000000
2811, 27393528.000000, 1663.000000, 8134.500000, 8196.000000, 8178.000000
2812, 27393688.000000, 2071.250000, 8167.500000, 8181.500000, 8174.500000
2813, 27393848.000000, 2505.875000, 8166.500000, 8183.000000, 8169.500000
2814, 27394008.000000, 2812.750000, 8171.000000, 8168.500000, 8146.500000
2815, 27394168.000000, 2929.375000, 8172.000000, 8164.000000, 8138.000000
2816, 27394328.000000, 2896.375000, 8156.500000, 8201.000000, 8172.000000
2817, 27394488.000000, 2769.250000, 8399.500000, 8224.000000, 8304.500000
2818, 27394648.000000, 2616.125000, 8433.000000, 7598.000000, 7719.500000
2819, 27394808.000000, 2471.875000, 8029.000000, 7948.500000, 7824.000000
2820, 27394968.000000, 2339.500000, 8161.500000, 8229.500000, 8208.500000
2821, 27395128.000000, 2202.250000, 8182.500000, 8252.000000, 8239.000000
2822, 27395288.000000, 2055.625000, 8195.000000, 8255.000000, 8248.500000
2823, 27395448.000000, 1923.125000, 8199.500000, 8263.500000, 8260.500000
2824, 27395608.000000, 1830.250000, 8214.500000, 8277.500000, 8283.500000
2825, 27395768.000000, 1786.375000, 8240.500000, 8297.000000, 8311.000000
2826, 27395928.000000, 1783.875000, 8255.000000, 8306.500000, 8331.500000
2827, 27396088.000000, 1804.750000, 8291.500000, 8323.500000, 8362.000000
2828, 27396248.000000, 1821.125000, 8306.500000, 8350.500000, 8388.500000
2829, 27396408.000000, 1819.500000, 8316.500000, 8327.000000, 8370.000000
2830, 27396568.000000, 1794.750000, 8277.000000, 8289.500000, 8320.500000
2831, 27396728.000000, 1752.375000, 8214.500000, 8234.000000, 8240.000000
2832, 27396888.000000, 1699.000000, 8167.500000, 8188.500000, 8169.500000
2833, 27397048.000000, 1638.125000, 8127.000000, 8174.500000, 8147.500000
2834, 27397208.000000, 1572.250000, 8128.000000, 8166.000000, 8134.500000
2835, 27397368.000000, 1513.750000, 8148.000000, 8166.000000, 8142.000000
2836, 27397528.000000, 1455.375000, 8142.000000, 8172.000000, 8151.000000
2837, 27397688.000000, 1404.375000, 8161.000000, 8174.000000, 8161.500000
2838, 27397848.000000, 1360.000000, 8158.500000, 8163.000000, 8141.000000
2839, 27398008.000000, 1322.750000, 8159.500000, 8171.500000, 8152.500000
2840, 27398168.000000, 1277.375000, 8158.000000, 8163.000000, 8143.500000
2841, 27398328.000000, 1226.125000, 8152.500000, 8172.500000, 8157.500000
2842, 27398488.000000, 1255.875000, 8156.000000, 8178.500000, 8169.500000
2843, 27398648.000000, 1451.375000, 8163.500000, 8168.500000, 8164.000000
2844, 27398808.000000, 1833.500000, 8169.500000, 8163.000000, 8149.000000
2845, 27398968.000000, 2247.625000, 8153.000000, 8158.000000, 8137.500000
2846, 27399128.000000, 2553.500000, 8149.000000, 8170.000000, 8149.500000
2847, 27399288.000000, 2676.125000, 8225.000000, 8325.500000, 8340.500000
2848, 27399448.000000, 2645.375000, 8552.000000, 7820.500000, 7999.500000
2849, 27399608.000000, 2526.625000, 7965.500000, 7854.500000, 7739.000000
2850, 27399768.000000, 2381.500000, 8148.500000, 8179.500000, 8143.500000
2851, 27399928.000000, 2232.500000, 8174.500000, 8228.500000, 8217.000000
2852, 27400088.000000, 2078.375000, 8187.500000, 8239.500000, 8231.000000
2853, 27400248.000000, 1922.750000, 8204.500000, 8241.500000, 8243.000000
2854, 27400408.000000, 1772.000000, 8215.500000, 8247.500000, 8252.000000
2855, 27400568.000000, 1644.000000, 8219.000000, 8272.000000, 8286.000000
2856, 27400728.000000, 1551.875000, 8255.000000, 8266.500000, 8291.500000
2857, 27400888.000000, 1504.625000, 8282.500000, 8290.500000, 8325.000000
2858, 27401048.000000, 1502.625000, 8312.500000, 8305.000000, 8348.500000
2859, 27401208.000000, 1529.375000, 8302.500000, 8302.000000, 8347.500000
2860, 27401368.000000, 1551.250000, 8281.500000, 8278.000000, 8313.000000
2861, 27401528.000000, 1554.375000, 8215.000000, 8237.000000, 8247.000000
2862, 27401688.000000, 1530.125000, 8166.500000, 8188.500000, 8178.500000
2863, 27401848.000000, 1490.250000, 8132.500000, 8187.000000, 8163.000000
2864, 27402008.000000, 1437.750000, 8120.000000, 8170.000000, 8134.500000
2865, 27402168.000000, 1387.375000, 8131.000000, 8165.500000, 8140.000000
2866, 27402328.000000, 1338.875000, 8133.500000, 8167.500000, 8148.500000
2867, 27402488.000000, 1295.125000, 8147.500000, 8182.000000, 8163.500000
2868, 27402648.000000, 1252.000000, 8143.500000, 8177.500000, 8159.500000
2869, 27402808.000000, 1215.750000, 8148.500000, 8169.500000, 8144.500000
2870, 27402968.000000, 1180.375000, 8141.500000, 8171.500000, 8153.000000
2871, 27403128.000000, 1140.125000, 8147.500000, 8196.000000, 8177.000000
2872, 27403288.000000, 1122.750000, 8158.000000, 8175.500000, 8168.000000
2873, 27403448.000000, 1273.750000, 8146.500000, 8178.500000, 8167.500000
2874, 27403608.000000, 1635.500000, 8165.500000, 8174.500000, 8156.500000
2875, 27403768.000000, 2074.500000, 8140.500000, 8157.000000, 8134.000000
2876, 27403928.000000, 2442.875000, 8146.500000, 8178.500000, 8150.500000
2877, 27404088.000000, 2610.500000, 8270.000000, 8323.000000, 8359.000000
2878, 27404248.000000, 2576.000000, 8472.000000, 7739.000000, 7887.500000
2879, 27404408.000000, 2433.125000, 7990.000000, 7893.500000, 7768.000000
2880, 27404568.000000, 2278.250000, 8166.500000, 8187.000000, 8162.000000
2881, 27404728.000000, 2125.750000, 8171.000000, 8237.500000, 8226.000000
2882, 27404888.000000, 1989.375000, 8182.500000, 8236.000000, 8231.000000
2883, 27405048.000000, 1852.750000, 8199.500000, 8239.000000, 8239.000000
2884, 27405208.000000, 1736.375000, 8221.000000, 8257.500000, 8264.000000
2885, 27405368.000000, 1654.375000, 8213.000000, 8274.500000, 8288.500000
2886, 27405528.000000, 1620.500000, 8261.500000, 8281.000000, 8306.500000
2887, 27405688.000000, 1633.500000, 8280.500000, 8314.000000, 8349.000000
2888, 27405848.000000, 1681.500000, 8303.000000, 8330.500000, 8372.500000
2889, 27406008.000000, 1724.500000, 8299.500000, 8328.500000, 8370.000000
2890, 27406168.000000, 1735.875000, 8277.500000, 8294.500000, 8326.500000
2891, 27406328.000000, 1719.250000, 8207.000000, 8249.000000, 8259.000000
2892, 27406488.000000, 1680.625000, 8162.000000, 8182.500000, 8167.000000
2893, 27406648.000000, 1633.500000, 8133.500000, 8175.500000, 8155.000000
2894, 27406808.000000, 1580.125000, 8122.500000, 8175.000000, 8151.000000
2895, 27406968.000000, 1526.750000, 8135.000000, 8163.000000, 8144.000000
2896, 27407128.000000, 1479.000000, 8142.500000, 8165.000000, 8152.000000
2897, 27407288.000000, 1439.875000, 8154.500000, 8164.000000, 8152.500000
2898, 27407448.000000, 1406.875000, 8155.500000, 8168.500000, 8154.500000
2899, 27407608.000000, 1373.875000, 8152.000000, 8154.500000, 8146.000000
2900, 27407768.000000, 1339.750000, 8147.500000, 8167.000000, 8151.500000
2901, 27407928.000000, 1381.000000, 8153.500000, 8175.500000, 8171.500000
2902, 27408088.000000, 1607.375000, 8156.000000, 8184.500000, 8183.500000
2903, 27408248.000000, 2020.125000, 8161.500000, 8164.000000, 8163.500000
2904, 27408408.000000, 2458.125000, 8164.000000, 8165.000000, 8152.500000
2905, 27408568.000000, 2750.500000, 8151.500000, 8159.500000, 8140.000000
2906, 27408728.000000, 2845.000000, 8153.500000, 8177.000000, 8157.000000
2907, 27408888.000000, 2795.500000, 8288.500000, 8301.500000, 8347.000000
2908, 27409048.000000, 2666.875000, 8477.000000, 7694.500000, 7846.500000
2909, 27409208.000000, 2511.875000, 7991.500000, 7889.500000, 7768.000000
2910, 27409368.000000, 2357.125000, 8154.500000, 8201.500000, 8180.500000
2911, 27409528.000000, 2203.750000, 8164.500000, 8229.500000, 8222.500000
2912, 27409688.000000, 2045.375000, 8187.000000, 8240.500000, 8239.500000
2913, 27409848.000000, 1893.250000, 8187.000000, 8252.000000, 8253.500000
2914, 27410008.000000, 1770.250000, 8212.500000, 8266.500000, 8283.500000
2915, 27410168.000000, 1684.375000, 8226.500000, 8263.500000, 8282.500000
2916, 27410328.000000, 1652.500000, 8255.000000, 8287.000000, 8314.000000
2917, 27410488.000000, 1657.250000, 8279.500000, 8305.000000, 8348.000000
2918, 27410648.000000, 1683.125000, 8298.000000, 8331.000000, 8375.000000
2919, 27410808.000000, 1700.500000, 8299.500000, 8331.000000, 8381.000000
2920, 27410968.000000, 1691.875000, 8266.500000, 8289.500000, 8322.500000
2921, 27411128.000000, 1652.500000, 8208.500000, 8227.000000, 8238.000000
2922, 27411288.000000, 1589.250000, 8149.500000, 8191.000000, 8181.000000
2923, 27411448.000000, 1525.125000, 8131.000000, 8162.000000, 8139.500000
2924, 27411608.000000, 1464.000000, 8129.000000, 8161.500000, 8137.500000
2925, 27411768.000000, 1404.000000, 8124.000000, 8162.500000, 8145.500000
2926, 27411928.000000, 1345.000000, 8127.500000, 8162.000000, 8147.500000
2927, 27412088.000000, 1289.625000, 8137.500000, 8177.000000, 8164.000000
2928, 27412248.000000, 1240.500000, 8159.500000, 8161.000000, 8147.500000
2929, 27412408.000000, 1187.750000, 8142.000000, 8165.000000, 8150.000000
2930, 27412568.000000, 1137.875000, 8144.000000, 8166.000000, 8152.500000
2931, 27412728.000000, 1165.875000, 8141.500000, 8187.500000, 8175.000000
2932, 27412888.000000, 1400.000000, 8152.000000, 8177.000000, 8171.500000
2933, 27413048.000000, 1799.375000, 8154.000000, 8179.000000, 8179.500000
2934, 27413208.000000, 2211.125000, 8157.500000, 8171.500000, 8163.000000
2935, 27413368.000000, 2472.250000, 8144.500000, 8168.500000, 8148.000000
2936, 27413528.000000, 2563.125000, 8136.500000, 8165.000000, 8146.500000
2937, 27413688.000000, 2523.750000, 8174.500000, 8314.500000, 8301.500000
2938, 27413848.000000, 2398.500000, 8551.500000, 7877.500000, 8058.000000
2939, 27414008.000000, 2245.750000, 7975.500000, 7766.000000, 7666.000000
2940, 27414168.000000, 2096.375000, 8132.000000, 8148.500000, 8100.500000
2941, 27414328.000000, 1958.000000, 8161.500000, 8240.000000, 8228.000000
2942, 27414488.000000, 1819.000000, 8172.500000, 8254.500000, 8246.500000
2943, 27414648.000000, 1682.625000, 8187.000000, 8260.000000, 8262.500000
2944, 27414808.000000, 1566.750000, 8190.000000, 8269.500000, 8269.500000
2945, 27414968.000000, 1490.125000, 8215.000000, 8276.500000, 8289.500000
2946, 27415128.000000, 1464.000000, 8244.500000, 8286.000000, 8314.000000
2947, 27415288.000000, 1482.375000, 8262.500000, 8319.500000, 8352.500000
2948, 27415448.000000, 1523.750000, 8293.500000, 8335.500000, 8380.000000
2949, 27415608.000000, 1561.500000, 8302.500000, 8335.500000, 8384.000000
2950, 27415768.000000, 1571.250000, 8285.000000, 8317.500000, 8355.500000
2951, 27415928.000000, 1556.125000, 8233.500000, 8264.000000, 8285.500000
2952, 27416088.000000, 1524.750000, 8166.000000, 8198.500000, 8191.500000
2953, 27416248.000000, 1491.625000, 8137.000000, 8172.500000, 8149.000000
2954, 27416408.000000, 1457.125000, 8129.500000, 8169.000000, 8140.500000
2955, 27416568.000000, 1423.875000, 8115.000000, 8167.500000, 8141.500000
2956, 27416728.000000, 1383.000000, 8124.000000, 8165.500000, 8144.500000
2957, 27416888.000000, 1346.625000, 8146.000000, 8170.500000, 8151.500000
2958, 27417048.000000, 1323.000000, 8147.500000, 8167.000000, 8150.500000
2959, 27417208.000000, 1299.375000, 8147.000000, 8166.000000, 8148.000000
2960, 27417368.000000, 1272.125000, 8145.500000, 8165.000000, 8145.500000
2961, 27417528.000000, 1295.125000, 8144.000000, 8166.000000, 8146.500000
2962, 27417688.000000, 1497.500000, 8142.000000, 8174.500000, 8158.500000
2963, 27417848.000000, 1900.000000, 8160.500000, 8171.500000, 8161.000000
2964, 27418008.000000, 2369.625000, 8159.000000, 8175.000000, 8169.000000
2965, 27418168.000000, 2725.000000, 8172.000000, 8166.000000, 8154.000000
2966, 27418328.000000, 2884.125000, 8128.500000, 8169.000000, 8143.000000
2967, 27418488.000000, 2887.250000, 8158.000000, 8154.500000, 8135.000000
2968, 27418648.000000, 2792.250000, 8170.500000, 8308.500000, 8290.500000
2969, 27418808.000000, 2654.375000, 8581.000000, 7816.500000, 8002.000000
2970, 27418968.000000, 2515.875000, 7991.500000, 7727.000000, 7627.500000
2971, 27419128.000000, 2390.125000, 8123.000000, 8159.500000, 8110.500000
2972, 27419288.000000, 2263.875000, 8170.500000, 8246.500000, 8236.500000
2973, 27419448.000000, 2132.625000, 8175.500000, 8255.500000, 8251.500000
2974, 27419608.000000, 2004.750000, 8184.500000, 8270.000000, 8275.000000
2975, 27419768.000000, 1907.125000, 8195.500000, 8271.500000, 8285.500000
2976, 27419928.000000, 1853.250000, 8220.500000, 8270.500000, 8290.500000
2977, 27420088.000000, 1843.000000, 8235.000000, 8290.000000, 8315.500000
2978, 27420248.000000, 1853.625000, 8271.500000, 8316.500000, 8356.500000
2979, 27420408.000000, 1869.250000, 8294.000000, 8341.000000, 8391.000000
2980, 27420568.000000, 1875.000000, 8296.500000, 8337.500000, 8390.500000
2981, 27420728.000000, 1863.125000, 8276.500000, 8319.500000, 8365.500000
2982, 27420888.000000, 1829.000000, 8238.500000, 8253.000000, 8282.000000
2983, 27421048.000000, 1785.375000, 8169.000000, 8195.000000, 8196.000000
2984, 27421208.000000, 1736.500000, 8127.000000, 8165.500000, 8149.500000
2985, 27421368.000000, 1684.625000, 8119.500000, 8144.000000, 8123.000000
2986, 27421528.000000, 1633.500000, 8129.500000, 8155.000000, 8136.000000
2987, 27421688.000000, 1585.375000, 8132.500000, 8158.000000, 8141.000000
2988, 27421848.000000, 1542.000000, 8139.500000, 8166.000000, 8147.500000
2989, 27422008.000000, 1503.875000, 8143.000000, 8161.000000, 8143.500000
2990, 27422168.000000, 1460.125000, 8139.500000, 8160.000000, 8144.000000
2991, 27422328.000000, 1408.500000, 8134.000000, 8167.000000, 8149.500000
2992, 27422488.000000, 1406.375000, 8136.500000, 8165.500000, 8150.000000
2993, 27422648.000000, 1577.750000, 8140.500000, 8162.500000, 8144.500000
2994, 27422808.000000, 1977.375000, 8145.500000, 8171.500000, 8162.500000
2995, 27422968.000000, 2463.125000, 8140.500000, 8181.000000, 8176.000000
2996, 27423128.000000, 2838.000000, 8151.500000, 8185.000000, 8186.000000
2997, 27423288.000000, 3019.000000, 8153.000000, 8170.500000, 8161.000000
2998, 27423448.000000, 3013.375000, 8147.500000, 8167.500000, 8148.000000
2999, 27423608.000000, 2889.750000, 8148.000000, 8168.500000, 8148.500000
3000, 27423768.000000, 2714.000000, 8179.500000, 8331.000000, 8334.000000
3001, 27423928.000000, 2534.875000, 8607.500000, 7757.000000, 7969.000000
3002, 27424088.000000, 2361.250000, 7962.500000, 7795.000000, 7673.500000
3003, 27424248.000000, 2197.250000, 8143.000000, 8185.500000, 8152.000000
3004, 27424408.000000, 2033.000000, 8168.000000, 8247.500000, 8237.000000
3005, 27424568.000000, 1883.125000, 8184.000000, 8258.500000, 8258.500000
3006, 27424728.000000, 1760.625000, 8187.000000, 8265.500000, 8268.000000
3007, 27424888.000000, 1683.875000, 8209.500000, 8266.000000, 8278.000000
3008, 27425048.000000, 1655.875000, 8228.500000, 8281.500000, 8297.000000
3009, 27425208.000000, 1661.250000, 8252.000000, 8298.000000, 8326.000000
3010, 27425368.000000, 1676.500000, 8277.000000, 8319.000000, 8358.500000
3011, 27425528.000000, 1683.875000, 8296.500000, 8338.000000, 8388.000000
3012, 27425688.000000, 1664.875000, 8305.500000, 8330.500000, 8384.000000
3013, 27425848.000000, 1623.500000, 8293.500000, 8313.000000, 8356.500000
3014, 27426008.000000, 1567.000000, 8237.500000, 8258.000000, 8282.500000
3015, 27426168.000000, 1506.125000, 8178.500000, 8199.000000, 8197.000000
3016, 27426328.000000, 1447.000000, 8129.000000, 8176.000000, 8154.500000
3017, 27426488.000000, 1387.875000, 8123.500000, 8158.500000, 8133.000000
3018, 27426648.000000, 1335.500000, 8127.000000, 8177.000000, 8151.000000
3019, 27426808.000000, 1288.250000, 8139.500000, 8164.000000, 8144.500000
3020, 27426968.000000, 1249.500000, 8137.500000, 8170.000000, 8153.000000
3021, 27427128.000000, 1225.125000, 8124.000000, 8171.000000, 8152.000000
3022, 27427288.000000, 1199.500000, 8137.500000, 8172.500000, 8150.500000
3023, 27427448.000000, 1165.750000, 8147.000000, 8169.500000, 8147.000000
3024, 27427608.000000, 1184.125000, 8139.000000, 8173.500000, 8147.500000
3025, 27427768.000000, 1377.875000, 8142.000000, 8166.500000, 8144.500000
3026, 27427928.000000, 1787.250000, 8146.000000, 8182.000000, 8163.500000
3027, 27428088.000000, 2281.875000, 8150.500000, 8193.000000, 8185.500000
3028, 27428248.000000, 2655.000000, 8160.000000, 8180.500000, 8162.500000
3029, 27428408.000000, 2836.875000, 8156.500000, 8167.000000, 8142.000000
3030, 27428568.000000, 2844.000000, 8148.000000, 8177.000000, 8149.000000
3031, 27428728.000000, 2746.250000, 8149.500000, 8228.000000, 8184.000000
3032, 27428888.000000, 2600.375000, 8473.000000, 8177.500000, 8292.000000
3033, 27429048.000000, 2443.750000, 8290.000000, 7656.500000, 7711.500000
3034, 27429208.000000, 2289.500000, 8060.000000, 8006.500000, 7892.500000
3035, 27429368.000000, 2137.750000, 8175.500000, 8227.000000, 8199.000000
3036, 27429528.000000, 1986.250000, 8183.500000, 8255.500000, 8244.500000
3037, 27429688.000000, 1855.750000, 8197.000000, 8251.500000, 8239.500000
3038, 27429848.000000, 1768.250000, 8201.000000, 8270.500000, 8262.500000
3039, 27430008.000000, 1726.250000, 8234.500000, 8273.000000, 8278.500000
3040, 27430168.000000, 1725.625000, 8233.500000, 8302.000000, 8310.500000
3041, 27430328.000000, 1750.500000, 8264.000000, 8303.000000, 8328.000000
3042, 27430488.000000, 1780.750000, 8301.000000, 8324.000000, 8356.500000
3043, 27430648.000000, 1795.750000, 8305.000000, 8343.000000, 8377.500000
3044, 27430808.000000, 1784.625000, 8301.000000, 8325.500000, 8360.000000
3045, 27430968.000000, 1753.000000, 8265.500000, 8280.500000, 8305.500000
3046, 27431128.000000, 1709.250000, 8210.000000, 8223.000000, 8220.500000
3047, 27431288.000000, 1668.875000, 8155.500000, 8196.500000, 8176.500000
3048, 27431448.000000, 1633.375000, 8145.000000, 8162.000000, 8135.000000
3049, 27431608.000000, 1595.875000, 8146.500000, 8163.000000, 8139.000000
3050, 27431768.000000, 1552.875000, 8154.500000, 8171.000000, 8149.500000
3051, 27431928.000000, 1507.250000, 8149.500000, 8170.500000, 8153.500000
3052, 27432088.000000, 1460.625000, 8153.500000, 8170.000000, 8150.500000
3053, 27432248.000000, 1420.000000, 8163.500000, 8160.500000, 8139.000000
3054, 27432408.000000, 1375.125000, 8159.000000, 8153.000000, 8135.500000
3055, 27432568.000000, 1320.750000, 8152.500000, 8159.500000, 8141.500000
3056, 27432728.000000, 1322.625000, 8156.500000, 8169.500000, 8154.500000
3057, 27432888.000000, 1512.750000, 8165.000000, 8174.000000, 8165.000000
3058, 27433048.000000, 1927.875000, 8182.500000, 8164.500000, 8156.500000
3059, 27433208.000000, 2412.750000, 8162.500000, 8170.000000, 8148.500000
3060, 27433368.000000, 2753.000000, 8148.000000, 8178.000000, 8153.000000
3061, 27433528.000000, 2890.250000, 8162.000000, 8214.000000, 8180.500000
3062, 27433688.000000, 2849.500000, 8410.000000, 8254.500000, 8341.000000
3063, 27433848.000000, 2703.500000, 8371.500000, 7728.000000, 7815.000000
3064, 27434008.000000, 2514.000000, 8020.500000, 7959.000000, 7835.000000
3065, 27434168.000000, 2315.750000, 8171.500000, 8210.000000, 8190.500000
3066, 27434328.000000, 2123.500000, 8173.500000, 8240.000000, 8224.000000
3067, 27434488.000000, 1937.125000, 8204.000000, 8235.000000, 8229.500000
3068, 27434648.000000, 1766.375000, 8211.500000, 8247.000000, 8247.000000
3069, 27434808.000000, 1626.250000, 8221.500000, 8251.000000, 8256.500000
3070, 27434968.000000, 1536.375000, 8236.000000, 8269.500000, 8284.000000
3071, 27435128.000000, 1506.375000, 8268.500000, 8287.000000, 8313.000000
3072, 27435288.000000, 1530.125000, 8289.500000, 8297.500000, 8336.500000
3073, 27435448.000000, 1582.250000, 8315.000000, 8306.500000, 8348.500000
3074, 27435608.000000, 1620.375000, 8302.500000, 8300.500000, 8338.500000
3075, 27435768.000000, 1628.250000, 8275.500000, 8268.000000, 8297.500000
3076, 27435928.000000, 1604.125000, 8210.000000, 8224.000000, 8229.000000
3077, 27436088.000000, 1564.250000, 8151.000000, 8190.000000, 8179.000000
3078, 27436248.000000, 1512.750000, 8152.500000, 8169.000000, 8152.000000
3079, 27436408.000000, 1454.125000, 8140.000000, 8174.000000, 8153.000000
3080, 27436568.000000, 1396.750000, 8148.000000, 8182.000000, 8165.000000
3081, 27436728.000000, 1347.375000, 8153.500000, 8182.000000, 8168.500000
3082, 27436888.000000, 1305.000000, 8166.000000, 8178.500000, 8168.500000
3083, 27437048.000000, 1268.750000, 8161.500000, 8181.000000, 8169.000000
3084, 27437208.000000, 1221.750000, 8165.500000, 8191.000000, 8177.000000
3085, 27437368.000000, 1159.250000, 8162.000000, 8186.500000, 8178.500000
3086, 27437528.000000, 1119.250000, 8161.500000, 8197.000000, 8199.500000
3087, 27437688.000000, 1228.750000, 8166.500000, 8195.500000, 8179.500000
3088, 27437848.000000, 1556.875000, 8157.000000, 8195.000000, 8168.000000
3089, 27438008.000000, 2022.125000, 8166.500000, 8179.500000, 8152.500000
3090, 27438168.000000, 2414.625000, 8162.500000, 8243.000000, 8211.500000
3091, 27438328.000000, 2626.250000, 8464.000000, 8209.000000, 8322.500000
3092, 27438488.000000, 2643.125000, 8178.000000, 7843.000000, 7852.000000
3093, 27438648.000000, 2547.250000, 8050.500000, 8006.000000, 7897.000000
3094, 27438808.000000, 2393.250000, 8174.000000, 8217.500000, 8196.500000
3095, 27438968.000000, 2224.500000, 8194.000000, 8231.000000, 8215.500000
3096, 27439128.000000, 2053.125000, 8195.500000, 8246.000000, 8235.000000
3097, 27439288.000000, 1881.375000, 8216.500000, 8234.000000, 8231.500000
3098, 27439448.000000, 1726.250000, 8230.500000, 8253.000000, 8257.000000
3099, 27439608.000000, 1597.625000, 8251.500000, 8263.500000, 8280.000000
3100, 27439768.000000, 1523.625000, 8269.500000, 8275.000000, 8300.500000
3101, 27439928.000000, 1507.750000, 8306.500000, 8281.000000, 8312.500000
3102, 27440088.000000, 1545.625000, 8308.500000, 8294.000000, 8327.500000
3103, 27440248.000000, 1611.375000, 8304.500000, 8282.500000, 8314.500000
3104, 27440408.000000, 1680.250000, 8257.500000, 8261.500000, 8278.500000
3105, 27440568.000000, 1725.250000, 8201.500000, 8215.500000, 8206.000000
3106, 27440728.000000, 1733.875000, 8150.000000, 8191.500000, 8172.500000
3107, 27440888.000000, 1716.250000, 8142.000000, 8176.000000, 8148.000000
3108, 27441048.000000, 1673.875000, 8139.500000, 8186.000000, 8155.500000
3109, 27441208.000000, 1620.875000, 8145.500000, 8179.500000, 8158.500000
3110, 27441368.000000, 1556.625000, 8161.500000, 8185.000000, 8170.000000
3111, 27441528.000000, 1498.750000, 8138.500000, 8196.500000, 8172.000000
3112, 27441688.000000, 1448.875000, 8179.500000, 8173.000000, 8160.000000
3113, 27441848.000000, 1400.500000, 8159.500000, 8188.000000, 8173.000000
3114, 27442008.000000, 1349.875000, 8162.000000, 8198.000000, 8194.000000
3115, 27442168.000000, 1324.875000, 8173.500000, 8182.000000, 8173.000000
3116, 27442328.000000, 1447.000000, 8163.500000, 8167.000000, 8149.500000
3117, 27442488.000000, 1769.000000, 8156.500000, 8169.000000, 8146.500000
3118, 27442648.000000, 2223.875000, 8173.500000, 8223.500000, 8199.500000
3119, 27442808.000000, 2612.375000, 8413.000000, 8213.000000, 8316.500000
3120, 27442968.000000, 2821.750000, 8198.500000, 7846.000000, 7876.500000
3121, 27443128.000000, 2835.875000, 8039.500000, 7994.500000, 7894.000000
3122, 27443288.000000, 2723.500000, 8183.000000, 8192.000000, 8178.500000
3123, 27443448.000000, 2563.375000, 8184.500000, 8215.000000, 8209.000000
3124, 27443608.000000, 2393.875000, 8196.000000, 8225.000000, 8224.500000
3125, 27443768.000000, 2225.500000, 8188.500000, 8244.000000, 8247.000000
3126, 27443928.000000, 2053.500000, 8209.000000, 8234.500000, 8246.000000
3127, 27444088.000000, 1889.875000, 8241.000000, 8234.500000, 8250.000000
3128, 27444248.000000, 1753.375000, 8255.000000, 8265.500000, 8289.500000
3129, 27444408.000000, 1652.250000, 8274.500000, 8279.500000, 8310.500000
3130, 27444568.000000, 1607.125000, 8302.500000, 8271.000000, 8312.000000
3131, 27444728.000000, 1615.625000, 8284.500000, 8260.000000, 8291.500000
3132, 27444888.000000, 1666.625000, 8233.500000, 8249.000000, 8270.500000
3133, 27445048.000000, 1720.625000, 8204.000000, 8204.500000, 8202.000000
3134, 27445208.000000, 1751.875000, 8150.000000, 8181.500000, 8166.000000
3135, 27445368.000000, 1751.500000, 8126.000000, 8173.500000, 8152.500000
3136, 27445528.000000, 1730.125000, 8127.000000, 8176.000000, 8155.000000
3137, 27445688.000000, 1693.000000, 8154.500000, 8158.500000, 8145.500000
3138, 27445848.000000, 1638.625000, 8148.000000, 8171.500000, 8157.500000
3139, 27446008.000000, 1578.000000, 8154.000000, 8181.000000, 8170.000000
3140, 27446168.000000, 1519.375000, 8156.000000, 8209.500000, 8200.500000
3141, 27446328.000000, 1460.125000, 8170.500000, 8217.500000, 8221.000000
3142, 27446488.000000, 1393.250000, 8172.000000, 8206.000000, 8207.000000
3143, 27446648.000000, 1364.750000, 8157.500000, 8203.000000, 8189.500000
3144, 27446808.000000, 1485.875000, 8158.000000, 8195.000000, 8178.500000
3145, 27446968.000000, 1825.875000, 8156.000000, 8232.500000, 8212.500000
3146, 27447128.000000, 2274.000000, 8352.000000, 8290.000000, 8373.500000
3147, 27447288.000000, 2658.625000, 8240.500000, 7891.000000, 7935.500000
3148, 27447448.000000, 2842.000000, 8033.000000, 8001.000000, 7899.500000
3149, 27447608.000000, 2841.125000, 8171.000000, 8221.000000, 8206.500000
3150, 27447768.000000, 2711.625000, 8191.500000, 8217.000000, 8212.000000
3151, 27447928.000000, 2542.625000, 8197.500000, 8230.500000, 8233.000000
3152, 27448088.000000, 2376.000000, 8204.000000, 8242.000000, 8247.000000
3153, 27448248.000000, 2219.625000, 8211.500000, 8251.500000, 8259.500000
3154, 27448408.000000, 2054.125000, 8224.000000, 8270.000000, 8282.500000
3155, 27448568.000000, 1886.250000, 8260.000000, 8262.000000, 8287.500000
3156, 27448728.000000, 1738.875000, 8268.000000, 8291.000000, 8321.500000
3157, 27448888.000000, 1633.375000, 8296.000000, 8292.000000, 8328.000000
3158, 27449048.000000, 1583.375000, 8279.500000, 8268.000000, 8298.500000
3159, 27449208.000000, 1593.500000, 8250.000000, 8250.000000, 8267.000000
3160, 27449368.000000, 1644.000000, 8184.500000, 8225.000000, 8229.000000
3161, 27449528.000000, 1701.375000, 8146.500000, 8192.000000, 8178.000000
3162, 27449688.000000, 1722.625000, 8136.000000, 8168.500000, 8147.500000
3163, 27449848.000000, 1700.875000, 8136.500000, 8171.500000, 8159.000000
3164, 27450008.000000, 1649.375000, 8132.500000, 8180.000000, 8159.500000
3165, 27450168.000000, 1594.625000, 8146.500000, 8182.500000, 8167.500000
3166, 27450328.000000, 1542.250000, 8163.000000, 8175.000000, 8165.000000
3167, 27450488.000000, 1497.250000, 8151.500000, 8197.500000, 8184.000000
3168, 27450648.000000, 1446.625000, 8171.500000, 8201.500000, 8200.000000
3169, 27450808.000000, 1379.500000, 8164.000000, 8183.500000, 8182.000000
3170, 27450968.000000, 1361.500000, 8139.500000, 8201.000000, 8179.000000
3171, 27451128.000000, 1500.750000, 8153.500000, 8168.500000, 8146.000000
3172, 27451288.000000, 1894.375000, 8154.000000, 8198.500000, 8168.500000
3173, 27451448.000000, 2396.125000, 8293.500000, 8312.000000, 8366.500000
3174, 27451608.000000, 2806.000000, 8312.500000, 7852.500000, 7930.500000
3175, 27451768.000000, 2997.500000, 8004.500000, 7947.500000, 7837.000000
3176, 27451928.000000, 3003.500000, 8139.500000, 8216.000000, 8195.500000
3177, 27452088.000000, 2906.750000, 8171.500000, 8217.500000, 8204.500000
3178, 27452248.000000, 2772.625000, 8182.500000, 8232.500000, 8224.500000
3179, 27452408.000000, 2632.000000, 8190.500000, 8244.500000, 8243.500000
3180, 27452568.000000, 2491.750000, 8202.000000, 8241.000000, 8242.500000
3181, 27452728.000000, 2350.375000, 8219.500000, 8254.500000, 8266.000000
3182, 27452888.000000, 2202.875000, 8249.500000, 8265.000000, 8284.500000
3183, 27453048.000000, 2058.875000, 8259.500000, 8302.000000, 8327.000000
3184, 27453208.000000, 1944.500000, 8297.500000, 8303.500000, 8340.500000
3185, 27453368.000000, 1880.125000, 8286.000000, 8288.000000, 8322.000000
3186, 27453528.000000, 1874.000000, 8238.000000, 8269.500000, 8287.000000
3187, 27453688.000000, 1901.375000, 8192.000000, 8216.500000, 8214.000000
3188, 27453848.000000, 1930.750000, 8151.500000, 8189.500000, 8172.000000
3189, 27454008.000000, 1935.625000, 8137.500000, 8172.000000, 8145.000000
3190, 27454168.000000, 1911.000000, 8136.000000, 8158.500000, 8135.500000
3191, 27454328.000000, 1865.375000, 8134.500000, 8169.500000, 8151.500000
3192, 27454488.000000, 1817.125000, 8142.000000, 8175.500000, 8160.500000
3193, 27454648.000000, 1765.500000, 8163.000000, 8186.000000, 8171.000000
3194, 27454808.000000, 1710.750000, 8150.000000, 8191.500000, 8179.000000
3195, 27454968.000000, 1651.250000, 8158.000000, 8219.000000, 8211.500000
3196, 27455128.000000, 1588.125000, 8161.500000, 8240.000000, 8241.000000
3197, 27455288.000000, 1578.125000, 8159.000000, 8238.000000, 8230.500000
3198, 27455448.000000, 1735.750000, 8164.000000, 8213.500000, 8196.000000
3199, 27455608.000000, 2125.750000, 8146.500000, 8218.000000, 8198.000000
3200, 27455768.000000, 2633.500000, 8144.000000, 8249.500000, 8226.000000
3201, 27455928.000000, 3065.125000, 8343.000000, 8299.000000, 8374.500000
3202, 27456088.000000, 3277.125000, 8316.000000, 7785.500000, 7861.000000
3203, 27456248.000000, 3295.125000, 8024.500000, 7987.500000, 7878.500000
3204, 27456408.000000, 3186.000000, 8171.000000, 8244.500000, 8231.000000
3205, 27456568.000000, 3037.625000, 8161.500000, 8258.000000, 8251.000000
3206, 27456728.000000, 2882.125000, 8178.500000, 8267.500000, 8267.500000
3207, 27456888.000000, 2729.625000, 8195.000000, 8277.500000, 8282.500000
3208, 27457048.000000, 2565.750000, 8210.000000, 8272.000000, 8281.000000
3209, 27457208.000000, 2385.125000, 8215.500000, 8293.000000, 8309.000000
3210, 27457368.000000, 2206.625000, 8243.500000, 8311.500000, 8341.000000
3211, 27457528.000000, 2060.500000, 8268.500000, 8336.500000, 8380.500000
3212, 27457688.000000, 1973.750000, 8289.500000, 8337.500000, 8378.500000
3213, 27457848.000000, 1944.500000, 8280.500000, 8335.500000, 8373.500000
3214, 27458008.000000, 1956.750000, 8243.000000, 8288.000000, 8312.000000
3215, 27458168.000000, 1975.375000, 8180.500000, 8229.000000, 8233.000000
3216, 27458328.000000, 1970.250000, 8151.500000, 8188.500000, 8177.000000
3217, 27458488.000000, 1935.125000, 8137.500000, 8178.000000, 8158.000000
3218, 27458648.000000, 1881.625000, 8132.000000, 8173.500000, 8152.000000
3219, 27458808.000000, 1816.375000, 8143.500000, 8174.000000, 8159.000000
3220, 27458968.000000, 1746.750000, 8144.000000, 8176.000000, 8167.000000
3221, 27459128.000000, 1673.500000, 8147.000000, 8189.000000, 8180.500000
3222, 27459288.000000, 1603.500000, 8152.500000, 8185.500000, 8176.500000
3223, 27459448.000000, 1525.250000, 8162.000000, 8169.500000, 8160.000000
3224, 27459608.000000, 1442.375000, 8153.500000, 8186.000000, 8177.500000
3225, 27459768.000000, 1430.375000, 8152.000000, 8191.000000, 8188.000000
3226, 27459928.000000, 1635.500000, 8162.000000, 8182.500000, 8189.500000
3227, 27460088.000000, 2070.875000, 8158.000000, 8173.000000, 8169.500000
3228, 27460248.000000, 2586.375000, 8158.000000, 8162.500000, 8143.000000
3229, 27460408.000000, 2974.000000, 8141.500000, 8171.500000, 8152.000000
3230, 27460568.000000, 3137.250000, 8160.500000, 8269.500000, 8254.500000
3231, 27460728.000000, 3120.375000, 8485.500000, 7995.500000, 8139.000000
3232, 27460888.000000, 3005.250000, 8095.000000, 7689.000000, 7655.000000
3233, 27461048.000000, 2852.750000, 8090.500000, 8059.500000, 7983.500000
3234, 27461208.000000, 2699.500000, 8155.500000, 8219.500000, 8210.500000
3235, 27461368.000000, 2553.250000, 8180.000000, 8225.000000, 8227.000000
3236, 27461528.000000, 2399.000000, 8182.000000, 8237.000000, 8243.000000
3237, 27461688.000000, 2234.375000, 8197.000000, 8245.000000, 8250.000000
3238, 27461848.000000, 2074.875000, 8209.500000, 8258.000000, 8273.000000
3239, 27462008.000000, 1943.875000, 8230.000000, 8278.000000, 8303.500000
3240, 27462168.000000, 1852.250000, 8250.000000, 8295.000000, 8329.000000
3241, 27462328.000000, 1805.625000, 8291.500000, 8311.500000, 8358.500000
3242, 27462488.000000, 1795.125000, 8303.500000, 8314.000000, 8360.500000
3243, 27462648.000000, 1809.125000, 8277.000000, 8307.000000, 8342.500000
3244, 27462808.000000, 1816.625000, 8231.500000, 8261.500000, 8281.500000
3245, 27462968.000000, 1799.500000, 8176.500000, 8203.500000, 8202.500000
3246, 27463128.000000, 1756.875000, 8139.000000, 8156.000000, 8140.000000
3247, 27463288.000000, 1705.750000, 8126.500000, 8159.000000, 8135.000000
3248, 27463448.000000, 1647.000000, 8135.000000, 8152.500000, 8132.500000
3249, 27463608.000000, 1587.875000, 8128.500000, 8175.500000, 8154.500000
3250, 27463768.000000, 1533.125000, 8124.000000, 8174.000000, 8158.000000
3251, 27463928.000000, 1482.375000, 8155.000000, 8164.000000, 8153.500000
3252, 27464088.000000, 1432.125000, 8143.500000, 8175.000000, 8156.000000
3253, 27464248.000000, 1374.000000, 8151.000000, 8162.500000, 8149.500000
3254, 27464408.000000, 1332.000000, 8141.500000, 8176.000000, 8156.000000
3255, 27464568.000000, 1432.000000, 8148.000000, 8170.500000, 8153.500000
3256, 27464728.000000, 1782.000000, 8131.000000, 8176.000000, 8155.000000
3257, 27464888.000000, 2344.250000, 8161.000000, 8170.500000, 8151.500000
3258, 27465048.000000, 2881.750000, 8170.500000, 8178.500000, 8165.500000
3259, 27465208.000000, 3232.750000, 8162.500000, 8192.000000, 8192.000000
3260, 27465368.000000, 3350.125000, 8171.500000, 8178.500000, 8171.000000
3261, 27465528.000000, 3320.625000, 8166.000000, 8154.000000, 8135.000000
3262, 27465688.000000, 3208.500000, 8156.500000, 8154.000000, 8129.000000
3263, 27465848.000000, 3072.875000, 8151.500000, 8182.500000, 8148.000000
3264, 27466008.000000, 2936.750000, 8338.500000, 8215.500000, 8271.500000
3265, 27466168.000000, 2802.625000, 8442.500000, 7526.000000, 7665.000000
3266, 27466328.000000, 2671.875000, 7993.500000, 7871.000000, 7751.000000
3267, 27466488.000000, 2548.875000, 8151.500000, 8190.500000, 8177.000000
3268, 27466648.000000, 2450.250000, 8184.500000, 8216.000000, 8206.500000
3269, 27466808.000000, 2368.125000, 8187.000000, 8226.500000, 8232.000000
3270, 27466968.000000, 2289.750000, 8193.000000, 8242.500000, 8253.000000
3271, 27467128.000000, 2218.375000, 8212.500000, 8250.000000, 8260.500000
3272, 27467288.000000, 2167.375000, 8240.500000, 8254.000000, 8274.500000
3273, 27467448.000000, 2140.000000, 8253.500000, 8287.500000, 8317.500000
3274, 27467608.000000, 2114.375000, 8275.000000, 8321.500000, 8365.000000
3275, 27467768.000000, 2072.375000, 8302.000000, 8314.000000, 8364.500000
3276, 27467928.000000, 2008.750000, 8291.500000, 8321.500000, 8370.000000
3277, 27468088.000000, 1928.250000, 8279.500000, 8280.500000, 8318.000000
3278, 27468248.000000, 1838.750000, 8221.000000, 8225.500000, 8238.500000
3279, 27468408.000000, 1736.375000, 8152.000000, 8187.000000, 8177.000000
3280, 27468568.000000, 1628.125000, 8134.000000, 8151.500000, 8132.000000
3281, 27468728.000000, 1518.250000, 8127.000000, 8149.500000, 8125.500000
3282, 27468888.000000, 1431.125000, 8139.000000, 8153.000000, 8133.000000
3283, 27469048.000000, 1369.625000, 8143.000000, 8161.000000, 8146.500000
3284, 27469208.000000, 1328.750000, 8150.500000, 8164.500000, 8147.500000
3285, 27469368.000000, 1295.625000, 8138.500000, 8161.500000, 8145.500000
3286, 27469528.000000, 1256.500000, 8157.000000, 8156.500000, 8141.500000
3287, 27469688.000000, 1202.750000, 8147.000000, 8165.500000, 8147.000000
3288, 27469848.000000, 1207.500000, 8143.000000, 8167.500000, 8150.000000
3289, 27470008.000000, 1424.750000, 8141.500000, 8162.500000, 8142.500000
3290, 27470168.000000, 1914.625000, 8152.000000, 8160.000000, 8142.500000
3291, 27470328.000000, 2515.500000, 8154.000000, 8169.000000, 8150.000000
3292, 27470488.000000, 2972.375000, 8159.000000, 8166.500000, 8157.500000
3293, 27470648.000000, 3192.000000, 8164.500000, 8135.500000, 8138.000000
3294, 27470808.000000, 3193.000000, 8167.500000, 8123.500000, 8116.500000
3295, 27470968.000000, 3072.375000, 8153.000000, 8117.500000, 8102.000000
3296, 27471128.000000, 2910.250000, 8163.500000, 8131.500000, 8110.500000
3297, 27471288.000000, 2748.875000, 8158.500000, 8165.500000, 8137.500000
3298, 27471448.000000, 2598.750000, 8405.500000, 8168.000000, 8254.000000
3299, 27471608.000000, 2438.375000, 8399.500000, 7548.000000, 7662.500000
3300, 27471768.000000, 2251.375000, 8033.000000, 7934.000000, 7819.500000
3301, 27471928.000000, 2051.875000, 8167.500000, 8210.000000, 8197.000000
3302, 27472088.000000, 1874.125000, 8194.000000, 8221.500000, 8216.500000
3303, 27472248.000000, 1744.500000, 8187.500000, 8244.500000, 8243.500000
3304, 27472408.000000, 1669.250000, 8197.500000, 8249.000000, 8255.500000
3305, 27472568.000000, 1650.000000, 8209.000000, 8264.500000, 8274.000000
3306, 27472728.000000, 1661.625000, 8237.000000, 8267.000000, 8289.000000
3307, 27472888.000000, 1672.750000, 8260.500000, 8300.500000, 8326.000000
3308, 27473048.000000, 1657.500000, 8277.000000, 8320.000000, 8364.500000
3309, 27473208.000000, 1612.750000, 8313.500000, 8320.500000, 8374.500000
3310, 27473368.000000, 1555.000000, 8297.000000, 8325.500000, 8371.500000
3311, 27473528.000000, 1494.000000, 8279.000000, 8288.000000, 8322.000000
3312, 27473688.000000, 1431.625000, 8206.500000, 8226.000000, 8233.000000
3313, 27473848.000000, 1371.000000, 8154.000000, 8180.000000, 8164.000000
3314, 27474008.000000, 1312.625000, 8130.500000, 8165.000000, 8134.500000
3315, 27474168.000000, 1254.750000, 8102.000000, 8163.500000, 8135.000000
3316, 27474328.000000, 1207.625000, 8136.000000, 8153.000000, 8126.000000
3317, 27474488.000000, 1170.625000, 8139.000000, 8161.500000, 8138.500000
3318, 27474648.000000, 1145.375000, 8140.500000, 8176.000000, 8154.000000
3319, 27474808.000000, 1134.375000, 8160.500000, 8158.500000, 8145.000000
3320, 27474968.000000, 1119.625000, 8138.500000, 8163.000000, 8142.000000
3321, 27475128.000000, 1090.625000, 8143.000000, 8168.000000, 8144.500000
3322, 27475288.000000, 1104.000000, 8155.500000, 8160.000000, 8138.000000
3323, 27475448.000000, 1277.750000, 8145.000000, 8165.000000, 8142.000000
3324, 27475608.000000, 1719.750000, 8158.500000, 8158.500000, 8138.500000
3325, 27475768.000000, 2284.125000, 8157.500000, 8177.500000, 8163.500000
3326, 27475928.000000, 2749.125000, 8157.000000, 8173.000000, 8165.000000
3327, 27476088.000000, 2978.875000, 8168.500000, 8167.000000, 8160.000000
3328, 27476248.000000, 3003.250000, 8179.000000, 8168.500000, 8161.000000
3329, 27476408.000000, 2895.875000, 8155.500000, 8163.500000, 8141.500000
3330, 27476568.000000, 2731.125000, 8155.500000, 8162.500000, 8140.500000
3331, 27476728.000000, 2561.250000, 8196.500000, 8322.500000, 8321.000000
3332, 27476888.000000, 2412.000000, 8617.000000, 7784.000000, 7981.000000
3333, 27477048.000000, 2270.250000, 8000.500000, 7767.500000, 7670.000000
3334, 27477208.000000, 2120.000000, 8142.500000, 8153.500000, 8105.500000
3335, 27477368.000000, 1957.125000, 8175.500000, 8236.500000, 8223.500000
3336, 27477528.000000, 1808.250000, 8181.000000, 8245.500000, 8236.500000
3337, 27477688.000000, 1701.625000, 8194.500000, 8258.500000, 8257.000000
3338, 27477848.000000, 1648.250000, 8210.500000, 8260.500000, 8266.500000
3339, 27478008.000000, 1639.750000, 8225.500000, 8269.000000, 8285.500000
3340, 27478168.000000, 1662.500000, 8246.000000, 8290.500000, 8312.500000
3341, 27478328.000000, 1685.250000, 8287.500000, 8298.500000, 8338.000000
3342, 27478488.000000, 1687.125000, 8306.000000, 8323.000000, 8365.000000
3343, 27478648.000000, 1659.875000, 8309.000000, 8331.000000, 8375.000000
3344, 27478808.000000, 1608.625000, 8302.500000, 8300.000000, 8340.000000
3345, 27478968.000000, 1544.250000, 8238.500000, 8252.000000, 8278.000000
3346, 27479128.000000, 1475.125000, 8189.500000, 8197.500000, 8193.000000
3347, 27479288.000000, 1405.375000, 8157.500000, 8157.000000, 8140.500000
3348, 27479448.000000, 1339.625000, 8133.000000, 8162.000000, 8142.000000
3349, 27479608.000000, 1275.250000, 8143.000000, 8154.000000, 8134.500000
3350, 27479768.000000, 1212.625000, 8146.000000, 8156.500000, 8139.500000
3351, 27479928.000000, 1151.000000, 8150.000000, 8155.500000, 8141.500000
3352, 27480088.000000, 1103.000000, 8159.000000, 8168.500000, 8154.000000
3353, 27480248.000000, 1070.250000, 8152.000000, 8157.500000, 8142.000000
3354, 27480408.000000, 1044.000000, 8151.500000, 8163.500000, 8145.000000
3355, 27480568.000000, 998.375000, 8157.000000, 8156.500000, 8138.500000
3356, 27480728.000000, 998.375000, 8137.500000, 8168.000000, 8147.000000
3357, 27480888.000000, 1175.875000, 8175.500000, 8155.000000, 8140.500000
3358, 27481048.000000, 1602.750000, 8163.500000, 8169.500000, 8159.000000
3359, 27481208.000000, 2137.500000, 8171.500000, 8166.500000, 8168.000000
3360, 27481368.000000, 2555.375000, 8166.000000, 8173.500000, 8173.000000
3361, 27481528.000000, 2736.750000, 8162.000000, 8151.500000, 8138.500000
3362, 27481688.000000, 2712.625000, 8164.500000, 8160.000000, 8149.000000
3363, 27481848.000000, 2575.250000, 8181.000000, 8275.500000, 8264.500000
3364, 27482008.000000, 2391.500000, 8563.000000, 7982.000000, 8163.000000
3365, 27482168.000000, 2206.125000, 8016.500000, 7784.500000, 7718.000000
3366, 27482328.000000, 2027.375000, 8096.000000, 8092.500000, 8023.000000
3367, 27482488.000000, 1849.875000, 8178.500000, 8221.500000, 8214.000000
3368, 27482648.000000, 1673.500000, 8188.500000, 8237.000000, 8238.500000
3369, 27482808.000000, 1508.000000, 8196.500000, 8248.500000, 8251.500000
3370, 27482968.000000, 1379.375000, 8208.500000, 8250.500000, 8262.500000
3371, 27483128.000000, 1302.875000, 8221.500000, 8249.000000, 8267.500000
3372, 27483288.000000, 1283.750000, 8249.000000, 8278.500000, 8299.500000
3373, 27483448.000000, 1303.500000, 8269.000000, 8293.500000, 8327.000000
3374, 27483608.000000, 1335.375000, 8290.500000, 8318.000000, 8360.000000
3375, 27483768.000000, 1344.125000, 8307.000000, 8307.500000, 8354.000000
3376, 27483928.000000, 1324.375000, 8284.000000, 8303.000000, 8344.000000
3377, 27484088.000000, 1282.250000, 8243.500000, 8254.500000, 8275.000000
3378, 27484248.000000, 1229.000000, 8179.000000, 8222.000000, 8216.500000
3379, 27484408.000000, 1169.875000, 8132.000000, 8184.500000, 8166.000000
3380, 27484568.000000, 1115.750000, 8119.500000, 8170.000000, 8146.000000
3381, 27484728.000000, 1058.875000, 8125.500000, 8179.500000, 8158.500000
3382, 27484888.000000, 1001.125000, 8137.000000, 8180.500000, 8161.000000
3383, 27485048.000000, 949.500000, 8153.500000, 8178.000000, 8162.000000
3384, 27485208.000000, 907.375000, 8141.500000, 8178.500000, 8160.000000
3385, 27485368.000000, 875.375000, 8148.500000, 8183.000000, 8162.000000
3386, 27485528.000000, 851.250000, 8149.000000, 8170.000000, 8148.500000
3387, 27485688.000000, 820.750000, 8157.500000, 8173.000000, 8151.500000
3388, 27485848.000000, 807.625000, 8142.000000, 8179.500000, 8153.500000
3389, 27486008.000000, 960.500000, 8148.000000, 8189.500000, 8175.500000
3390, 27486168.000000, 1416.500000, 8163.500000, 8184.500000, 8185.500000
3391, 27486328.000000, 1916.250000, 8160.000000, 8184.000000, 8174.000000
3392, 27486488.000000, 2292.375000, 8151.000000, 8177.000000, 8152.000000
3393, 27486648.000000, 2469.875000, 8160.500000, 8176.000000, 8150.500000
3394, 27486808.000000, 2456.750000, 8143.000000, 8220.500000, 8195.500000
3395, 27486968.000000, 2318.875000, 8358.000000, 8245.500000, 8324.500000
3396, 27487128.000000, 2138.750000, 8407.000000, 7648.000000, 7752.000000
3397, 27487288.000000, 1984.625000, 8015.500000, 7962.000000, 7839.000000
3398, 27487448.000000, 1832.375000, 8171.000000, 8220.500000, 8205.500000
3399, 27487608.000000, 1678.625000, 8169.500000, 8254.000000, 8246.500000
3400, 27487768.000000, 1530.625000, 8176.000000, 8262.500000, 8259.000000
3401, 27487928.000000, 1382.250000, 8204.000000, 8249.500000, 8252.500000
3402, 27488088.000000, 1304.875000, 8215.000000, 8270.000000, 8280.000000
3403, 27488248.000000, 1295.750000, 8226.500000, 8286.500000, 8304.500000
3404, 27488408.000000, 1321.250000, 8248.000000, 8303.000000, 8336.500000
3405, 27488568.000000, 1356.250000, 8279.500000, 8339.000000, 8377.500000
3406, 27488728.000000, 1376.125000, 8302.500000, 8337.500000, 8386.000000
3407, 27488888.000000, 1368.875000, 8295.500000, 8343.500000, 8392.500000
3408, 27489048.000000, 1332.000000, 8258.000000, 8298.000000, 8334.000000
3409, 27489208.000000, 1285.500000, 8201.000000, 8237.500000, 8247.500000
3410, 27489368.000000, 1234.125000, 8157.000000, 8179.500000, 8173.500000
3411, 27489528.000000, 1182.625000, 8127.000000, 8168.500000, 8148.500000
3412, 27489688.000000, 1127.125000, 8126.000000, 8157.500000, 8140.500000
3413, 27489848.000000, 1075.500000, 8119.000000, 8175.500000, 8162.000000
3414, 27490008.000000, 1035.875000, 8133.500000, 8169.500000, 8155.500000
3415, 27490168.000000, 1021.250000, 8149.000000, 8167.000000, 8157.500000
3416, 27490328.000000, 1024.000000, 8143.000000, 8171.000000, 8160.500000
3417, 27490488.000000, 1017.500000, 8132.000000, 8176.000000, 8161.500000
3418, 27490648.000000, 1027.875000, 8138.500000, 8169.000000, 8157.500000
3419, 27490808.000000, 1145.000000, 8144.500000, 8157.000000, 8143.500000
3420, 27490968.000000, 1467.375000, 8137.000000, 8167.000000, 8156.500000
3421, 27491128.000000, 1891.625000, 8145.000000, 8173.500000, 8167.500000
3422, 27491288.000000, 2259.125000, 8158.500000, 8176.500000, 8182.000000
3423, 27491448.000000, 2460.375000, 8153.000000, 8172.000000, 8168.500000
3424, 27491608.000000, 2494.875000, 8152.500000, 8151.500000, 8138.500000
3425, 27491768.000000, 2406.875000, 8145.500000, 8160.500000, 8141.500000
3426, 27491928.000000, 2254.875000, 8153.000000, 8276.500000, 8259.000000
3427, 27492088.000000, 2088.250000, 8556.500000, 7964.500000, 8134.500000
3428, 27492248.000000, 1928.000000, 8051.000000, 7690.500000, 7635.000000
3429, 27492408.000000, 1768.000000, 8099.500000, 8096.000000, 8024.500000
3430, 27492568.000000, 1604.625000, 8161.000000, 8238.000000, 8228.500000
3431, 27492728.000000, 1447.625000, 8178.500000, 8250.000000, 8249.000000
3432, 27492888.000000, 1317.000000, 8192.000000, 8258.000000, 8259.000000
3433, 27493048.000000, 1236.250000, 8208.500000, 8263.500000, 8272.500000
3434, 27493208.000000, 1204.500000, 8217.000000, 8272.000000, 8294.500000
3435, 27493368.000000, 1208.250000, 8239.500000, 8290.500000, 8317.500000
3436, 27493528.000000, 1222.875000, 8264.500000, 8311.000000, 8347.000000
3437, 27493688.000000, 1227.125000, 8306.000000, 8337.000000, 8389.000000
3438, 27493848.000000, 1215.000000, 8309.000000, 8344.500000, 8395.500000
3439, 27494008.000000, 1190.375000, 8289.500000, 8323.000000, 8369.000000
3440, 27494168.000000, 1155.250000, 8250.500000, 8278.000000, 8308.000000
3441, 27494328.000000, 1108.375000, 8191.000000, 8209.500000, 8216.000000
3442, 27494488.000000, 1057.125000, 8139.000000, 8180.500000, 8159.500000
3443, 27494648.000000, 1001.875000, 8128.000000, 8169.500000, 8147.000000
3444, 27494808.000000, 939.500000, 8127.000000, 8168.000000, 8143.000000
3445, 27494968.000000, 874.000000, 8133.000000, 8171.000000, 8150.000000
3446, 27495128.000000, 820.875000, 8148.500000, 8168.500000, 8154.000000
3447, 27495288.000000, 782.625000, 8130.000000, 8175.500000, 8156.500000
3448, 27495448.000000, 752.750000, 8143.500000, 8169.500000, 8150.500000
3449, 27495608.000000, 714.875000, 8144.500000, 8169.500000, 8148.500000
3450, 27495768.000000, 737.375000, 8136.500000, 8173.500000, 8147.000000
3451, 27495928.000000, 932.875000, 8140.500000, 8170.000000, 8148.000000
3452, 27496088.000000, 1366.750000, 8156.000000, 8175.000000, 8167.500000
3453, 27496248.000000, 1860.750000, 8150.000000, 8187.500000, 8178.500000
3454, 27496408.000000, 2221.375000, 8158.500000, 8179.500000, 8175.500000
3455, 27496568.000000, 2362.625000, 8158.000000, 8166.500000, 8154.000000
3456, 27496728.000000, 2342.375000, 8139.500000, 8173.500000, 8143.000000
3457, 27496888.000000, 2242.750000, 8152.500000, 8175.000000, 8146.000000
3458, 27497048.000000, 2121.250000, 8252.000000, 8331.500000, 8352.500000
3459, 27497208.000000, 2001.750000, 8548.500000, 7674.000000, 7861.500000
3460, 27497368.000000, 1886.375000, 7957.000000, 7844.000000, 7705.500000
3461, 27497528.000000, 1765.250000, 8155.500000, 8212.000000, 8183.000000
3462, 27497688.000000, 1639.625000, 8177.000000, 8241.500000, 8227.000000
3463, 27497848.000000, 1528.125000, 8193.000000, 8244.500000, 8241.500000
3464, 27498008.000000, 1448.750000, 8193.000000, 8267.000000, 8265.000000
3465, 27498168.000000, 1410.375000, 8213.000000, 8268.500000, 8271.500000
3466, 27498328.000000, 1408.875000, 8227.000000, 8271.000000, 8282.000000
3467, 27498488.000000, 1429.625000, 8256.500000, 8306.000000, 8330.000000
3468, 27498648.000000, 1460.875000, 8285.000000, 8325.500000, 8364.500000
3469, 27498808.000000, 1486.125000, 8289.500000, 8359.000000, 8403.000000
3470, 27498968.000000, 1497.375000, 8299.500000, 8353.500000, 8393.500000
3471, 27499128.000000, 1490.625000, 8284.500000, 8323.000000, 8358.500000
3472, 27499288.000000, 1467.500000, 8238.000000, 8249.500000, 8266.000000
3473, 27499448.000000, 1432.875000, 8169.500000, 8192.500000, 8180.000000
3474, 27499608.000000, 1391.625000, 8140.500000, 8161.500000, 8136.500000
3475, 27499768.000000, 1351.875000, 8145.000000, 8151.500000, 8126.500000
3476, 27499928.000000, 1313.625000, 8144.000000, 8165.500000, 8144.500000
3477, 27500088.000000, 1270.250000, 8153.000000, 8163.500000, 8143.500000
3478, 27500248.000000, 1230.375000, 8149.500000, 8169.000000, 8149.000000
3479, 27500408.000000, 1194.750000, 8155.500000, 8157.000000, 8138.000000
3480, 27500568.000000, 1157.625000, 8162.500000, 8160.500000, 8142.000000
3481, 27500728.000000, 1116.750000, 8152.000000, 8163.000000, 8140.500000
3482, 27500888.000000, 1153.625000, 8162.000000, 8152.500000, 8133.000000
3483, 27501048.000000, 1357.750000, 8149.000000, 8171.000000, 8150.500000
3484, 27501208.000000, 1771.875000, 8162.500000, 8161.500000, 8155.500000
3485, 27501368.000000, 2226.625000, 8160.000000, 8169.000000, 8164.000000
3486, 27501528.000000, 2552.625000, 8173.500000, 8163.000000, 8149.000000
3487, 27501688.000000, 2675.500000, 8150.000000, 8159.500000, 8135.000000
3488, 27501848.000000, 2638.000000, 8165.000000, 8155.500000, 8134.500000
3489, 27502008.000000, 2515.750000, 8198.000000, 8316.500000, 8316.500000
3490, 27502168.000000, 2363.375000, 8597.000000, 7833.500000, 8025.500000
3491, 27502328.000000, 2207.625000, 7978.000000, 7813.500000, 7704.500000
3492, 27502488.000000, 2054.375000, 8144.000000, 8146.500000, 8090.000000
3493, 27502648.000000, 1895.125000, 8179.000000, 8224.500000, 8212.000000
3494, 27502808.000000, 1733.375000, 8194.000000, 8236.500000, 8234.000000
3495, 27502968.000000, 1585.875000, 8198.500000, 8247.500000, 8248.000000
3496, 27503128.000000, 1479.500000, 8215.500000, 8248.500000, 8252.000000
3497, 27503288.000000, 1431.500000, 8240.000000, 8259.500000, 8274.500000
3498, 27503448.000000, 1437.750000, 8248.500000, 8276.500000, 8300.000000
3499, 27503608.000000, 1464.625000, 8272.500000, 8297.500000, 8332.000000
3500, 27503768.000000, 1482.500000, 8302.500000, 8312.000000, 8353.500000
3501, 27503928.000000, 1476.875000, 8312.500000, 8309.000000, 8349.500000
3502, 27504088.000000, 1444.625000, 8282.500000, 8292.000000, 8326.000000
3503, 27504248.000000, 1394.750000, 8240.000000, 8245.500000, 8265.500000
3504, 27504408.000000, 1338.375000, 8179.000000, 8219.500000, 8214.000000
3505, 27504568.000000, 1277.125000, 8146.500000, 8192.000000, 8175.000000
3506, 27504728.000000, 1214.625000, 8138.000000, 8178.500000, 8159.000000
3507, 27504888.000000, 1153.125000, 8152.000000, 8179.500000, 8164.000000
3508, 27505048.000000, 1092.375000, 8153.000000, 8186.500000, 8173.000000
3509, 27505208.000000, 1038.500000, 8153.500000, 8201.500000, 8189.500000
3510, 27505368.000000, 993.250000, 8161.500000, 8211.500000, 8199.500000
3511, 27505528.000000, 945.500000, 8161.500000, 8230.500000, 8217.500000
3512, 27505688.000000, 889.750000, 8149.000000, 8235.000000, 8216.000000
3513, 27505848.000000, 857.375000, 8150.500000, 8256.000000, 8243.500000
3514, 27506008.000000, 982.125000, 8162.000000, 8235.500000, 8235.500000
3515, 27506168.000000, 1319.250000, 8167.000000, 8219.000000, 8214.500000
3516, 27506328.000000, 1790.750000, 8161.500000, 8219.000000, 8201.000000
3517, 27506488.000000, 2183.875000, 8149.000000, 8218.000000, 8196.500000
3518, 27506648.000000, 2374.000000, 8155.500000, 8249.000000, 8222.000000
3519, 27506808.000000, 2382.125000, 8398.500000, 8282.000000, 8377.500000
3520, 27506968.000000, 2291.000000, 8291.500000, 7809.000000, 7875.000000
3521, 27507128.000000, 2159.000000, 8016.500000, 8008.500000, 7892.000000
3522, 27507288.000000, 2019.000000, 8174.500000, 8232.500000, 8216.000000
3523, 27507448.000000, 1880.875000, 8170.500000, 8263.500000, 8255.500000
3524, 27507608.000000, 1733.875000, 8190.500000, 8261.000000, 8256.000000
3525, 27507768.000000, 1590.000000, 8205.500000, 8262.000000, 8266.000000
3526, 27507928.000000, 1468.250000, 8210.000000, 8274.500000, 8281.500000
3527, 27508088.000000, 1387.125000, 8232.000000, 8290.500000, 8301.000000
3528, 27508248.000000, 1355.625000, 8259.000000, 8304.500000, 8329.000000
3529, 27508408.000000, 1373.375000, 8274.500000, 8325.500000, 8357.500000
3530, 27508568.000000, 1423.625000, 8293.000000, 8333.000000, 8370.500000
3531, 27508728.000000, 1475.750000, 8274.500000, 8328.000000, 8360.000000
3532, 27508888.000000, 1504.625000, 8253.500000, 8288.000000, 8308.000000
3533, 27509048.000000, 1509.375000, 8192.500000, 8240.000000, 8237.500000
3534, 27509208.000000, 1494.625000, 8150.000000, 8194.000000, 8180.500000
3535, 27509368.000000, 1467.500000, 8142.000000, 8180.500000, 8160.500000
3536, 27509528.000000, 1435.750000, 8137.000000, 8180.000000, 8158.500000
3537, 27509688.000000, 1400.750000, 8150.500000, 8179.000000, 8159.000000
3538, 27509848.000000, 1367.500000, 8155.000000, 8175.500000, 8159.500000
3539, 27510008.000000, 1338.375000, 8147.500000, 8186.500000, 8171.500000
3540, 27510168.000000, 1314.250000, 8146.500000, 8184.000000, 8166.000000
3541, 27510328.000000, 1284.750000, 8153.000000, 8190.000000, 8174.000000
3542, 27510488.000000, 1244.125000, 8170.500000, 8183.500000, 8176.500000
3543, 27510648.000000, 1250.875000, 8165.000000, 8184.000000, 8185.000000
3544, 27510808.000000, 1421.375000, 8156.000000, 8183.000000, 8176.000000
3545, 27510968.000000, 1804.125000, 8149.500000, 8181.000000, 8165.000000
3546, 27511128.000000, 2265.875000, 8159.500000, 8164.500000, 8146.000000
3547, 27511288.000000, 2631.000000, 8157.000000, 8261.000000, 8241.000000
3548, 27511448.000000, 2794.250000, 8462.500000, 8148.000000, 8276.500000
3549, 27511608.000000, 2799.375000, 8104.500000, 7804.000000, 7792.500000
3550, 27511768.000000, 2702.500000, 8071.000000, 8029.500000, 7940.000000
3551, 27511928.000000, 2564.125000, 8175.500000, 8209.000000, 8196.500000
3552, 27512088.000000, 2418.875000, 8185.500000, 8221.500000, 8217.500000
3553, 27512248.000000, 2269.500000, 8197.500000, 8222.000000, 8225.000000
3554, 27512408.000000, 2116.375000, 8197.000000, 8229.500000, 8237.000000
3555, 27512568.000000, 1964.375000, 8221.500000, 8243.500000, 8258.000000
3556, 27512728.000000, 1840.250000, 8235.000000, 8245.000000, 8260.500000
3557, 27512888.000000, 1753.500000, 8254.500000, 8264.500000, 8287.500000
3558, 27513048.000000, 1712.000000, 8280.000000, 8260.500000, 8296.500000
3559, 27513208.000000, 1708.625000, 8283.000000, 8259.500000, 8298.000000
3560, 27513368.000000, 1734.125000, 8270.000000, 8244.000000, 8277.000000
3561, 27513528.000000, 1759.875000, 8241.000000, 8214.500000, 8229.000000
3562, 27513688.000000, 1763.875000, 8182.000000, 8172.500000, 8165.000000
3563, 27513848.000000, 1747.250000, 8144.500000, 8132.500000, 8125.000000
3564, 27514008.000000, 1710.000000, 8124.500000, 8135.000000, 8122.500000
3565, 27514168.000000, 1667.250000, 8134.000000, 8122.500000, 8109.000000
3566, 27514328.000000, 1619.875000, 8135.500000, 8137.500000, 8130.000000
3567, 27514488.000000, 1569.500000, 8149.500000, 8139.500000, 8135.500000
3568, 27514648.000000, 1519.125000, 8141.500000, 8148.500000, 8144.000000
3569, 27514808.000000, 1463.875000, 8148.500000, 8152.000000, 8154.000000
3570, 27514968.000000, 1397.125000, 8163.500000, 8154.000000, 8162.000000
3571, 27515128.000000, 1331.875000, 8156.500000, 8145.500000, 8150.500000
3572, 27515288.000000, 1346.875000, 8161.500000, 8142.500000, 8148.500000
3573, 27515448.000000, 1548.250000, 8145.000000, 8139.000000, 8132.000000
3574, 27515608.000000, 1955.750000, 8138.000000, 8147.000000, 8134.500000
3575, 27515768.000000, 2404.625000, 8207.500000, 8280.000000, 8305.500000
3576, 27515928.000000, 2723.000000, 8419.000000, 7965.000000, 8105.000000
3577, 27516088.000000, 2842.125000, 7977.500000, 7875.500000, 7797.000000
3578, 27516248.000000, 2799.250000, 8136.500000, 8111.500000, 8076.500000
3579, 27516408.000000, 2666.625000, 8170.000000, 8185.500000, 8190.000000
3580, 27516568.000000, 2499.125000, 8175.000000, 8197.000000, 8199.000000
3581, 27516728.000000, 2326.625000, 8189.500000, 8208.000000, 8213.500000
3582, 27516888.000000, 2158.875000, 8201.000000, 8209.500000, 8224.500000
3583, 27517048.000000, 1989.500000, 8213.000000, 8223.500000, 8243.500000
3584, 27517208.000000, 1831.250000, 8236.500000, 8225.500000, 8251.000000
3585, 27517368.000000, 1702.750000, 8244.500000, 8256.500000, 8287.500000
3586, 27517528.000000, 1618.375000, 8275.500000, 8262.500000, 8299.500000
3587, 27517688.000000, 1581.000000, 8265.000000, 8263.000000, 8298.500000
3588, 27517848.000000, 1581.625000, 8238.500000, 8234.000000, 8267.000000
3589, 27518008.000000, 1605.625000, 8203.500000, 8202.000000, 8212.500000
3590, 27518168.000000, 1632.625000, 8147.500000, 8171.000000, 8164.500000
3591, 27518328.000000, 1640.875000, 8132.500000, 8161.500000, 8144.000000
3592, 27518488.000000, 1631.000000, 8131.500000, 8148.500000, 8131.500000
3593, 27518648.000000, 1606.375000, 8145.000000, 8157.500000, 8149.500000
3594, 27518808.000000, 1573.750000, 8138.500000, 8159.000000, 8148.500000
3595, 27518968.000000, 1538.750000, 8143.500000, 8168.000000, 8155.000000
3596, 27519128.000000, 1504.125000, 8160.500000, 8166.000000, 8163.000000
3597, 27519288.000000, 1467.125000, 8149.500000, 8174.500000, 8169.500000
3598, 27519448.000000, 1420.125000, 8160.500000, 8181.500000, 8186.500000
3599, 27519608.000000, 1392.250000, 8157.500000, 8162.500000, 8159.000000
3600, 27519768.000000, 1490.500000, 8143.000000, 8162.500000, 8144.000000
3601, 27519928.000000, 1815.250000, 8156.500000, 8154.000000, 8137.000000
3602, 27520088.000000, 2289.875000, 8168.000000, 8245.000000, 8236.000000
3603, 27520248.000000, 2735.375000, 8433.500000, 8131.500000, 8253.500000
3604, 27520408.000000, 2988.500000, 8064.000000, 7824.500000, 7788.500000
3605, 27520568.000000, 3061.375000, 8086.000000, 8049.500000, 7971.000000
3606, 27520728.000000, 3004.000000, 8178.500000, 8201.000000, 8193.500000
3607, 27520888.000000, 2882.750000, 8184.500000, 8206.000000, 8205.000000
3608, 27521048.000000, 2741.500000, 8179.000000, 8229.500000, 8226.000000
3609, 27521208.000000, 2590.500000, 8197.500000, 8221.000000, 8229.000000
3610, 27521368.000000, 2436.625000, 8214.500000, 8228.000000, 8238.000000
3611, 27521528.000000, 2274.000000, 8228.500000, 8246.500000, 8262.000000
3612, 27521688.000000, 2126.750000, 8261.000000, 8267.000000, 8290.000000
3613, 27521848.000000, 2010.875000, 8271.000000, 8286.000000, 8317.000000
3614, 27522008.000000, 1948.750000, 8259.500000, 8298.000000, 8329.000000
3615, 27522168.000000, 1935.750000, 8267.000000, 8274.000000, 8302.000000
3616, 27522328.000000, 1961.250000, 8229.000000, 8235.500000, 8247.500000
3617, 27522488.000000, 1995.375000, 8174.500000, 8194.000000, 8182.500000
3618, 27522648.000000, 2019.875000, 8137.500000, 8172.500000, 8155.500000
3619, 27522808.000000, 2019.500000, 8143.000000, 8156.000000, 8142.500000
3620, 27522968.000000, 1996.125000, 8144.500000, 8164.500000, 8147.500000
3621, 27523128.000000, 1955.375000, 8149.500000, 8170.000000, 8154.000000
3622, 27523288.000000, 1904.750000, 8156.000000, 8172.500000, 8162.000000
3623, 27523448.000000, 1850.625000, 8154.000000, 8170.500000, 8162.500000
3624, 27523608.000000, 1792.625000, 8153.000000, 8182.000000, 8176.500000
3625, 27523768.000000, 1722.750000, 8170.000000, 8188.500000, 8187.000000
3626, 27523928.000000, 1662.875000, 8166.000000, 8172.000000, 8169.000000
3627, 27524088.000000, 1695.250000, 8163.000000, 8175.500000, 8164.500000
3628, 27524248.000000, 1958.250000, 8143.000000, 8171.500000, 8156.500000
3629, 27524408.000000, 2403.500000, 8150.000000, 8166.500000, 8146.000000
3630, 27524568.000000, 2878.250000, 8184.500000, 8301.500000, 8306.500000
3631, 27524728.000000, 3199.625000, 8468.000000, 7975.000000, 8113.000000
3632, 27524888.000000, 3320.250000, 7998.500000, 7828.500000, 7742.000000
3633, 27525048.000000, 3284.500000, 8133.500000, 8124.000000, 8068.500000
3634, 27525208.000000, 3167.000000, 8161.500000, 8217.500000, 8207.500000
3635, 27525368.000000, 3018.750000, 8175.000000, 8232.500000, 8230.500000
3636, 27525528.000000, 2854.250000, 8197.500000, 8238.000000, 8240.000000
3637, 27525688.000000, 2683.750000, 8198.500000, 8245.500000, 8253.500000
3638, 27525848.000000, 2503.250000, 8223.500000, 8249.500000, 8265.500000
3639, 27526008.000000, 2322.750000, 8231.000000, 8268.500000, 8290.500000
3640, 27526168.000000, 2170.125000, 8260.500000, 8299.500000, 8330.500000
3641, 27526328.000000, 2060.625000, 8280.500000, 8325.000000, 8361.000000
3642, 27526488.000000, 1999.375000, 8271.000000, 8325.000000, 8361.500000
3643, 27526648.000000, 1974.625000, 8260.500000, 8299.000000, 8324.500000
3644, 27526808.000000, 1968.375000, 8220.500000, 8243.500000, 8253.500000
3645, 27526968.000000, 1965.500000, 8168.000000, 8203.500000, 8201.500000
3646, 27527128.000000, 1946.125000, 8146.500000, 8171.000000, 8154.000000
3647, 27527288.000000, 1900.625000, 8148.500000, 8197.500000, 8181.000000
3648, 27527448.000000, 1834.375000, 8144.500000, 8212.500000, 8198.000000
3649, 27527608.000000, 1758.750000, 8142.500000, 8219.000000, 8207.500000
3650, 27527768.000000, 1683.750000, 8159.000000, 8220.500000, 8214.000000
3651, 27527928.000000, 1613.375000, 8157.000000, 8216.000000, 8202.000000
3652, 27528088.000000, 1540.375000, 8152.000000, 8212.500000, 8200.500000
3653, 27528248.000000, 1456.375000, 8160.500000, 8219.500000, 8216.500000
3654, 27528408.000000, 1401.125000, 8161.000000, 8227.500000, 8227.000000
3655, 27528568.000000, 1516.000000, 8153.500000, 8208.500000, 8206.000000
3656, 27528728.000000, 1872.375000, 8168.000000, 8200.500000, 8186.500000
3657, 27528888.000000, 2393.250000, 8144.500000, 8193.500000, 8171.000000
3658, 27529048.000000, 2849.000000, 8149.500000, 8192.500000, 8172.500000
3659, 27529208.000000, 3122.250000, 8215.000000, 8355.500000, 8371.000000
3660, 27529368.000000, 3198.750000, 8462.000000, 7827.500000, 7977.500000
3661, 27529528.000000, 3160.500000, 7975.000000, 7844.500000, 7727.500000
3662, 27529688.000000, 3055.250000, 8148.500000, 8211.000000, 8177.000000
3663, 27529848.000000, 2924.750000, 8181.500000, 8246.500000, 8236.500000
3664, 27530008.000000, 2785.500000, 8175.000000, 8261.500000, 8254.500000
3665, 27530168.000000, 2632.750000, 8187.000000, 8269.000000, 8263.000000
3666, 27530328.000000, 2462.375000, 8197.000000, 8285.000000, 8283.500000
3667, 27530488.000000, 2289.375000, 8222.500000, 8288.500000, 8293.000000
3668, 27530648.000000, 2143.250000, 8249.000000, 8304.500000, 8324.500000
3669, 27530808.000000, 2043.000000, 8250.000000, 8330.000000, 8359.500000
3670, 27530968.000000, 1993.875000, 8287.000000, 8353.500000, 8389.000000
3671, 27531128.000000, 1979.375000, 8288.500000, 8344.500000, 8374.000000
3672, 27531288.000000, 1984.125000, 8249.000000, 8330.000000, 8348.000000
3673, 27531448.000000, 1987.000000, 8220.000000, 8252.000000, 8256.500000
3674, 27531608.000000, 1977.000000, 8153.500000, 8208.500000, 8190.500000
3675, 27531768.000000, 1950.625000, 8141.500000, 8175.000000, 8148.500000
3676, 27531928.000000, 1915.750000, 8132.500000, 8175.000000, 8144.000000
3677, 27532088.000000, 1872.500000, 8142.500000, 8185.000000, 8158.500000
3678, 27532248.000000, 1822.500000, 8148.000000, 8181.000000, 8162.000000
3679, 27532408.000000, 1767.875000, 8150.000000, 8184.500000, 8161.000000
3680, 27532568.000000, 1716.125000, 8152.500000, 8182.500000, 8163.500000
3681, 27532728.000000, 1658.125000, 8155.000000, 8178.000000, 8154.000000
3682, 27532888.000000, 1590.000000, 8160.500000, 8184.500000, 8164.000000
3683, 27533048.000000, 1569.750000, 8166.000000, 8177.500000, 8165.500000
3684, 27533208.000000, 1762.375000, 8153.000000, 8195.000000, 8184.500000
3685, 27533368.000000, 2203.625000, 8163.500000, 8184.500000, 8173.000000
3686, 27533528.000000, 2776.625000, 8178.000000, 8178.000000, 8160.000000
3687, 27533688.000000, 3250.750000, 8150.000000, 8169.500000, 8144.000000
3688, 27533848.000000, 3514.625000, 8149.000000, 8175.500000, 8150.500000
3689, 27534008.000000, 3584.000000, 8212.500000, 8353.000000, 8361.500000
3690, 27534168.000000, 3530.750000, 8514.500000, 7685.000000, 7854.000000
3691, 27534328.000000, 3421.000000, 7982.000000, 7804.000000, 7678.000000
3692, 27534488.000000, 3295.875000, 8163.500000, 8200.500000, 8173.500000
3693, 27534648.000000, 3163.750000, 8176.500000, 8252.500000, 8241.500000
3694, 27534808.000000, 3021.125000, 8184.000000, 8261.500000, 8261.500000
3695, 27534968.000000, 2861.250000, 8201.500000, 8268.500000, 8270.500000
3696, 27535128.000000, 2693.000000, 8204.000000, 8282.000000, 8290.000000
3697, 27535288.000000, 2543.125000, 8227.000000, 8290.000000, 8302.000000
3698, 27535448.000000, 2425.375000, 8253.500000, 8307.500000, 8332.500000
3699, 27535608.000000, 2345.250000, 8271.500000, 8328.000000, 8365.000000
3700, 27535768.000000, 2305.875000, 8286.000000, 8351.000000, 8389.500000
3701, 27535928.000000, 2286.750000, 8281.500000, 8347.500000, 8386.000000
3702, 27536088.000000, 2268.250000, 8261.500000, 8314.000000, 8344.500000
3703, 27536248.000000, 2234.000000, 8215.500000, 8240.500000, 8256.500000
3704, 27536408.000000, 2186.000000, 8172.500000, 8184.000000, 8174.500000
3705, 27536568.000000, 2119.625000, 8134.500000, 8175.000000, 8157.000000
3706, 27536728.000000, 2038.250000, 8144.500000, 8153.500000, 8130.000000
3707, 27536888.000000, 1950.500000, 8142.500000, 8162.500000, 8144.000000
3708, 27537048.000000, 1860.875000, 8143.500000, 8166.500000, 8146.500000
3709, 27537208.000000, 1777.125000, 8150.500000, 8171.500000, 8153.000000
3710, 27537368.000000, 1704.500000, 8144.500000, 8169.000000, 8150.500000
3711, 27537528.000000, 1630.875000, 8155.000000, 8168.500000, 8148.000000
3712, 27537688.000000, 1550.125000, 8157.500000, 8162.000000, 8143.000000
3713, 27537848.000000, 1508.375000, 8151.000000, 8164.500000, 8144.500000
3714, 27538008.000000, 1659.000000, 8162.500000, 8171.000000, 8163.500000
3715, 27538168.000000, 2063.375000, 8156.000000, 8172.500000, 8170.500000
3716, 27538328.000000, 2620.625000, 8169.500000, 8156.500000, 8151.500000
3717, 27538488.000000, 3104.375000, 8160.000000, 8138.500000, 8127.500000
3718, 27538648.000000, 3380.625000, 8144.000000, 8131.000000, 8113.500000
3719, 27538808.000000, 3455.250000, 8149.500000, 8131.000000, 8111.000000
3720, 27538968.000000, 3404.000000, 8259.500000, 8250.500000, 8284.500000
3721, 27539128.000000, 3285.500000, 8508.500000, 7557.500000, 7732.500000
3722, 27539288.000000, 3141.125000, 7960.500000, 7792.000000, 7664.000000
3723, 27539448.000000, 2989.625000, 8160.000000, 8144.500000, 8131.500000
3724, 27539608.000000, 2820.375000, 8171.000000, 8188.500000, 8185.000000
3725, 27539768.000000, 2631.750000, 8192.500000, 8203.000000, 8201.500000
3726, 27539928.000000, 2439.250000, 8198.500000, 8218.500000, 8222.000000
3727, 27540088.000000, 2268.875000, 8202.000000, 8228.500000, 8240.000000
3728, 27540248.000000, 2143.125000, 8231.000000, 8240.000000, 8259.000000
3729, 27540408.000000, 2071.750000, 8252.500000, 8260.500000, 8288.000000
3730, 27540568.000000, 2044.250000, 8291.000000, 8291.000000, 8325.000000
3731, 27540728.000000, 2045.750000, 8286.000000, 8307.000000, 8349.500000
3732, 27540888.000000, 2044.875000, 8288.000000, 8309.500000, 8343.500000
3733, 27541048.000000, 2021.875000, 8264.000000, 8282.000000, 8313.000000
3734, 27541208.000000, 1969.250000, 8222.000000, 8220.000000, 8230.000000
3735, 27541368.000000, 1900.625000, 8159.000000, 8192.000000, 8175.500000
3736, 27541528.000000, 1826.375000, 8144.000000, 8152.500000, 8132.000000
3737, 27541688.000000, 1748.875000, 8143.500000, 8157.000000, 8135.000000
3738, 27541848.000000, 1674.750000, 8141.000000, 8171.500000, 8150.000000
3739, 27542008.000000, 1599.750000, 8142.500000, 8166.500000, 8146.000000
3740, 27542168.000000, 1528.875000, 8167.000000, 8163.500000, 8146.000000
3741, 27542328.000000, 1464.125000, 8151.000000, 8162.500000, 8139.500000
3742, 27542488.000000, 1403.250000, 8143.000000, 8168.000000, 8145.000000
3743, 27542648.000000, 1331.750000, 8156.000000, 8159.000000, 8135.500000
3744, 27542808.000000, 1301.500000, 8147.000000, 8172.000000, 8149.500000
3745, 27542968.000000, 1449.375000, 8159.000000, 8161.000000, 8139.500000
3746, 27543128.000000, 1878.625000, 8160.500000, 8168.500000, 8156.000000
3747, 27543288.000000, 2468.750000, 8170.000000, 8195.000000, 8196.500000
3748, 27543448.000000, 2983.125000, 8166.000000, 8196.500000, 8181.500000
3749, 27543608.000000, 3300.625000, 8163.500000, 8190.000000, 8168.500000
3750, 27543768.000000, 3408.000000, 8163.500000, 8180.500000, 8154.000000
3751, 27543928.000000, 3373.750000, 8170.500000, 8279.500000, 8247.500000
3752, 27544088.000000, 3264.750000, 8540.000000, 8054.000000, 8203.000000
3753, 27544248.000000, 3126.000000, 8125.500000, 7714.000000, 7685.000000
3754, 27544408.000000, 2977.750000, 8094.500000, 8081.000000, 7990.000000
3755, 27544568.000000, 2813.625000, 8179.500000, 8251.000000, 8237.000000
3756, 27544728.000000, 2632.250000, 8193.000000, 8284.000000, 8272.000000
3757, 27544888.000000, 2457.250000, 8213.000000, 8273.500000, 8273.500000
3758, 27545048.000000, 2307.875000, 8209.500000, 8284.000000, 8283.500000
3759, 27545208.000000, 2204.250000, 8232.500000, 8283.500000, 8294.500000
3760, 27545368.000000, 2150.500000, 8247.000000, 8310.000000, 8328.500000
3761, 27545528.000000, 2133.375000, 8280.000000, 8319.000000, 8343.500000
3762, 27545688.000000, 2133.625000, 8288.000000, 8335.000000, 8373.000000
3763, 27545848.000000, 2128.500000, 8296.500000, 8339.500000, 8377.500000
3764, 27546008.000000, 2107.500000, 8267.500000, 8327.500000, 8358.500000
3765, 27546168.000000, 2068.375000, 8255.000000, 8270.500000, 8285.500000
3766, 27546328.000000, 2010.250000, 8193.500000, 8213.500000, 8213.500000
3767, 27546488.000000, 1940.500000, 8163.500000, 8179.500000, 8167.000000
3768, 27546648.000000, 1869.125000, 8138.000000, 8176.000000, 8159.000000
3769, 27546808.000000, 1800.375000, 8148.000000, 8183.500000, 8161.500000
3770, 27546968.000000, 1742.875000, 8162.500000, 8178.000000, 8164.500000
3771, 27547128.000000, 1699.125000, 8167.500000, 8174.000000, 8163.000000
3772, 27547288.000000, 1658.625000, 8155.000000, 8191.000000, 8176.000000
3773, 27547448.000000, 1612.500000, 8158.000000, 8171.000000, 8153.500000
3774, 27547608.000000, 1549.000000, 8160.000000, 8174.000000, 8154.000000
3775, 27547768.000000, 1458.875000, 8164.500000, 8176.500000, 8164.500000
3776, 27547928.000000, 1406.250000, 8166.500000, 8183.500000, 8173.500000
3777, 27548088.000000, 1532.875000, 8171.000000, 8182.000000, 8181.000000
3778, 27548248.000000, 1924.500000, 8185.000000, 8167.000000, 8162.500000
3779, 27548408.000000, 2464.375000, 8155.000000, 8172.500000, 8153.000000
3780, 27548568.000000, 2937.875000, 8169.000000, 8169.000000, 8151.000000
3781, 27548728.000000, 3228.750000, 8173.000000, 8275.500000, 8265.000000
3782, 27548888.000000, 3311.250000, 8547.500000, 8024.000000, 8185.000000
3783, 27549048.000000, 3246.375000, 8023.000000, 7797.000000, 7736.000000
3784, 27549208.000000, 3092.625000, 8111.000000, 8081.000000, 8006.500000
3785, 27549368.000000, 2900.000000, 8171.500000, 8222.500000, 8210.500000
3786, 27549528.000000, 2688.625000, 8198.500000, 8234.500000, 8227.500000
3787, 27549688.000000, 2467.125000, 8202.500000, 8248.000000, 8252.000000
3788, 27549848.000000, 2236.875000, 8218.500000, 8248.500000, 8260.500000
3789, 27550008.000000, 2023.875000, 8221.500000, 8253.000000, 8263.000000
3790, 27550168.000000, 1857.125000, 8256.000000, 8265.500000, 8285.500000
3791, 27550328.000000, 1752.250000, 8282.500000, 8291.000000, 8323.500000
3792, 27550488.000000, 1703.000000, 8282.500000, 8305.000000, 8341.500000
3793, 27550648.000000, 1696.875000, 8295.000000, 8315.000000, 8353.000000
3794, 27550808.000000, 1702.375000, 8267.000000, 8291.500000, 8320.500000
3795, 27550968.000000, 1694.875000, 8223.000000, 8257.500000, 8268.500000
3796, 27551128.000000, 1658.500000, 8184.500000, 8196.500000, 8191.000000
3797, 27551288.000000, 1600.250000, 8145.500000, 8176.000000, 8159.500000
3798, 27551448.000000, 1526.375000, 8136.500000, 8167.000000, 8148.000000
3799, 27551608.000000, 1448.875000, 8152.500000, 8168.000000, 8151.000000
3800, 27551768.000000, 1376.125000, 8147.000000, 8171.500000, 8156.000000
3801, 27551928.000000, 1305.375000, 8158.000000, 8175.500000, 8161.500000
3802, 27552088.000000, 1242.750000, 8151.000000, 8166.000000, 8154.000000
3803, 27552248.000000, 1189.625000, 8147.500000, 8177.000000, 8160.500000
3804, 27552408.000000, 1135.375000, 8158.000000, 8170.000000, 8152.500000
3805, 27552568.000000, 1067.750000, 8147.000000, 8172.500000, 8148.500000
3806, 27552728.000000, 1019.375000, 8159.000000, 8181.000000, 8173.500000
3807, 27552888.000000, 1126.375000, 8158.500000, 8186.500000, 8186.000000
3808, 27553048.000000, 1475.500000, 8175.000000, 8175.500000, 8168.500000
3809, 27553208.000000, 1986.500000, 8152.500000, 8171.000000, 8151.000000
3810, 27553368.000000, 2450.375000, 8152.500000, 8175.500000, 8154.500000
3811, 27553528.000000, 2757.000000, 8153.500000, 8258.000000, 8233.500000
3812, 27553688.000000, 2870.875000, 8517.500000, 8086.500000, 8226.500000
3813, 27553848.000000, 2847.375000, 8132.500000, 7717.000000, 7701.500000
3814, 27554008.000000, 2728.250000, 8075.500000, 8045.000000, 7960.500000
3815, 27554168.000000, 2567.500000, 8175.000000, 8223.500000, 8214.500000
3816, 27554328.000000, 2387.875000, 8181.500000, 8248.500000, 8241.000000
3817, 27554488.000000, 2198.625000, 8199.000000, 8237.000000, 8240.500000
3818, 27554648.000000, 2010.750000, 8200.000000, 8253.500000, 8255.000000
3819, 27554808.000000, 1851.250000, 8219.000000, 8257.500000, 8272.500000
3820, 27554968.000000, 1743.375000, 8249.500000, 8267.500000, 8285.000000
3821, 27555128.000000, 1689.625000, 8273.000000, 8291.500000, 8323.500000
3822, 27555288.000000, 1688.250000, 8290.000000, 8323.000000, 8357.000000
3823, 27555448.000000, 1713.375000, 8286.500000, 8312.500000, 8348.500000
3824, 27555608.000000, 1744.000000, 8281.500000, 8297.000000, 8332.000000
3825, 27555768.000000, 1755.750000, 8240.000000, 8262.500000, 8278.500000
3826, 27555928.000000, 1748.000000, 8184.000000, 8202.500000, 8197.500000
3827, 27556088.000000, 1725.125000, 8141.500000, 8174.500000, 8160.000000
3828, 27556248.000000, 1697.500000, 8139.000000, 8167.500000, 8147.500000
3829, 27556408.000000, 1661.125000, 8152.500000, 8165.500000, 8149.500000
3830, 27556568.000000, 1612.750000, 8151.500000, 8162.000000, 8147.000000
3831, 27556728.000000, 1553.125000, 8155.500000, 8175.500000, 8166.500000
3832, 27556888.000000, 1487.625000, 8160.000000, 8165.000000, 8150.000000
3833, 27557048.000000, 1430.625000, 8149.000000, 8164.500000, 8150.000000
3834, 27557208.000000, 1376.000000, 8160.000000, 8170.000000, 8158.000000
3835, 27557368.000000, 1310.500000, 8158.000000, 8167.500000, 8150.000000
3836, 27557528.000000, 1266.250000, 8156.000000, 8178.500000, 8170.000000
3837, 27557688.000000, 1355.875000, 8172.000000, 8181.500000, 8187.000000
3838, 27557848.000000, 1700.500000, 8157.000000, 8175.500000, 8165.500000
3839, 27558008.000000, 2227.875000, 8147.500000, 8169.500000, 8147.000000
3840, 27558168.000000, 2748.250000, 8160.000000, 8160.500000, 8133.500000
3841, 27558328.000000, 3100.750000, 8165.000000, 8282.000000, 8265.500000
3842, 27558488.000000, 3247.875000, 8546.500000, 7998.000000, 8162.500000
3843, 27558648.000000, 3241.750000, 8033.000000, 7757.000000, 7695.500000
3844, 27558808.000000, 3123.750000, 8101.500000, 8090.000000, 8009.000000
3845, 27558968.000000, 2951.250000, 8170.500000, 8232.500000, 8216.500000
3846, 27559128.000000, 2762.750000, 8186.500000, 8242.000000, 8234.500000
3847, 27559288.000000, 2558.500000, 8190.500000, 8252.500000, 8251.500000
3848, 27559448.000000, 2347.750000, 8209.000000, 8252.500000, 8259.000000
3849, 27559608.000000, 2141.875000, 8220.500000, 8273.500000, 8280.500000
3850, 27559768.000000, 1975.375000, 8243.500000, 8285.500000, 8304.000000
3851, 27559928.000000, 1866.250000, 8274.500000, 8307.000000, 8335.000000
3852, 27560088.000000, 1824.375000, 8291.000000, 8334.000000, 8375.000000
3853, 27560248.000000, 1817.875000, 8281.500000, 8334.500000, 8370.000000
3854, 27560408.000000, 1822.000000, 8277.500000, 8304.500000, 8336.500000
3855, 27560568.000000, 1810.125000, 8231.000000, 8256.000000, 8274.000000
3856, 27560728.000000, 1773.750000, 8185.000000, 8201.000000, 8200.500000
3857, 27560888.000000, 1714.125000, 8129.500000, 8181.500000, 8163.000000
3858, 27561048.000000, 1643.625000, 8135.000000, 8168.500000, 8149.000000
3859, 27561208.000000, 1560.250000, 8134.500000, 8164.500000, 8146.500000
3860, 27561368.000000, 1475.250000, 8152.500000, 8174.000000, 8156.000000
3861, 27561528.000000, 1390.250000, 8157.500000, 8170.000000, 8160.000000
3862, 27561688.000000, 1317.875000, 8145.000000, 8171.500000, 8156.500000
3863, 27561848.000000, 1254.875000, 8142.000000, 8163.500000, 8150.500000
3864, 27562008.000000, 1195.250000, 8160.500000, 8160.500000, 8146.000000
3865, 27562168.000000, 1124.625000, 8157.500000, 8166.500000, 8152.500000
3866, 27562328.000000, 1091.750000, 8157.500000, 8175.000000, 8169.500000
3867, 27562488.000000, 1198.625000, 8163.500000, 8174.500000, 8172.000000
3868, 27562648.000000, 1559.375000, 8161.500000, 8162.500000, 8165.000000
3869, 27562808.000000, 2064.750000, 8163.500000, 8171.500000, 8157.500000
3870, 27562968.000000, 2546.125000, 8145.500000, 8155.000000, 8135.500000
3871, 27563128.000000, 2857.125000, 8148.500000, 8167.500000, 8145.500000
3872, 27563288.000000, 2978.375000, 8300.500000, 8296.500000, 8352.000000
3873, 27563448.000000, 2948.375000, 8451.000000, 7617.500000, 7766.000000
3874, 27563608.000000, 2834.000000, 7984.000000, 7856.000000, 7734.000000
3875, 27563768.000000, 2685.750000, 8158.500000, 8182.500000, 8162.500000
3876, 27563928.000000, 2523.250000, 8171.500000, 8210.500000, 8204.000000
3877, 27564088.000000, 2349.000000, 8181.000000, 8220.000000, 8221.500000
3878, 27564248.000000, 2168.375000, 8176.500000, 8250.500000, 8252.000000
3879, 27564408.000000, 1998.125000, 8215.500000, 8256.000000, 8271.000000
3880, 27564568.000000, 1862.125000, 8235.500000, 8261.500000, 8278.500000
3881, 27564728.000000, 1769.750000, 8244.000000, 8296.000000, 8322.000000
3882, 27564888.000000, 1730.750000, 8264.500000, 8317.000000, 8356.500000
3883, 27565048.000000, 1728.625000, 8273.000000, 8342.500000, 8384.500000
3884, 27565208.000000, 1744.625000, 8285.500000, 8327.000000, 8365.500000
3885, 27565368.000000, 1755.875000, 8249.000000, 8283.500000, 8310.500000
3886, 27565528.000000, 1746.625000, 8190.500000, 8239.000000, 8247.000000
3887, 27565688.000000, 1714.000000, 8152.000000, 8180.000000, 8168.500000
3888, 27565848.000000, 1671.875000, 8124.500000, 8153.000000, 8130.500000
3889, 27566008.000000, 1623.375000, 8141.500000, 8152.500000, 8135.000000
3890, 27566168.000000, 1572.125000, 8134.500000, 8156.000000, 8137.000000
3891, 27566328.000000, 1520.625000, 8151.500000, 8146.000000, 8129.500000
3892, 27566488.000000, 1474.375000, 8149.000000, 8149.000000, 8133.000000
3893, 27566648.000000, 1439.625000, 8147.500000, 8150.500000, 8138.000000
3894, 27566808.000000, 1409.500000, 8148.500000, 8138.000000, 8118.500000
3895, 27566968.000000, 1367.625000, 8140.000000, 8147.000000, 8119.000000
3896, 27567128.000000, 1314.750000, 8141.500000, 8129.500000, 8107.000000
3897, 27567288.000000, 1329.875000, 8158.000000, 8153.000000, 8141.500000
3898, 27567448.000000, 1572.625000, 8151.000000, 8163.500000, 8160.500000
3899, 27567608.000000, 2055.375000, 8159.500000, 8160.000000, 8152.500000
3900, 27567768.000000, 2629.125000, 8157.500000, 8163.000000, 8143.500000
3901, 27567928.000000, 3092.625000, 8153.500000, 8153.500000, 8128.000000
3902, 27568088.000000, 3354.625000, 8155.000000, 8184.000000, 8153.000000
3903, 27568248.000000, 3432.875000, 8333.000000, 8260.000000, 8318.000000
3904, 27568408.000000, 3359.750000, 8489.500000, 7554.000000, 7704.500000
3905, 27568568.000000, 3203.750000, 8008.500000, 7914.000000, 7781.000000
3906, 27568728.000000, 3037.125000, 8160.500000, 8233.500000, 8212.500000
3907, 27568888.000000, 2853.500000, 8170.000000, 8266.000000, 8248.000000
3908, 27569048.000000, 2657.375000, 8195.500000, 8263.000000, 8256.500000
3909, 27569208.000000, 2464.375000, 8196.000000, 8272.000000, 8270.000000
3910, 27569368.000000, 2298.250000, 8222.000000, 8279.000000, 8289.000000
3911, 27569528.000000, 2175.375000, 8213.000000, 8298.000000, 8315.000000
3912, 27569688.000000, 2101.250000, 8252.000000, 8304.500000, 8334.500000
3913, 27569848.000000, 2066.500000, 8279.000000, 8338.000000, 8378.000000
3914, 27570008.000000, 2051.250000, 8295.500000, 8347.500000, 8389.500000
3915, 27570168.000000, 2020.750000, 8270.000000, 8344.000000, 8381.000000
3916, 27570328.000000, 1973.625000, 8255.000000, 8304.000000, 8333.000000
3917, 27570488.000000, 1906.500000, 8200.000000, 8228.000000, 8237.500000
3918, 27570648.000000, 1826.625000, 8140.000000, 8182.000000, 8173.000000
3919, 27570808.000000, 1738.625000, 8127.000000, 8162.500000, 8139.500000
3920, 27570968.000000, 1645.500000, 8127.000000, 8170.000000, 8155.000000
3921, 27571128.000000, 1556.375000, 8141.500000, 8167.500000, 8152.500000
3922, 27571288.000000, 1473.000000, 8134.500000, 8166.500000, 8156.500000
3923, 27571448.000000, 1399.375000, 8143.000000, 8165.500000, 8150.000000
3924, 27571608.000000, 1335.625000, 8138.000000, 8164.000000, 8149.500000
3925, 27571768.000000, 1270.375000, 8146.000000, 8163.500000, 8149.000000
3926, 27571928.000000, 1181.625000, 8139.500000, 8167.500000, 8151.000000
3927, 27572088.000000, 1199.375000, 8136.500000, 8163.000000, 8149.000000
3928, 27572248.000000, 1517.250000, 8149.000000, 8175.000000, 8169.500000
3929, 27572408.000000, 2119.500000, 8158.000000, 8170.500000, 8174.000000
3930, 27572568.000000, 2771.625000, 8159.000000, 8164.500000, 8160.500000
3931, 27572728.000000, 3120.625000, 8147.000000, 8158.000000, 8138.500000
3932, 27572888.000000, 3239.500000, 8141.000000, 8157.500000, 8142.500000
3933, 27573048.000000, 3207.000000, 8141.500000, 8214.000000, 8186.500000
3934, 27573208.000000, 3080.750000, 8467.000000, 8132.500000, 8260.000000
3935, 27573368.000000, 2911.000000, 8265.000000, 7574.500000, 7623.500000
3936, 27573528.000000, 2719.625000, 8036.500000, 7956.000000, 7855.000000
3937, 27573688.000000, 2511.625000, 8155.500000, 8174.000000, 8164.000000
3938, 27573848.000000, 2293.625000, 8173.500000, 8196.000000, 8193.000000
3939, 27574008.000000, 2079.250000, 8169.500000, 8210.500000, 8211.500000
3940, 27574168.000000, 1897.625000, 8185.500000, 8228.000000, 8239.500000
3941, 27574328.000000, 1765.375000, 8215.000000, 8225.000000, 8237.000000
3942, 27574488.000000, 1697.375000, 8227.000000, 8243.500000, 8269.000000
3943, 27574648.000000, 1677.375000, 8250.500000, 8270.500000, 8304.500000
3944, 27574808.000000, 1679.000000, 8289.500000, 8297.000000, 8338.000000
3945, 27574968.000000, 1671.750000, 8292.500000, 8297.500000, 8341.500000
3946, 27575128.000000, 1638.625000, 8273.500000, 8291.000000, 8331.500000
3947, 27575288.000000, 1588.750000, 8241.000000, 8243.000000, 8269.500000
3948, 27575448.000000, 1530.625000, 8182.500000, 8191.000000, 8191.500000
3949, 27575608.000000, 1461.750000, 8138.000000, 8150.500000, 8135.000000
3950, 27575768.000000, 1386.750000, 8134.000000, 8149.500000, 8125.000000
3951, 27575928.000000, 1312.625000, 8130.000000, 8159.500000, 8140.500000
3952, 27576088.000000, 1248.625000, 8142.500000, 8141.500000, 8122.000000
3953, 27576248.000000, 1191.625000, 8144.000000, 8151.000000, 8137.500000
3954, 27576408.000000, 1148.000000, 8140.000000, 8157.000000, 8134.000000
3955, 27576568.000000, 1109.000000, 8150.000000, 8147.000000, 8126.500000
3956, 27576728.000000, 1055.000000, 8145.500000, 8149.500000, 8129.000000
3957, 27576888.000000, 1025.500000, 8143.500000, 8150.000000, 8130.000000
3958, 27577048.000000, 1153.500000, 8149.500000, 8156.000000, 8140.000000
3959, 27577208.000000, 1557.875000, 8144.000000, 8188.500000, 8184.500000
3960, 27577368.000000, 2140.125000, 8167.000000, 8158.500000, 8149.000000
3961, 27577528.000000, 2675.750000, 8157.500000, 8151.000000, 8133.000000
3962, 27577688.000000, 3003.750000, 8142.500000, 8176.000000, 8152.500000
3963, 27577848.000000, 3127.250000, 8153.000000, 8225.000000, 8190.000000
3964, 27578008.000000, 3092.875000, 8483.500000, 8174.000000, 8295.000000
3965, 27578168.000000, 2974.125000, 8261.000000, 7686.000000, 7725.000000
3966, 27578328.000000, 2816.875000, 8058.000000, 8025.000000, 7919.000000
3967, 27578488.000000, 2644.750000, 8162.500000, 8233.500000, 8216.000000
3968, 27578648.000000, 2462.125000, 8183.000000, 8251.000000, 8242.000000
3969, 27578808.000000, 2268.625000, 8192.500000, 8259.000000, 8258.500000
3970, 27578968.000000, 2086.875000, 8200.000000, 8276.000000, 8275.500000
3971, 27579128.000000, 1934.875000, 8217.000000, 8271.500000, 8279.000000
3972, 27579288.000000, 1828.625000, 8242.500000, 8284.000000, 8301.500000
3973, 27579448.000000, 1765.375000, 8261.000000, 8308.500000, 8335.500000
3974, 27579608.000000, 1744.625000, 8285.500000, 8324.500000, 8356.500000
3975, 27579768.000000, 1753.125000, 8293.000000, 8328.500000, 8361.000000
3976, 27579928.000000, 1770.125000, 8281.500000, 8310.000000, 8339.500000
3977, 27580088.000000, 1769.375000, 8234.500000, 8270.000000, 8288.500000
3978, 27580248.000000, 1744.375000, 8176.500000, 8232.500000, 8225.500000
3979, 27580408.000000, 1697.750000, 8157.000000, 8183.500000, 8166.500000
3980, 27580568.000000, 1627.000000, 8152.500000, 8171.000000, 8151.000000
3981, 27580728.000000, 1540.625000, 8148.500000, 8182.500000, 8167.000000
3982, 27580888.000000, 1444.750000, 8162.000000, 8176.500000, 8166.500000
3983, 27581048.000000, 1352.500000, 8156.500000, 8209.500000, 8197.500000
3984, 27581208.000000, 1272.125000, 8155.000000, 8229.000000, 8215.500000
3985, 27581368.000000, 1197.750000, 8156.500000, 8213.000000, 8198.500000
3986, 27581528.000000, 1118.250000, 8156.500000, 8221.500000, 8215.000000
3987, 27581688.000000, 1042.125000, 8156.000000, 8227.000000, 8223.000000
3988, 27581848.000000, 1083.000000, 8164.000000, 8226.000000, 8224.500000
3989, 27582008.000000, 1357.625000, 8169.500000, 8216.500000, 8206.000000
3990, 27582168.000000, 1868.125000, 8151.500000, 8207.500000, 8186.500000
3991, 27582328.000000, 2402.875000, 8154.500000, 8215.000000, 8194.000000
3992, 27582488.000000, 2783.125000, 8218.500000, 8361.500000, 8384.000000
3993, 27582648.000000, 2945.125000, 8514.000000, 7943.000000, 8112.000000
3994, 27582808.000000, 2936.500000, 7982.500000, 7901.500000, 7803.500000
3995, 27582968.000000, 2835.250000, 8135.500000, 8186.500000, 8142.000000
3996, 27583128.000000, 2681.875000, 8182.000000, 8247.500000, 8240.500000
3997, 27583288.000000, 2500.625000, 8182.500000, 8257.000000, 8255.000000
3998, 27583448.000000, 2295.375000, 8198.000000, 8263.500000, 8268.500000
3999, 27583608.000000, 2076.000000, 8217.500000, 8261.000000, 8270.000000
4000, 27583768.000000, 1865.125000, 8232.500000, 8275.500000, 8286.500000
4001, 27583928.000000, 1692.875000, 8253.000000, 8284.500000, 8311.000000
4002, 27584088.000000, 1579.375000, 8271.500000, 8307.500000, 8339.500000
4003, 27584248.000000, 1526.500000, 8296.500000, 8311.000000, 8346.500000
4004, 27584408.000000, 1525.250000, 8286.500000, 8312.000000, 8340.000000
4005, 27584568.000000, 1545.000000, 8244.500000, 8284.000000, 8305.000000
4006, 27584728.000000, 1556.000000, 8201.500000, 8241.500000, 8248.000000
4007, 27584888.000000, 1541.250000, 8141.500000, 8205.000000, 8194.000000
4008, 27585048.000000, 1502.125000, 8131.000000, 8180.500000, 8165.000000
4009, 27585208.000000, 1446.000000, 8136.500000, 8182.500000, 8162.000000
4010, 27585368.000000, 1378.125000, 8137.000000, 8186.000000, 8169.500000
4011, 27585528.000000, 1302.875000, 8140.500000, 8185.500000, 8171.500000
4012, 27585688.000000, 1224.375000, 8148.000000, 8186.500000, 8177.500000
4013, 27585848.000000, 1151.500000, 8144.500000, 8189.500000, 8180.000000
4014, 27586008.000000, 1085.125000, 8152.000000, 8195.500000, 8184.000000
4015, 27586168.000000, 1006.125000, 8167.500000, 8196.500000, 8193.500000
4016, 27586328.000000, 959.000000, 8157.500000, 8193.500000, 8193.500000
4017, 27586488.000000, 1063.125000, 8136.000000, 8184.000000, 8165.000000
4018, 27586648.000000, 1424.375000, 8143.500000, 8180.000000, 8155.000000
4019, 27586808.000000, 1940.375000, 8151.500000, 8185.000000, 8156.500000
4020, 27586968.000000, 2397.625000, 8278.500000, 8337.000000, 8379.000000
4021, 27587128.000000, 2676.250000, 8421.000000, 7815.000000, 7946.500000
4022, 27587288.000000, 2759.750000, 7987.000000, 7912.000000, 7798.500000
4023, 27587448.000000, 2717.750000, 8162.500000, 8198.500000, 8169.000000
4024, 27587608.000000, 2606.375000, 8157.000000, 8250.500000, 8235.500000
4025, 27587768.000000, 2460.500000, 8193.500000, 8246.000000, 8243.500000
4026, 27587928.000000, 2295.375000, 8198.000000, 8247.000000, 8247.000000
4027, 27588088.000000, 2115.125000, 8216.000000, 8266.000000, 8275.000000
4028, 27588248.000000, 1938.500000, 8217.000000, 8276.500000, 8287.000000
4029, 27588408.000000, 1785.750000, 8259.500000, 8286.500000, 8310.500000
4030, 27588568.000000, 1687.625000, 8277.500000, 8314.000000, 8346.000000
4031, 27588728.000000, 1654.375000, 8291.500000, 8333.500000, 8371.000000
4032, 27588888.000000, 1677.375000, 8271.000000, 8333.000000, 8364.500000
4033, 27589048.000000, 1723.625000, 8238.500000, 8291.000000, 8308.000000
4034, 27589208.000000, 1757.000000, 8209.000000, 8221.500000, 8222.000000
4035, 27589368.000000, 1763.250000, 8168.500000, 8186.000000, 8175.500000
4036, 27589528.000000, 1740.000000, 8114.000000, 8187.000000, 8162.500000
4037, 27589688.000000, 1691.750000, 8125.500000, 8168.000000, 8148.000000
4038, 27589848.000000, 1624.750000, 8152.500000, 8170.000000, 8155.000000
4039, 27590008.000000, 1545.125000, 8165.500000, 8164.000000, 8148.500000
4040, 27590168.000000, 1465.375000, 8153.000000, 8176.000000, 8161.000000
4041, 27590328.000000, 1392.500000, 8153.000000, 8177.500000, 8159.000000
4042, 27590488.000000, 1317.375000, 8161.500000, 8180.000000, 8173.000000
4043, 27590648.000000, 1244.375000, 8159.500000, 8184.500000, 8178.500000
4044, 27590808.000000, 1246.625000, 8173.500000, 8175.500000, 8174.500000
4045, 27590968.000000, 1439.250000, 8156.000000, 8175.000000, 8155.500000
4046, 27591128.000000, 1876.125000, 8139.000000, 8164.000000, 8141.000000
4047, 27591288.000000, 2411.375000, 8143.000000, 8169.000000, 8145.500000
4048, 27591448.000000, 2857.250000, 8220.500000, 8331.500000, 8345.500000
4049, 27591608.000000, 3108.625000, 8515.500000, 7761.000000, 7932.500000
4050, 27591768.000000, 3175.500000, 7968.000000, 7814.000000, 7694.000000
4051, 27591928.000000, 3125.125000, 8147.500000, 8183.000000, 8150.500000
4052, 27592088.000000, 3009.375000, 8169.500000, 8228.000000, 8218.000000
4053, 27592248.000000, 2860.000000, 8178.500000, 8246.000000, 8243.500000
4054, 27592408.000000, 2686.875000, 8192.500000, 8250.000000, 8250.500000
4055, 27592568.000000, 2492.000000, 8213.000000, 8251.500000, 8259.500000
4056, 27592728.000000, 2294.875000, 8217.000000, 8272.000000, 8286.500000
4057, 27592888.000000, 2118.250000, 8247.500000, 8292.500000, 8321.500000
4058, 27593048.000000, 1990.625000, 8266.000000, 8327.500000, 8364.000000
4059, 27593208.000000, 1911.000000, 8290.500000, 8330.500000, 8376.000000
4060, 27593368.000000, 1878.750000, 8291.500000, 8330.000000, 8368.500000
4061, 27593528.000000, 1870.250000, 8250.000000, 8292.500000, 8321.500000
4062, 27593688.000000, 1866.500000, 8203.000000, 8232.000000, 8243.000000
4063, 27593848.000000, 1848.250000, 8147.000000, 8195.000000, 8182.000000
4064, 27594008.000000, 1809.125000, 8144.500000, 8155.500000, 8137.000000
4065, 27594168.000000, 1748.375000, 8132.000000, 8160.500000, 8140.000000
4066, 27594328.000000, 1668.875000, 8138.500000, 8164.000000, 8150.000000
4067, 27594488.000000, 1580.500000, 8143.500000, 8169.500000, 8160.500000
4068, 27594648.000000, 1494.625000, 8154.500000, 8146.500000, 8132.000000
4069, 27594808.000000, 1413.875000, 8151.000000, 8143.000000, 8130.000000
4070, 27594968.000000, 1332.125000, 8158.000000, 8156.000000, 8149.500000
4071, 27595128.000000, 1244.125000, 8141.000000, 8175.500000, 8177.500000
4072, 27595288.000000, 1227.500000, 8157.500000, 8149.000000, 8152.000000
4073, 27595448.000000, 1416.500000, 8158.000000, 8147.500000, 8140.000000
4074, 27595608.000000, 1849.125000, 8139.000000, 8107.000000, 8087.000000
4075, 27595768.000000, 2382.750000, 8152.000000, 8098.000000, 8074.500000
4076, 27595928.000000, 2808.625000, 8173.500000, 8247.000000, 8242.000000
4077, 27596088.000000, 3053.500000, 8553.500000, 7778.500000, 7962.500000
4078, 27596248.000000, 3134.625000, 7964.500000, 7717.000000, 7615.000000
4079, 27596408.000000, 3111.625000, 8135.000000, 8112.500000, 8061.000000
4080, 27596568.000000, 3032.000000, 8166.000000, 8191.000000, 8180.000000
4081, 27596728.000000, 2920.000000, 8165.000000, 8219.500000, 8211.000000
4082, 27596888.000000, 2780.125000, 8183.500000, 8215.500000, 8217.500000
4083, 27597048.000000, 2617.500000, 8194.000000, 8222.500000, 8230.000000
4084, 27597208.000000, 2441.375000, 8213.000000, 8256.000000, 8267.000000
4085, 27597368.000000, 2275.750000, 8252.000000, 8263.000000, 8288.000000
4086, 27597528.000000, 2151.375000, 8264.500000, 8288.500000, 8321.500000
4087, 27597688.000000, 2078.750000, 8290.500000, 8309.000000, 8350.500000
4088, 27597848.000000, 2054.250000, 8281.000000, 8312.000000, 8353.500000
4089, 27598008.000000, 2057.625000, 8260.500000, 8282.000000, 8307.000000
4090, 27598168.000000, 2060.250000, 8203.500000, 8235.500000, 8242.500000
4091, 27598328.000000, 2044.250000, 8149.000000, 8177.000000, 8164.500000
4092, 27598488.000000, 1999.750000, 8130.000000, 8151.500000, 8131.500000
4093, 27598648.000000, 1937.375000, 8124.500000, 8146.500000, 8122.500000
4094, 27598808.000000, 1866.125000, 8139.000000, 8148.000000, 8128.000000
4095, 27598968.000000, 1790.875000, 8141.500000, 8168.500000, 8148.500000
4096, 27599128.000000, 1716.750000, 8145.500000, 8162.500000, 8150.500000
4097, 27599288.000000, 1639.875000, 8154.000000, 8157.500000, 8142.500000
4098, 27599448.000000, 1556.125000, 8139.000000, 8171.500000, 8155.500000
4099, 27599608.000000, 1462.625000, 8155.000000, 8161.500000, 8142.000000
4100, 27599768.000000, 1417.625000, 8156.500000, 8165.500000, 8154.500000
4101, 27599928.000000, 1548.250000, 8155.000000, 8185.000000, 8186.500000
4102, 27600088.000000, 1937.625000, 8167.000000, 8162.000000, 8156.000000
4103, 27600248.000000, 2459.375000, 8148.000000, 8162.000000, 8138.000000
4104, 27600408.000000, 2919.000000, 8140.000000, 8160.000000, 8139.500000
4105, 27600568.000000, 3201.000000, 8152.000000, 8250.500000, 8219.000000
4106, 27600728.000000, 3307.125000, 8517.500000, 8028.000000, 8177.000000
4107, 27600888.000000, 3292.500000, 8155.500000, 7645.500000, 7637.000000
4108, 27601048.000000, 3196.375000, 8093.000000, 8051.000000, 7965.000000
4109, 27601208.000000, 3067.000000, 8176.500000, 8224.000000, 8211.000000
4110, 27601368.000000, 2917.750000, 8173.000000, 8253.500000, 8243.000000
4111, 27601528.000000, 2753.625000, 8194.000000, 8254.500000, 8251.500000
4112, 27601688.000000, 2574.000000, 8200.500000, 8257.500000, 8261.000000
4113, 27601848.000000, 2403.000000, 8212.000000, 8268.000000, 8275.500000
4114, 27602008.000000, 2271.250000, 8250.500000, 8287.500000, 8306.500000
4115, 27602168.000000, 2189.125000, 8278.000000, 8319.500000, 8350.000000
4116, 27602328.000000, 2150.250000, 8281.000000, 8334.500000, 8375.500000
4117, 27602488.000000, 2128.125000, 8293.000000, 8336.000000, 8377.000000
4118, 27602648.000000, 2099.375000, 8284.000000, 8321.500000, 8354.000000
4119, 27602808.000000, 2054.500000, 8231.500000, 8247.000000, 8264.500000
4120, 27602968.000000, 1994.125000, 8172.000000, 8203.000000, 8197.000000
4121, 27603128.000000, 1915.125000, 8130.000000, 8161.500000, 8138.500000
4122, 27603288.000000, 1822.000000, 8122.000000, 8153.500000, 8130.000000
4123, 27603448.000000, 1723.000000, 8139.500000, 8156.000000, 8133.500000
4124, 27603608.000000, 1619.000000, 8137.500000, 8162.500000, 8142.500000
4125, 27603768.000000, 1522.750000, 8150.500000, 8158.500000, 8145.000000
4126, 27603928.000000, 1437.375000, 8144.000000, 8161.000000, 8145.500000
4127, 27604088.000000, 1357.125000, 8151.500000, 8154.500000, 8139.000000
4128, 27604248.000000, 1267.750000, 8141.500000, 8157.500000, 8136.000000
4129, 27604408.000000, 1188.875000, 8150.500000, 8168.000000, 8150.500000
4130, 27604568.000000, 1255.250000, 8151.500000, 8167.500000, 8158.500000
4131, 27604728.000000, 1554.500000, 8162.500000, 8162.000000, 8166.500000
4132, 27604888.000000, 2042.250000, 8165.000000, 8151.500000, 8143.000000
4133, 27605048.000000, 2511.125000, 8155.500000, 8152.500000, 8131.500000
4134, 27605208.000000, 2818.375000, 8153.000000, 8146.500000, 8125.500000
4135, 27605368.000000, 2942.750000, 8148.000000, 8202.000000, 8175.000000
4136, 27605528.000000, 2931.875000, 8471.000000, 8089.000000, 8208.000000
4137, 27605688.000000, 2838.625000, 8243.000000, 7586.000000, 7627.000000
4138, 27605848.000000, 2702.875000, 8053.500000, 7988.000000, 7883.000000
4139, 27606008.000000, 2547.125000, 8159.500000, 8196.500000, 8184.000000
4140, 27606168.000000, 2374.625000, 8172.000000, 8214.500000, 8207.500000
4141, 27606328.000000, 2187.500000, 8190.500000, 8237.000000, 8238.000000
4142, 27606488.000000, 2005.125000, 8200.500000, 8242.000000, 8240.000000
4143, 27606648.000000, 1850.875000, 8207.500000, 8258.500000, 8266.000000
4144, 27606808.000000, 1743.750000, 8244.000000, 8268.500000, 8290.000000
4145, 27606968.000000, 1689.000000, 8265.500000, 8287.000000, 8319.000000
4146, 27607128.000000, 1674.000000, 8283.000000, 8326.500000, 8363.000000
4147, 27607288.000000, 1676.875000, 8290.500000, 8330.500000, 8369.000000
4148, 27607448.000000, 1666.250000, 8277.500000, 8310.500000, 8344.500000
4149, 27607608.000000, 1629.250000, 8242.000000, 8259.000000, 8276.500000
4150, 27607768.000000, 1570.875000, 8175.500000, 8211.500000, 8210.000000
4151, 27607928.000000, 1496.000000, 8133.500000, 8169.500000, 8151.500000
4152, 27608088.000000, 1417.750000, 8126.000000, 8164.000000, 8137.500000
4153, 27608248.000000, 1346.375000, 8134.000000, 8161.000000, 8139.000000
4154, 27608408.000000, 1274.750000, 8153.000000, 8155.500000, 8137.000000
4155, 27608568.000000, 1198.875000, 8142.500000, 8172.000000, 8157.500000
4156, 27608728.000000, 1127.250000, 8146.000000, 8169.000000, 8152.000000
4157, 27608888.000000, 1063.250000, 8150.500000, 8163.000000, 8147.500000
4158, 27609048.000000, 997.875000, 8142.000000, 8162.500000, 8139.500000
4159, 27609208.000000, 951.375000, 8147.500000, 8177.500000, 8156.500000
4160, 27609368.000000, 1016.125000, 8158.500000, 8166.500000, 8149.500000
4161, 27609528.000000, 1297.375000, 8145.000000, 8175.000000, 8160.000000
4162, 27609688.000000, 1756.250000, 8157.500000, 8169.500000, 8168.000000
4163, 27609848.000000, 2220.625000, 8157.500000, 8173.500000, 8160.500000
4164, 27610008.000000, 2524.875000, 8152.500000, 8166.000000, 8137.000000
4165, 27610168.000000, 2656.625000, 8162.000000, 8156.000000, 8133.000000
4166, 27610328.000000, 2648.000000, 8164.000000, 8325.500000, 8311.000000
4167, 27610488.000000, 2559.375000, 8602.500000, 7782.000000, 7978.500000
4168, 27610648.000000, 2438.125000, 7971.500000, 7762.000000, 7653.000000
4169, 27610808.000000, 2304.750000, 8146.000000, 8174.000000, 8125.500000
4170, 27610968.000000, 2160.875000, 8169.000000, 8248.500000, 8236.500000
4171, 27611128.000000, 2015.125000, 8187.500000, 8257.500000, 8249.500000
4172, 27611288.000000, 1883.625000, 8198.500000, 8267.000000, 8267.500000
4173, 27611448.000000, 1776.750000, 8213.500000, 8272.500000, 8277.500000
4174, 27611608.000000, 1702.000000, 8229.500000, 8289.000000, 8302.000000
4175, 27611768.000000, 1650.250000, 8245.500000, 8313.000000, 8337.500000
4176, 27611928.000000, 1620.000000, 8275.500000, 8329.500000, 8367.500000
4177, 27612088.000000, 1605.625000, 8299.000000, 8345.000000, 8391.500000
4178, 27612248.000000, 1591.375000, 8296.500000, 8348.500000, 8389.000000
4179, 27612408.000000, 1565.750000, 8275.000000, 8315.500000, 8350.000000
4180, 27612568.000000, 1516.375000, 8224.000000, 8252.500000, 8265.000000
4181, 27612728.000000, 1450.500000, 8162.500000, 8206.000000, 8193.500000
4182, 27612888.000000, 1380.500000, 8133.500000, 8173.000000, 8147.500000
4183, 27613048.000000, 1310.500000, 8127.500000, 8170.500000, 8146.000000
4184, 27613208.000000, 1241.125000, 8134.000000, 8175.000000, 8149.500000
4185, 27613368.000000, 1165.875000, 8145.500000, 8163.500000, 8147.000000
4186, 27613528.000000, 1088.750000, 8136.500000, 8180.000000, 8164.000000
4187, 27613688.000000, 1017.375000, 8159.000000, 8168.000000, 8152.000000
4188, 27613848.000000, 945.125000, 8150.000000, 8166.500000, 8148.000000
4189, 27614008.000000, 867.125000, 8142.500000, 8171.000000, 8152.000000
4190, 27614168.000000, 812.250000, 8147.500000, 8169.500000, 8146.000000
4191, 27614328.000000, 894.375000, 8154.000000, 8171.000000, 8159.000000
4192, 27614488.000000, 1182.000000, 8153.500000, 8172.500000, 8167.000000
4193, 27614648.000000, 1624.750000, 8160.000000, 8175.500000, 8175.000000
4194, 27614808.000000, 2036.250000, 8161.000000, 8181.000000, 8172.500000
4195, 27614968.000000, 2298.125000, 8153.000000, 8155.000000, 8139.000000
4196, 27615128.000000, 2378.125000, 8153.000000, 8173.000000, 8150.500000
4197, 27615288.000000, 2340.500000, 8207.000000, 8328.000000, 8332.500000
