1180, 20347040.000000, 1425.500000, 8148.000000, 8179.000000, 8161.000000
1181, 20347200.000000, 1792.000000, 8153.000000, 8179.000000, 8166.000000
1182, 20347360.000000, 2251.000000, 8157.000000, 8191.000000, 8179.000000
1183, 20347520.000000, 2629.000000, 8156.000000, 8186.000000, 8187.000000
1184, 20347680.000000, 2848.000000, 8160.000000, 8182.000000, 8174.000000
1185, 20347840.000000, 2914.000000, 8160.000000, 8180.000000, 8162.000000
1186, 20348000.000000, 2868.000000, 8152.000000, 8177.000000, 8152.000000
1187, 20348160.000000, 2771.000000, 8152.000000, 8251.000000, 8222.000000
1188, 20348320.000000, 2659.500000, 8527.000000, 8100.000000, 8244.000000
1189, 20348480.000000, 2552.000000, 8241.000000, 7651.000000, 7683.000000
1190, 20348640.000000, 2440.500000, 8061.000000, 8032.000000, 7938.000000
1191, 20348800.000000, 2311.000000, 8169.000000, 8233.000000, 8217.000000
1192, 20348960.000000, 2170.000000, 8165.000000, 8257.000000, 8248.000000
1193, 20349120.000000, 2043.000000, 8193.000000, 8258.000000, 8254.000000
1194, 20349280.000000, 1958.500000, 8200.000000, 8263.000000, 8269.000000
1195, 20349440.000000, 1912.000000, 8221.000000, 8280.000000, 8294.000000
1196, 20349600.000000, 1903.000000, 8244.000000, 8281.000000, 8297.000000
1197, 20349760.000000, 1903.000000, 8272.000000, 8304.000000, 8338.000000
1198, 20349920.000000, 1893.500000, 8313.000000, 8327.000000, 8373.000000
1199, 20350080.000000, 1862.000000, 8326.000000, 8333.000000, 8387.000000
1200, 20350240.000000, 1812.500000, 8329.000000, 8311.000000, 8363.000000
1201, 20350400.000000, 1752.000000, 8285.000000, 8277.000000, 8306.000000
1202, 20350560.000000, 1681.000000, 8187.000000, 8225.000000, 8225.000000
1203, 20350720.000000, 1612.000000, 8137.000000, 8181.000000, 8158.000000
1204, 20350880.000000, 1550.500000, 8126.000000, 8163.000000, 8136.000000
1205, 20351040.000000, 1495.000000, 8120.000000, 8167.000000, 8138.000000
1206, 20351200.000000, 1441.000000, 8136.000000, 8162.000000, 8138.000000
1207, 20351360.000000, 1387.000000, 8138.000000, 8170.000000, 8143.000000
1208, 20351520.000000, 1339.000000, 8148.000000, 8171.000000, 8149.000000
1209, 20351680.000000, 1296.000000, 8155.000000, 8168.000000, 8149.000000
1210, 20351840.000000, 1245.000000, 8150.000000, 8177.000000, 8162.000000
1211, 20352000.000000, 1210.000000, 8154.000000, 8169.000000, 8153.000000
1212, 20352160.000000, 1298.500000, 8150.000000, 8170.000000, 8153.000000
1213, 20352320.000000, 1574.000000, 8149.000000, 8170.000000, 8153.000000
1214, 20352480.000000, 2007.500000, 8145.000000, 8173.000000, 8151.000000
1215, 20352640.000000, 2432.000000, 8155.000000, 8172.000000, 8155.000000
1216, 20352800.000000, 2723.000000, 8153.000000, 8170.000000, 8153.000000
1217, 20352960.000000, 2853.000000, 8159.000000, 8164.000000, 8153.000000
1218, 20353120.000000, 2855.500000, 8170.000000, 8145.000000, 8149.000000
1219, 20353280.000000, 2793.000000, 8173.000000, 8137.000000, 8130.000000
1220, 20353440.000000, 2705.000000, 8163.000000, 8136.000000, 8118.000000
1221, 20353600.000000, 2617.000000, 8153.000000, 8135.000000, 8118.000000
1222, 20353760.000000, 2531.000000, 8156.000000, 8196.000000, 8169.000000
1223, 20353920.000000, 2432.000000, 8465.000000, 8128.000000, 8241.000000
1224, 20354080.000000, 2310.000000, 8385.000000, 7553.000000, 7649.000000
1225, 20354240.000000, 2180.000000, 8047.000000, 7960.000000, 7851.000000
1226, 20354400.000000, 2067.500000, 8167.000000, 8205.000000, 8188.000000
1227, 20354560.000000, 1985.000000, 8175.000000, 8231.000000, 8227.000000
1228, 20354720.000000, 1941.000000, 8188.000000, 8242.000000, 8239.000000
1229, 20354880.000000, 1922.000000, 8195.000000, 8246.000000, 8249.000000
1230, 20355040.000000, 1909.500000, 8215.000000, 8261.000000, 8271.000000
1231, 20355200.000000, 1883.000000, 8238.000000, 8272.000000, 8292.000000
1232, 20355360.000000, 1841.000000, 8270.000000, 8297.000000, 8326.000000
1233, 20355520.000000, 1779.000000, 8299.000000, 8320.000000, 8366.000000
1234, 20355680.000000, 1701.000000, 8324.000000, 8330.000000, 8385.000000
1235, 20355840.000000, 1617.000000, 8324.000000, 8316.000000, 8369.000000
1236, 20356000.000000, 1535.500000, 8289.000000, 8275.000000, 8321.000000
1237, 20356160.000000, 1460.000000, 8207.000000, 8228.000000, 8233.000000
1238, 20356320.000000, 1388.500000, 8149.000000, 8190.000000, 8171.000000
1239, 20356480.000000, 1315.000000, 8126.000000, 8164.000000, 8141.000000
1240, 20356640.000000, 1247.500000, 8130.000000, 8162.000000, 8138.000000
1241, 20356800.000000, 1189.000000, 8120.000000, 8168.000000, 8143.000000
1242, 20356960.000000, 1137.500000, 8133.000000, 8175.000000, 8153.000000
1243, 20357120.000000, 1091.000000, 8129.000000, 8180.000000, 8163.000000
1244, 20357280.000000, 1048.500000, 8138.000000, 8177.000000, 8166.000000
1245, 20357440.000000, 998.000000, 8131.000000, 8171.000000, 8160.000000
1246, 20357600.000000, 956.000000, 8127.000000, 8169.000000, 8163.000000
1247, 20357760.000000, 1005.000000, 8125.000000, 8165.000000, 8158.000000
1248, 20357920.000000, 1236.000000, 8117.000000, 8169.000000, 8162.000000
1249, 20358080.000000, 1631.000000, 8133.000000, 8166.000000, 8160.000000
1250, 20358240.000000, 2044.000000, 8124.000000, 8174.000000, 8168.000000
1251, 20358400.000000, 2358.000000, 8126.000000, 8192.000000, 8185.000000
1252, 20358560.000000, 2503.000000, 8139.000000, 8194.000000, 8190.000000
1253, 20358720.000000, 2528.000000, 8140.000000, 8199.000000, 8205.000000
1254, 20358880.000000, 2474.000000, 8150.000000, 8249.000000, 8264.000000
1255, 20359040.000000, 2387.000000, 8158.000000, 8268.000000, 8272.000000
1256, 20359200.000000, 2300.500000, 8147.000000, 8243.000000, 8236.000000
1257, 20359360.000000, 2223.000000, 8145.000000, 8234.000000, 8226.000000
1258, 20359520.000000, 2135.500000, 8151.000000, 8314.000000, 8298.000000
1259, 20359680.000000, 2028.000000, 8548.000000, 8104.000000, 8278.000000
1260, 20359840.000000, 1903.000000, 8178.000000, 7706.000000, 7722.000000
1261, 20360000.000000, 1792.000000, 8061.000000, 8098.000000, 8016.000000
1262, 20360160.000000, 1713.000000, 8162.000000, 8273.000000, 8266.000000
1263, 20360320.000000, 1671.000000, 8183.000000, 8292.000000, 8293.000000
1264, 20360480.000000, 1656.500000, 8188.000000, 8294.000000, 8302.000000
1265, 20360640.000000, 1653.000000, 8201.000000, 8300.000000, 8313.000000
1266, 20360800.000000, 1640.500000, 8217.000000, 8301.000000, 8317.000000
1267, 20360960.000000, 1608.000000, 8240.000000, 8313.000000, 8346.000000
1268, 20361120.000000, 1559.000000, 8274.000000, 8329.000000, 8371.000000
1269, 20361280.000000, 1496.000000, 8308.000000, 8352.000000, 8406.000000
1270, 20361440.000000, 1422.500000, 8332.000000, 8350.000000, 8414.000000
1271, 20361600.000000, 1348.000000, 8328.000000, 8336.000000, 8396.000000
1272, 20361760.000000, 1277.500000, 8276.000000, 8297.000000, 8338.000000
1273, 20361920.000000, 1216.000000, 8200.000000, 8241.000000, 8253.000000
1274, 20362080.000000, 1161.500000, 8148.000000, 8203.000000, 8189.000000
1275, 20362240.000000, 1114.000000, 8115.000000, 8181.000000, 8163.000000
1276, 20362400.000000, 1075.000000, 8115.000000, 8182.000000, 8156.000000
1277, 20362560.000000, 1045.000000, 8121.000000, 8179.000000, 8159.000000
1278, 20362720.000000, 1023.500000, 8134.000000, 8180.000000, 8167.000000
1279, 20362880.000000, 1005.000000, 8139.000000, 8181.000000, 8167.000000
1280, 20363040.000000, 982.000000, 8143.000000, 8180.000000, 8167.000000
1281, 20363200.000000, 946.000000, 8136.000000, 8178.000000, 8168.000000
1282, 20363360.000000, 916.000000, 8151.000000, 8178.000000, 8162.000000
1283, 20363520.000000, 957.000000, 8148.000000, 8174.000000, 8160.000000
1284, 20363680.000000, 1190.500000, 8135.000000, 8180.000000, 8167.000000
1285, 20363840.000000, 1574.000000, 8158.000000, 8184.000000, 8173.000000
1286, 20364000.000000, 1993.500000, 8152.000000, 8186.000000, 8181.000000
1287, 20364160.000000, 2301.000000, 8157.000000, 8180.000000, 8178.000000
1288, 20364320.000000, 2449.000000, 8141.000000, 8178.000000, 8167.000000
1289, 20364480.000000, 2468.000000, 8150.000000, 8173.000000, 8154.000000
1290, 20364640.000000, 2406.000000, 8152.000000, 8178.000000, 8161.000000
1291, 20364800.000000, 2318.000000, 8200.000000, 8335.000000, 8341.000000
1292, 20364960.000000, 2236.500000, 8656.000000, 7711.000000, 7933.000000
1293, 20365120.000000, 2168.000000, 7971.000000, 7821.000000, 7703.000000
1294, 20365280.000000, 2096.500000, 8139.000000, 8183.000000, 8141.000000
1295, 20365440.000000, 2006.000000, 8164.000000, 8241.000000, 8228.000000
1296, 20365600.000000, 1898.000000, 8180.000000, 8253.000000, 8248.000000
1297, 20365760.000000, 1802.000000, 8191.000000, 8261.000000, 8261.000000
1298, 20365920.000000, 1736.000000, 8206.000000, 8265.000000, 8271.000000
1299, 20366080.000000, 1702.000000, 8223.000000, 8281.000000, 8295.000000
1300, 20366240.000000, 1693.500000, 8258.000000, 8296.000000, 8321.000000
1301, 20366400.000000, 1696.000000, 8290.000000, 8315.000000, 8357.000000
1302, 20366560.000000, 1695.000000, 8323.000000, 8331.000000, 8381.000000
1303, 20366720.000000, 1679.000000, 8330.000000, 8331.000000, 8388.000000
1304, 20366880.000000, 1641.500000, 8317.000000, 8299.000000, 8349.000000
1305, 20367040.000000, 1586.000000, 8229.000000, 8250.000000, 8268.000000
1306, 20367200.000000, 1525.500000, 8165.000000, 8201.000000, 8192.000000
1307, 20367360.000000, 1469.000000, 8122.000000, 8174.000000, 8147.000000
1308, 20367520.000000, 1418.000000, 8111.000000, 8170.000000, 8139.000000
1309, 20367680.000000, 1367.000000, 8113.000000, 8166.000000, 8135.000000
1310, 20367840.000000, 1317.000000, 8124.000000, 8175.000000, 8149.000000
1311, 20368000.000000, 1271.000000, 8132.000000, 8174.000000, 8149.000000
1312, 20368160.000000, 1236.000000, 8131.000000, 8180.000000, 8159.000000
1313, 20368320.000000, 1205.000000, 8141.000000, 8179.000000, 8158.000000
1314, 20368480.000000, 1166.500000, 8154.000000, 8172.000000, 8154.000000
1315, 20368640.000000, 1130.000000, 8144.000000, 8177.000000, 8150.000000
1316, 20368800.000000, 1173.500000, 8142.000000, 8176.000000, 8150.000000
1317, 20368960.000000, 1368.000000, 8145.000000, 8183.000000, 8167.000000
1318, 20369120.000000, 1725.000000, 8146.000000, 8189.000000, 8176.000000
1319, 20369280.000000, 2110.000000, 8153.000000, 8184.000000, 8173.000000
1320, 20369440.000000, 2397.000000, 8154.000000, 8180.000000, 8162.000000
1321, 20369600.000000, 2536.000000, 8142.000000, 8169.000000, 8145.000000
1322, 20369760.000000, 2537.500000, 8153.000000, 8177.000000, 8150.000000
1323, 20369920.000000, 2463.000000, 8172.000000, 8324.000000, 8308.000000
1324, 20370080.000000, 2360.000000, 8661.000000, 7823.000000, 8041.000000
1325, 20370240.000000, 2257.000000, 7973.000000, 7788.000000, 7679.000000
1326, 20370400.000000, 2157.000000, 8131.000000, 8154.000000, 8093.000000
1327, 20370560.000000, 2051.000000, 8159.000000, 8239.000000, 8222.000000
1328, 20370720.000000, 1937.000000, 8179.000000, 8254.000000, 8247.000000
1329, 20370880.000000, 1823.000000, 8193.000000, 8259.000000, 8255.000000
1330, 20371040.000000, 1732.500000, 8202.000000, 8274.000000, 8274.000000
1331, 20371200.000000, 1677.000000, 8230.000000, 8272.000000, 8284.000000
1332, 20371360.000000, 1660.500000, 8259.000000, 8291.000000, 8313.000000
1333, 20371520.000000, 1661.000000, 8286.000000, 8310.000000, 8346.000000
1334, 20371680.000000, 1666.000000, 8330.000000, 8321.000000, 8374.000000
1335, 20371840.000000, 1658.000000, 8336.000000, 8326.000000, 8379.000000
1336, 20372000.000000, 1631.500000, 8329.000000, 8292.000000, 8346.000000
1337, 20372160.000000, 1585.000000, 8259.000000, 8257.000000, 8277.000000
1338, 20372320.000000, 1524.500000, 8173.000000, 8213.000000, 8204.000000
1339, 20372480.000000, 1458.000000, 8128.000000, 8188.000000, 8161.000000
1340, 20372640.000000, 1390.000000, 8127.000000, 8169.000000, 8141.000000
1341, 20372800.000000, 1326.000000, 8115.000000, 8173.000000, 8141.000000
1342, 20372960.000000, 1269.500000, 8122.000000, 8176.000000, 8147.000000
1343, 20373120.000000, 1219.000000, 8128.000000, 8183.000000, 8158.000000
1344, 20373280.000000, 1173.500000, 8145.000000, 8182.000000, 8162.000000
1345, 20373440.000000, 1134.000000, 8149.000000, 8178.000000, 8157.000000
1346, 20373600.000000, 1090.000000, 8143.000000, 8176.000000, 8157.000000
1347, 20373760.000000, 1043.000000, 8150.000000, 8178.000000, 8157.000000
1348, 20373920.000000, 1058.000000, 8143.000000, 8178.000000, 8153.000000
1349, 20374080.000000, 1217.000000, 8137.000000, 8179.000000, 8158.000000
1350, 20374240.000000, 1559.000000, 8152.000000, 8187.000000, 8170.000000
1351, 20374400.000000, 1963.000000, 8157.000000, 8183.000000, 8169.000000
1352, 20374560.000000, 2286.000000, 8163.000000, 8184.000000, 8184.000000
1353, 20374720.000000, 2452.000000, 8165.000000, 8186.000000, 8177.000000
1354, 20374880.000000, 2468.000000, 8150.000000, 8171.000000, 8146.000000
1355, 20375040.000000, 2395.000000, 8153.000000, 8170.000000, 8145.000000
1356, 20375200.000000, 2284.500000, 8142.000000, 8274.000000, 8242.000000
1357, 20375360.000000, 2175.000000, 8621.000000, 8025.000000, 8214.000000
1358, 20375520.000000, 2078.000000, 8074.000000, 7725.000000, 7680.000000
1359, 20375680.000000, 1977.000000, 8081.000000, 8081.000000, 7990.000000
1360, 20375840.000000, 1865.000000, 8154.000000, 8236.000000, 8220.000000
1361, 20376000.000000, 1755.000000, 8169.000000, 8243.000000, 8231.000000
1362, 20376160.000000, 1669.500000, 8189.000000, 8257.000000, 8254.000000
1363, 20376320.000000, 1619.000000, 8199.000000, 8260.000000, 8270.000000
1364, 20376480.000000, 1605.000000, 8215.000000, 8264.000000, 8276.000000
1365, 20376640.000000, 1611.000000, 8249.000000, 8292.000000, 8315.000000
1366, 20376800.000000, 1621.000000, 8283.000000, 8302.000000, 8338.000000
1367, 20376960.000000, 1617.000000, 8322.000000, 8319.000000, 8367.000000
1368, 20377120.000000, 1589.500000, 8334.000000, 8326.000000, 8380.000000
1369, 20377280.000000, 1546.000000, 8316.000000, 8305.000000, 8359.000000
1370, 20377440.000000, 1498.000000, 8273.000000, 8261.000000, 8290.000000
1371, 20377600.000000, 1447.000000, 8190.000000, 8213.000000, 8213.000000
1372, 20377760.000000, 1399.500000, 8141.000000, 8178.000000, 8157.000000
1373, 20377920.000000, 1350.000000, 8122.000000, 8166.000000, 8133.000000
1374, 20378080.000000, 1304.000000, 8116.000000, 8168.000000, 8139.000000
1375, 20378240.000000, 1264.000000, 8125.000000, 8158.000000, 8137.000000
1376, 20378400.000000, 1232.000000, 8140.000000, 8162.000000, 8137.000000
1377, 20378560.000000, 1207.000000, 8144.000000, 8170.000000, 8149.000000
1378, 20378720.000000, 1186.000000, 8143.000000, 8173.000000, 8154.000000
1379, 20378880.000000, 1155.000000, 8139.000000, 8169.000000, 8145.000000
1380, 20379040.000000, 1114.500000, 8147.000000, 8166.000000, 8143.000000
1381, 20379200.000000, 1115.000000, 8148.000000, 8162.000000, 8140.000000
1382, 20379360.000000, 1258.500000, 8139.000000, 8167.000000, 8143.000000
1383, 20379520.000000, 1592.000000, 8141.000000, 8171.000000, 8148.000000
1384, 20379680.000000, 2024.000000, 8150.000000, 8175.000000, 8160.000000
1385, 20379840.000000, 2396.000000, 8155.000000, 8172.000000, 8161.000000
1386, 20380000.000000, 2594.000000, 8159.000000, 8175.000000, 8166.000000
1387, 20380160.000000, 2641.000000, 8160.000000, 8176.000000, 8162.000000
1388, 20380320.000000, 2576.000000, 8157.000000, 8168.000000, 8146.000000
1389, 20380480.000000, 2476.000000, 8154.000000, 8167.000000, 8143.000000
1390, 20380640.000000, 2375.000000, 8158.000000, 8282.000000, 8257.000000
1391, 20380800.000000, 2286.000000, 8613.000000, 7946.000000, 8138.000000
1392, 20380960.000000, 2194.500000, 8057.000000, 7721.000000, 7660.000000
1393, 20381120.000000, 2086.000000, 8101.000000, 8098.000000, 8015.000000
1394, 20381280.000000, 1976.500000, 8165.000000, 8233.000000, 8216.000000
1395, 20381440.000000, 1884.000000, 8189.000000, 8248.000000, 8241.000000
1396, 20381600.000000, 1831.000000, 8183.000000, 8256.000000, 8253.000000
1397, 20381760.000000, 1813.000000, 8202.000000, 8260.000000, 8262.000000
1398, 20381920.000000, 1823.000000, 8222.000000, 8268.000000, 8279.000000
1399, 20382080.000000, 1836.000000, 8251.000000, 8292.000000, 8312.000000
1400, 20382240.000000, 1839.500000, 8276.000000, 8302.000000, 8337.000000
1401, 20382400.000000, 1823.000000, 8316.000000, 8324.000000, 8370.000000
1402, 20382560.000000, 1791.500000, 8328.000000, 8320.000000, 8370.000000
1403, 20382720.000000, 1742.000000, 8318.000000, 8306.000000, 8355.000000
1404, 20382880.000000, 1682.000000, 8275.000000, 8255.000000, 8289.000000
1405, 20383040.000000, 1613.000000, 8195.000000, 8209.000000, 8208.000000
1406, 20383200.000000, 1538.500000, 8141.000000, 8175.000000, 8156.000000
1407, 20383360.000000, 1461.000000, 8122.000000, 8169.000000, 8138.000000
1408, 20383520.000000, 1391.000000, 8121.000000, 8165.000000, 8137.000000
1409, 20383680.000000, 1333.000000, 8126.000000, 8166.000000, 8139.000000
1410, 20383840.000000, 1290.000000, 8138.000000, 8170.000000, 8147.000000
1411, 20384000.000000, 1254.000000, 8143.000000, 8171.000000, 8152.000000
1412, 20384160.000000, 1221.500000, 8145.000000, 8174.000000, 8158.000000
1413, 20384320.000000, 1180.000000, 8152.000000, 8172.000000, 8151.000000
1414, 20384480.000000, 1124.000000, 8149.000000, 8169.000000, 8150.000000
1415, 20384640.000000, 1093.000000, 8144.000000, 8172.000000, 8149.000000
1416, 20384800.000000, 1186.500000, 8147.000000, 8181.000000, 8166.000000
1417, 20384960.000000, 1467.000000, 8157.000000, 8196.000000, 8192.000000
1418, 20385120.000000, 1861.500000, 8169.000000, 8173.000000, 8165.000000
1419, 20385280.000000, 2219.000000, 8153.000000, 8172.000000, 8149.000000
1420, 20385440.000000, 2414.500000, 8150.000000, 8166.000000, 8145.000000
1421, 20385600.000000, 2458.000000, 8146.000000, 8185.000000, 8156.000000
1422, 20385760.000000, 2377.000000, 8307.000000, 8318.000000, 8370.000000
1423, 20385920.000000, 2247.000000, 8525.000000, 7702.000000, 7871.000000
1424, 20386080.000000, 2112.500000, 7974.000000, 7897.000000, 7767.000000
1425, 20386240.000000, 1990.000000, 8154.000000, 8191.000000, 8165.000000
1426, 20386400.000000, 1871.500000, 8166.000000, 8229.000000, 8217.000000
1427, 20386560.000000, 1745.000000, 8179.000000, 8240.000000, 8235.000000
1428, 20386720.000000, 1612.500000, 8194.000000, 8251.000000, 8253.000000
1429, 20386880.000000, 1496.000000, 8213.000000, 8250.000000, 8261.000000
1430, 20387040.000000, 1415.500000, 8233.000000, 8261.000000, 8277.000000
1431, 20387200.000000, 1376.000000, 8261.000000, 8281.000000, 8308.000000
1432, 20387360.000000, 1371.500000, 8298.000000, 8304.000000, 8340.000000
1433, 20387520.000000, 1394.000000, 8333.000000, 8306.000000, 8357.000000
1434, 20387680.000000, 1414.500000, 8327.000000, 8298.000000, 8347.000000
1435, 20387840.000000, 1417.000000, 8287.000000, 8281.000000, 8311.000000
1436, 20388000.000000, 1389.000000, 8228.000000, 8225.000000, 8236.000000
1437, 20388160.000000, 1338.000000, 8151.000000, 8195.000000, 8183.000000
1438, 20388320.000000, 1274.500000, 8118.000000, 8177.000000, 8151.000000
1439, 20388480.000000, 1208.000000, 8120.000000, 8165.000000, 8134.000000
1440, 20388640.000000, 1152.000000, 8127.000000, 8165.000000, 8141.000000
1441, 20388800.000000, 1102.000000, 8129.000000, 8176.000000, 8153.000000
1442, 20388960.000000, 1062.500000, 8135.000000, 8180.000000, 8161.000000
1443, 20389120.000000, 1034.000000, 8148.000000, 8173.000000, 8159.000000
1444, 20389280.000000, 1014.500000, 8140.000000, 8175.000000, 8156.000000
1445, 20389440.000000, 991.000000, 8144.000000, 8167.000000, 8150.000000
1446, 20389600.000000, 953.500000, 8141.000000, 8176.000000, 8157.000000
1447, 20389760.000000, 964.000000, 8142.000000, 8181.000000, 8169.000000
1448, 20389920.000000, 1125.000000, 8152.000000, 8187.000000, 8184.000000
1449, 20390080.000000, 1477.000000, 8157.000000, 8177.000000, 8171.000000
1450, 20390240.000000, 1907.500000, 8151.000000, 8170.000000, 8158.000000
1451, 20390400.000000, 2262.000000, 8138.000000, 8167.000000, 8146.000000
1452, 20390560.000000, 2431.000000, 8148.000000, 8173.000000, 8151.000000
1453, 20390720.000000, 2457.000000, 8169.000000, 8325.000000, 8315.000000
1454, 20390880.000000, 2389.000000, 8643.000000, 7815.000000, 8023.000000
1455, 20391040.000000, 2284.000000, 7983.000000, 7783.000000, 7687.000000
1456, 20391200.000000, 2177.500000, 8108.000000, 8147.000000, 8080.000000
1457, 20391360.000000, 2080.000000, 8170.000000, 8232.000000, 8221.000000
1458, 20391520.000000, 1981.000000, 8168.000000, 8250.000000, 8243.000000
1459, 20391680.000000, 1873.000000, 8185.000000, 8255.000000, 8255.000000
1460, 20391840.000000, 1765.500000, 8211.000000, 8260.000000, 8262.000000
1461, 20392000.000000, 1685.000000, 8225.000000, 8271.000000, 8284.000000
1462, 20392160.000000, 1646.000000, 8251.000000, 8289.000000, 8311.000000
1463, 20392320.000000, 1646.000000, 8269.000000, 8322.000000, 8356.000000
1464, 20392480.000000, 1671.500000, 8317.000000, 8332.000000, 8382.000000
1465, 20392640.000000, 1700.000000, 8326.000000, 8333.000000, 8383.000000
1466, 20392800.000000, 1706.000000, 8307.000000, 8303.000000, 8349.000000
1467, 20392960.000000, 1690.000000, 8242.000000, 8255.000000, 8279.000000
1468, 20393120.000000, 1653.000000, 8170.000000, 8207.000000, 8200.000000
1469, 20393280.000000, 1608.000000, 8135.000000, 8172.000000, 8149.000000
1470, 20393440.000000, 1560.500000, 8123.000000, 8162.000000, 8133.000000
1471, 20393600.000000, 1517.000000, 8125.000000, 8165.000000, 8136.000000
1472, 20393760.000000, 1477.000000, 8130.000000, 8176.000000, 8150.000000
1473, 20393920.000000, 1437.000000, 8138.000000, 8176.000000, 8155.000000
1474, 20394080.000000, 1403.000000, 8147.000000, 8172.000000, 8151.000000
1475, 20394240.000000, 1371.000000, 8159.000000, 8172.000000, 8155.000000
1476, 20394400.000000, 1335.000000, 8148.000000, 8175.000000, 8153.000000
1477, 20394560.000000, 1291.000000, 8146.000000, 8177.000000, 8158.000000
1478, 20394720.000000, 1266.000000, 8150.000000, 8172.000000, 8149.000000
1479, 20394880.000000, 1367.000000, 8147.000000, 8174.000000, 8155.000000
1480, 20395040.000000, 1665.500000, 8154.000000, 8182.000000, 8166.000000
1481, 20395200.000000, 2088.000000, 8155.000000, 8189.000000, 8182.000000
1482, 20395360.000000, 2462.000000, 8164.000000, 8174.000000, 8167.000000
1483, 20395520.000000, 2689.000000, 8163.000000, 8173.000000, 8159.000000
1484, 20395680.000000, 2732.500000, 8148.000000, 8172.000000, 8146.000000
1485, 20395840.000000, 2667.000000, 8150.000000, 8175.000000, 8150.000000
1486, 20396000.000000, 2541.000000, 8232.000000, 8342.000000, 8358.000000
1487, 20396160.000000, 2406.000000, 8618.000000, 7684.000000, 7895.000000
1488, 20396320.000000, 2284.000000, 7967.000000, 7833.000000, 7706.000000
1489, 20396480.000000, 2167.000000, 8151.000000, 8193.000000, 8157.000000
1490, 20396640.000000, 2044.500000, 8169.000000, 8245.000000, 8231.000000
1491, 20396800.000000, 1919.000000, 8186.000000, 8255.000000, 8250.000000
1492, 20396960.000000, 1812.000000, 8196.000000, 8259.000000, 8261.000000
1493, 20397120.000000, 1745.000000, 8209.000000, 8269.000000, 8275.000000
1494, 20397280.000000, 1724.500000, 8233.000000, 8277.000000, 8293.000000
1495, 20397440.000000, 1732.000000, 8254.000000, 8297.000000, 8323.000000
1496, 20397600.000000, 1751.500000, 8289.000000, 8313.000000, 8355.000000
1497, 20397760.000000, 1762.000000, 8323.000000, 8328.000000, 8380.000000
1498, 20397920.000000, 1751.500000, 8322.000000, 8328.000000, 8376.000000
1499, 20398080.000000, 1719.000000, 8306.000000, 8300.000000, 8345.000000
1500, 20398240.000000, 1671.500000, 8238.000000, 8250.000000, 8270.000000
1501, 20398400.000000, 1615.000000, 8169.000000, 8201.000000, 8191.000000
1502, 20398560.000000, 1552.000000, 8132.000000, 8175.000000, 8154.000000
1503, 20398720.000000, 1482.000000, 8111.000000, 8167.000000, 8140.000000
1504, 20398880.000000, 1406.500000, 8129.000000, 8172.000000, 8143.000000
1505, 20399040.000000, 1334.000000, 8133.000000, 8174.000000, 8148.000000
1506, 20399200.000000, 1276.000000, 8146.000000, 8177.000000, 8158.000000
1507, 20399360.000000, 1231.000000, 8136.000000, 8175.000000, 8157.000000
1508, 20399520.000000, 1199.500000, 8144.000000, 8174.000000, 8155.000000
1509, 20399680.000000, 1161.000000, 8147.000000, 8173.000000, 8152.000000
1510, 20399840.000000, 1105.000000, 8139.000000, 8174.000000, 8156.000000
1511, 20400000.000000, 1094.000000, 8146.000000, 8170.000000, 8151.000000
1512, 20400160.000000, 1249.000000, 8144.000000, 8177.000000, 8156.000000
1513, 20400320.000000, 1618.000000, 8152.000000, 8170.000000, 8155.000000
1514, 20400480.000000, 2073.500000, 8141.000000, 8179.000000, 8160.000000
1515, 20400640.000000, 2444.000000, 8152.000000, 8183.000000, 8168.000000
1516, 20400800.000000, 2625.000000, 8162.000000, 8182.000000, 8169.000000
1517, 20400960.000000, 2655.000000, 8170.000000, 8189.000000, 8193.000000
1518, 20401120.000000, 2562.500000, 8166.000000, 8186.000000, 8178.000000
1519, 20401280.000000, 2428.000000, 8156.000000, 8169.000000, 8152.000000
1520, 20401440.000000, 2287.500000, 8150.000000, 8172.000000, 8153.000000
1521, 20401600.000000, 2185.000000, 8150.000000, 8266.000000, 8239.000000
1522, 20401760.000000, 2083.000000, 8599.000000, 8044.000000, 8222.000000
1523, 20401920.000000, 1951.000000, 8165.000000, 7686.000000, 7679.000000
1524, 20402080.000000, 1831.500000, 8070.000000, 8063.000000, 7967.000000
1525, 20402240.000000, 1768.000000, 8165.000000, 8229.000000, 8216.000000
1526, 20402400.000000, 1748.000000, 8176.000000, 8255.000000, 8248.000000
1527, 20402560.000000, 1762.000000, 8190.000000, 8256.000000, 8256.000000
1528, 20402720.000000, 1789.000000, 8198.000000, 8270.000000, 8271.000000
1529, 20402880.000000, 1813.000000, 8219.000000, 8272.000000, 8289.000000
1530, 20403040.000000, 1808.500000, 8252.000000, 8289.000000, 8312.000000
1531, 20403200.000000, 1783.000000, 8268.000000, 8316.000000, 8354.000000
1532, 20403360.000000, 1745.000000, 8319.000000, 8329.000000, 8377.000000
1533, 20403520.000000, 1705.000000, 8331.000000, 8337.000000, 8393.000000
1534, 20403680.000000, 1665.500000, 8313.000000, 8328.000000, 8378.000000
1535, 20403840.000000, 1615.000000, 8278.000000, 8279.000000, 8315.000000
1536, 20404000.000000, 1566.000000, 8206.000000, 8222.000000, 8230.000000
1537, 20404160.000000, 1522.000000, 8148.000000, 8196.000000, 8180.000000
1538, 20404320.000000, 1481.000000, 8129.000000, 8166.000000, 8141.000000
1539, 20404480.000000, 1441.000000, 8123.000000, 8166.000000, 8137.000000
1540, 20404640.000000, 1405.000000, 8134.000000, 8168.000000, 8145.000000
1541, 20404800.000000, 1374.000000, 8137.000000, 8172.000000, 8151.000000
1542, 20404960.000000, 1349.500000, 8144.000000, 8167.000000, 8150.000000
1543, 20405120.000000, 1322.000000, 8151.000000, 8173.000000, 8155.000000
1544, 20405280.000000, 1284.000000, 8153.000000, 8170.000000, 8153.000000
1545, 20405440.000000, 1307.000000, 8154.000000, 8172.000000, 8152.000000
1546, 20405600.000000, 1531.000000, 8146.000000, 8172.000000, 8149.000000
1547, 20405760.000000, 1956.000000, 8145.000000, 8173.000000, 8153.000000
1548, 20405920.000000, 2459.000000, 8156.000000, 8175.000000, 8154.000000
1549, 20406080.000000, 2858.000000, 8149.000000, 8176.000000, 8155.000000
1550, 20406240.000000, 3063.000000, 8158.000000, 8169.000000, 8154.000000
1551, 20406400.000000, 3103.000000, 8158.000000, 8171.000000, 8154.000000
1552, 20406560.000000, 3036.000000, 8154.000000, 8182.000000, 8166.000000
1553, 20406720.000000, 2920.000000, 8158.000000, 8185.000000, 8174.000000
1554, 20406880.000000, 2791.500000, 8180.000000, 8186.000000, 8189.000000
1555, 20407040.000000, 2673.000000, 8174.000000, 8178.000000, 8173.000000
1556, 20407200.000000, 2553.000000, 8162.000000, 8175.000000, 8160.000000
1557, 20407360.000000, 2427.000000, 8166.000000, 8173.000000, 8155.000000
1558, 20407520.000000, 2301.000000, 8148.000000, 8245.000000, 8211.000000
1559, 20407680.000000, 2195.000000, 8519.000000, 8139.000000, 8278.000000
1560, 20407840.000000, 2125.000000, 8354.000000, 7629.000000, 7708.000000
1561, 20408000.000000, 2093.000000, 8050.000000, 8010.000000, 7897.000000
1562, 20408160.000000, 2098.000000, 8170.000000, 8228.000000, 8215.000000
1563, 20408320.000000, 2117.000000, 8180.000000, 8254.000000, 8249.000000
1564, 20408480.000000, 2126.000000, 8192.000000, 8264.000000, 8263.000000
1565, 20408640.000000, 2112.000000, 8204.000000, 8267.000000, 8274.000000
1566, 20408800.000000, 2072.500000, 8224.000000, 8271.000000, 8285.000000
1567, 20408960.000000, 2013.000000, 8246.000000, 8287.000000, 8312.000000
1568, 20409120.000000, 1939.000000, 8278.000000, 8307.000000, 8337.000000
1569, 20409280.000000, 1856.000000, 8305.000000, 8322.000000, 8370.000000
1570, 20409440.000000, 1773.000000, 8331.000000, 8325.000000, 8383.000000
1571, 20409600.000000, 1696.000000, 8328.000000, 8320.000000, 8374.000000
1572, 20409760.000000, 1627.000000, 8299.000000, 8282.000000, 8324.000000
1573, 20409920.000000, 1561.000000, 8223.000000, 8228.000000, 8244.000000
1574, 20410080.000000, 1495.000000, 8159.000000, 8189.000000, 8176.000000
1575, 20410240.000000, 1428.000000, 8131.000000, 8176.000000, 8147.000000
1576, 20410400.000000, 1370.500000, 8120.000000, 8169.000000, 8138.000000
1577, 20410560.000000, 1319.000000, 8131.000000, 8168.000000, 8145.000000
1578, 20410720.000000, 1275.500000, 8128.000000, 8177.000000, 8152.000000
1579, 20410880.000000, 1240.000000, 8143.000000, 8172.000000, 8149.000000
1580, 20411040.000000, 1204.500000, 8150.000000, 8172.000000, 8151.000000
1581, 20411200.000000, 1161.000000, 8154.000000, 8175.000000, 8153.000000
1582, 20411360.000000, 1146.500000, 8145.000000, 8172.000000, 8152.000000
1583, 20411520.000000, 1293.000000, 8143.000000, 8175.000000, 8150.000000
1584, 20411680.000000, 1667.500000, 8137.000000, 8170.000000, 8147.000000
1585, 20411840.000000, 2171.000000, 8147.000000, 8171.000000, 8148.000000
1586, 20412000.000000, 2601.500000, 8142.000000, 8174.000000, 8152.000000
1587, 20412160.000000, 2865.000000, 8151.000000, 8176.000000, 8156.000000
1588, 20412320.000000, 2929.000000, 8149.000000, 8172.000000, 8151.000000
1589, 20412480.000000, 2873.000000, 8152.000000, 8178.000000, 8159.000000
1590, 20412640.000000, 2755.500000, 8163.000000, 8180.000000, 8170.000000
1591, 20412800.000000, 2626.000000, 8161.000000, 8190.000000, 8183.000000
1592, 20412960.000000, 2504.000000, 8174.000000, 8180.000000, 8179.000000
1593, 20413120.000000, 2390.000000, 8175.000000, 8180.000000, 8176.000000
1594, 20413280.000000, 2273.000000, 8159.000000, 8170.000000, 8153.000000
1595, 20413440.000000, 2150.000000, 8161.000000, 8171.000000, 8154.000000
1596, 20413600.000000, 2045.000000, 8196.000000, 8314.000000, 8308.000000
1597, 20413760.000000, 1980.000000, 8689.000000, 7832.000000, 8066.000000
1598, 20413920.000000, 1962.000000, 7980.000000, 7806.000000, 7706.000000
1599, 20414080.000000, 1987.000000, 8122.000000, 8145.000000, 8086.000000
1600, 20414240.000000, 2029.500000, 8177.000000, 8239.000000, 8226.000000
1601, 20414400.000000, 2063.000000, 8186.000000, 8247.000000, 8242.000000
1602, 20414560.000000, 2070.000000, 8203.000000, 8257.000000, 8265.000000
1603, 20414720.000000, 2053.000000, 8210.000000, 8275.000000, 8280.000000
1604, 20414880.000000, 2015.000000, 8234.000000, 8271.000000, 8286.000000
1605, 20415040.000000, 1965.000000, 8256.000000, 8281.000000, 8309.000000
1606, 20415200.000000, 1914.500000, 8291.000000, 8312.000000, 8353.000000
1607, 20415360.000000, 1866.000000, 8328.000000, 8319.000000, 8369.000000
1608, 20415520.000000, 1820.000000, 8332.000000, 8332.000000, 8390.000000
1609, 20415680.000000, 1776.000000, 8322.000000, 8308.000000, 8364.000000
1610, 20415840.000000, 1728.000000, 8268.000000, 8261.000000, 8293.000000
1611, 20416000.000000, 1681.000000, 8192.000000, 8205.000000, 8208.000000
1612, 20416160.000000, 1635.500000, 8140.000000, 8173.000000, 8156.000000
1613, 20416320.000000, 1593.000000, 8127.000000, 8168.000000, 8142.000000
1614, 20416480.000000, 1557.000000, 8125.000000, 8160.000000, 8133.000000
1615, 20416640.000000, 1521.000000, 8129.000000, 8165.000000, 8140.000000
1616, 20416800.000000, 1487.000000, 8138.000000, 8163.000000, 8144.000000
1617, 20416960.000000, 1456.000000, 8142.000000, 8169.000000, 8149.000000
1618, 20417120.000000, 1424.000000, 8142.000000, 8169.000000, 8151.000000
1619, 20417280.000000, 1389.000000, 8154.000000, 8168.000000, 8150.000000
1620, 20417440.000000, 1399.000000, 8137.000000, 8164.000000, 8143.000000
1621, 20417600.000000, 1562.000000, 8145.000000, 8168.000000, 8146.000000
1622, 20417760.000000, 1961.500000, 8145.000000, 8170.000000, 8148.000000
1623, 20417920.000000, 2480.000000, 8147.000000, 8166.000000, 8143.000000
1624, 20418080.000000, 2941.000000, 8150.000000, 8169.000000, 8146.000000
1625, 20418240.000000, 3229.000000, 8149.000000, 8167.000000, 8148.000000
1626, 20418400.000000, 3325.500000, 8152.000000, 8172.000000, 8153.000000
1627, 20418560.000000, 3290.000000, 8160.000000, 8175.000000, 8161.000000
1628, 20418720.000000, 3176.500000, 8164.000000, 8181.000000, 8172.000000
1629, 20418880.000000, 3047.000000, 8168.000000, 8181.000000, 8184.000000
1630, 20419040.000000, 2923.500000, 8170.000000, 8180.000000, 8171.000000
1631, 20419200.000000, 2803.000000, 8153.000000, 8175.000000, 8156.000000
1632, 20419360.000000, 2675.500000, 8158.000000, 8168.000000, 8151.000000
1633, 20419520.000000, 2545.000000, 8172.000000, 8268.000000, 8244.000000
1634, 20419680.000000, 2426.000000, 8580.000000, 8034.000000, 8206.000000
1635, 20419840.000000, 2337.000000, 8134.000000, 7702.000000, 7685.000000
1636, 20420000.000000, 2295.000000, 8082.000000, 8067.000000, 7977.000000
1637, 20420160.000000, 2288.000000, 8171.000000, 8228.000000, 8217.000000
1638, 20420320.000000, 2297.000000, 8185.000000, 8250.000000, 8243.000000
1639, 20420480.000000, 2295.000000, 8198.000000, 8257.000000, 8254.000000
1640, 20420640.000000, 2274.500000, 8205.000000, 8262.000000, 8272.000000
1641, 20420800.000000, 2228.000000, 8223.000000, 8267.000000, 8281.000000
1642, 20420960.000000, 2161.000000, 8254.000000, 8286.000000, 8308.000000
1643, 20421120.000000, 2083.000000, 8278.000000, 8304.000000, 8342.000000
1644, 20421280.000000, 1996.000000, 8316.000000, 8318.000000, 8368.000000
1645, 20421440.000000, 1907.000000, 8331.000000, 8331.000000, 8385.000000
1646, 20421600.000000, 1826.500000, 8326.000000, 8318.000000, 8372.000000
1647, 20421760.000000, 1748.000000, 8283.000000, 8277.000000, 8315.000000
1648, 20421920.000000, 1674.000000, 8214.000000, 8223.000000, 8231.000000
1649, 20422080.000000, 1607.000000, 8154.000000, 8186.000000, 8172.000000
1650, 20422240.000000, 1548.500000, 8123.000000, 8170.000000, 8145.000000
1651, 20422400.000000, 1494.000000, 8121.000000, 8164.000000, 8138.000000
1652, 20422560.000000, 1442.000000, 8129.000000, 8171.000000, 8150.000000
1653, 20422720.000000, 1394.000000, 8136.000000, 8172.000000, 8150.000000
1654, 20422880.000000, 1353.500000, 8140.000000, 8170.000000, 8153.000000
1655, 20423040.000000, 1317.000000, 8152.000000, 8171.000000, 8154.000000
1656, 20423200.000000, 1272.000000, 8148.000000, 8170.000000, 8154.000000
1657, 20423360.000000, 1231.000000, 8147.000000, 8172.000000, 8155.000000
1658, 20423520.000000, 1299.500000, 8148.000000, 8175.000000, 8155.000000
1659, 20423680.000000, 1566.000000, 8142.000000, 8170.000000, 8154.000000
1660, 20423840.000000, 2051.000000, 8142.000000, 8171.000000, 8151.000000
1661, 20424000.000000, 2562.000000, 8146.000000, 8175.000000, 8158.000000
1662, 20424160.000000, 2939.000000, 8158.000000, 8176.000000, 8169.000000
1663, 20424320.000000, 3139.000000, 8154.000000, 8184.000000, 8180.000000
1664, 20424480.000000, 3191.000000, 8167.000000, 8177.000000, 8174.000000
1665, 20424640.000000, 3149.000000, 8161.000000, 8178.000000, 8165.000000
1666, 20424800.000000, 3050.500000, 8158.000000, 8169.000000, 8154.000000
1667, 20424960.000000, 2933.000000, 8154.000000, 8173.000000, 8153.000000
1668, 20425120.000000, 2816.500000, 8269.000000, 8337.000000, 8375.000000
1669, 20425280.000000, 2700.000000, 8570.000000, 7787.000000, 7974.000000
1670, 20425440.000000, 2572.500000, 7973.000000, 7873.000000, 7762.000000
1671, 20425600.000000, 2434.000000, 8147.000000, 8172.000000, 8133.000000
1672, 20425760.000000, 2314.000000, 8176.000000, 8228.000000, 8219.000000
1673, 20425920.000000, 2238.000000, 8179.000000, 8244.000000, 8246.000000
1674, 20426080.000000, 2211.000000, 8199.000000, 8244.000000, 8248.000000
1675, 20426240.000000, 2208.000000, 8214.000000, 8247.000000, 8259.000000
1676, 20426400.000000, 2212.000000, 8233.000000, 8257.000000, 8279.000000
1677, 20426560.000000, 2199.000000, 8252.000000, 8274.000000, 8305.000000
1678, 20426720.000000, 2166.000000, 8293.000000, 8295.000000, 8337.000000
1679, 20426880.000000, 2113.000000, 8327.000000, 8311.000000, 8366.000000
1680, 20427040.000000, 2047.500000, 8320.000000, 8305.000000, 8359.000000
1681, 20427200.000000, 1974.000000, 8318.000000, 8280.000000, 8325.000000
1682, 20427360.000000, 1893.500000, 8240.000000, 8245.000000, 8266.000000
1683, 20427520.000000, 1816.000000, 8177.000000, 8193.000000, 8190.000000
1684, 20427680.000000, 1744.500000, 8133.000000, 8168.000000, 8148.000000
1685, 20427840.000000, 1680.000000, 8121.000000, 8157.000000, 8133.000000
1686, 20428000.000000, 1625.500000, 8115.000000, 8163.000000, 8137.000000
1687, 20428160.000000, 1579.000000, 8125.000000, 8162.000000, 8143.000000
1688, 20428320.000000, 1542.000000, 8141.000000, 8165.000000, 8148.000000
1689, 20428480.000000, 1508.000000, 8146.000000, 8168.000000, 8153.000000
1690, 20428640.000000, 1469.000000, 8146.000000, 8170.000000, 8157.000000
1691, 20428800.000000, 1421.000000, 8151.000000, 8165.000000, 8147.000000
1692, 20428960.000000, 1381.500000, 8145.000000, 8169.000000, 8149.000000
1693, 20429120.000000, 1444.000000, 8143.000000, 8170.000000, 8151.000000
1694, 20429280.000000, 1706.500000, 8143.000000, 8167.000000, 8146.000000
1695, 20429440.000000, 2143.000000, 8151.000000, 8167.000000, 8149.000000
1696, 20429600.000000, 2597.500000, 8164.000000, 8179.000000, 8168.000000
1697, 20429760.000000, 2927.000000, 8162.000000, 8183.000000, 8184.000000
1698, 20429920.000000, 3081.500000, 8167.000000, 8169.000000, 8162.000000
1699, 20430080.000000, 3103.000000, 8161.000000, 8174.000000, 8159.000000
1700, 20430240.000000, 3024.500000, 8154.000000, 8168.000000, 8150.000000
1701, 20430400.000000, 2906.000000, 8159.000000, 8178.000000, 8157.000000
1702, 20430560.000000, 2780.500000, 8291.000000, 8333.000000, 8380.000000
1703, 20430720.000000, 2660.000000, 8552.000000, 7738.000000, 7917.000000
1704, 20430880.000000, 2537.500000, 7985.000000, 7886.000000, 7769.000000
1705, 20431040.000000, 2405.000000, 8152.000000, 8182.000000, 8149.000000
1706, 20431200.000000, 2283.000000, 8180.000000, 8229.000000, 8222.000000
1707, 20431360.000000, 2195.000000, 8190.000000, 8245.000000, 8241.000000
1708, 20431520.000000, 2160.000000, 8206.000000, 8245.000000, 8251.000000
1709, 20431680.000000, 2161.000000, 8213.000000, 8258.000000, 8269.000000
1710, 20431840.000000, 2181.500000, 8239.000000, 8263.000000, 8283.000000
1711, 20432000.000000, 2195.000000, 8260.000000, 8283.000000, 8311.000000
1712, 20432160.000000, 2188.000000, 8290.000000, 8313.000000, 8353.000000
1713, 20432320.000000, 2152.000000, 8329.000000, 8318.000000, 8370.000000
1714, 20432480.000000, 2087.000000, 8327.000000, 8320.000000, 8373.000000
1715, 20432640.000000, 2008.000000, 8307.000000, 8291.000000, 8337.000000
1716, 20432800.000000, 1922.000000, 8229.000000, 8240.000000, 8258.000000
1717, 20432960.000000, 1837.000000, 8165.000000, 8199.000000, 8190.000000
1718, 20433120.000000, 1752.500000, 8128.000000, 8169.000000, 8146.000000
1719, 20433280.000000, 1676.000000, 8111.000000, 8163.000000, 8134.000000
1720, 20433440.000000, 1610.000000, 8117.000000, 8163.000000, 8136.000000
1721, 20433600.000000, 1555.000000, 8121.000000, 8168.000000, 8146.000000
1722, 20433760.000000, 1505.500000, 8133.000000, 8171.000000, 8151.000000
1723, 20433920.000000, 1458.000000, 8142.000000, 8169.000000, 8151.000000
1724, 20434080.000000, 1412.000000, 8154.000000, 8171.000000, 8155.000000
1725, 20434240.000000, 1356.000000, 8143.000000, 8171.000000, 8154.000000
1726, 20434400.000000, 1314.000000, 8142.000000, 8173.000000, 8155.000000
1727, 20434560.000000, 1391.000000, 8142.000000, 8171.000000, 8151.000000
1728, 20434720.000000, 1675.000000, 8151.000000, 8167.000000, 8149.000000
1729, 20434880.000000, 2126.000000, 8149.000000, 8171.000000, 8152.000000
1730, 20435040.000000, 2569.000000, 8154.000000, 8179.000000, 8167.000000
1731, 20435200.000000, 2882.000000, 8155.000000, 8189.000000, 8182.000000
1732, 20435360.000000, 3008.000000, 8161.000000, 8176.000000, 8171.000000
1733, 20435520.000000, 3009.000000, 8154.000000, 8176.000000, 8162.000000
1734, 20435680.000000, 2926.500000, 8155.000000, 8169.000000, 8152.000000
1735, 20435840.000000, 2810.000000, 8147.000000, 8179.000000, 8154.000000
1736, 20436000.000000, 2689.000000, 8254.000000, 8337.000000, 8365.000000
1737, 20436160.000000, 2567.000000, 8572.000000, 7733.000000, 7931.000000
1738, 20436320.000000, 2430.000000, 7966.000000, 7843.000000, 7718.000000
1739, 20436480.000000, 2279.000000, 8145.000000, 8187.000000, 8151.000000
1740, 20436640.000000, 2146.000000, 8168.000000, 8238.000000, 8227.000000
1741, 20436800.000000, 2058.000000, 8178.000000, 8250.000000, 8246.000000
1742, 20436960.000000, 2022.500000, 8194.000000, 8261.000000, 8265.000000
1743, 20437120.000000, 2026.000000, 8209.000000, 8266.000000, 8276.000000
1744, 20437280.000000, 2047.500000, 8226.000000, 8272.000000, 8290.000000
1745, 20437440.000000, 2063.000000, 8251.000000, 8291.000000, 8319.000000
1746, 20437600.000000, 2058.500000, 8281.000000, 8317.000000, 8359.000000
1747, 20437760.000000, 2032.000000, 8324.000000, 8331.000000, 8388.000000
1748, 20437920.000000, 1981.500000, 8338.000000, 8337.000000, 8395.000000
1749, 20438080.000000, 1915.000000, 8320.000000, 8311.000000, 8365.000000
1750, 20438240.000000, 1837.500000, 8245.000000, 8255.000000, 8283.000000
1751, 20438400.000000, 1754.000000, 8167.000000, 8204.000000, 8197.000000
1752, 20438560.000000, 1675.000000, 8128.000000, 8173.000000, 8154.000000
1753, 20438720.000000, 1605.000000, 8108.000000, 8169.000000, 8140.000000
1754, 20438880.000000, 1544.000000, 8114.000000, 8162.000000, 8135.000000
1755, 20439040.000000, 1492.000000, 8110.000000, 8178.000000, 8149.000000
1756, 20439200.000000, 1449.000000, 8139.000000, 8167.000000, 8147.000000
1757, 20439360.000000, 1406.000000, 8141.000000, 8174.000000, 8159.000000
1758, 20439520.000000, 1362.500000, 8146.000000, 8175.000000, 8154.000000
1759, 20439680.000000, 1312.000000, 8141.000000, 8177.000000, 8158.000000
1760, 20439840.000000, 1287.000000, 8139.000000, 8170.000000, 8158.000000
1761, 20440000.000000, 1390.000000, 8142.000000, 8171.000000, 8151.000000
1762, 20440160.000000, 1728.500000, 8140.000000, 8176.000000, 8155.000000
1763, 20440320.000000, 2221.000000, 8146.000000, 8170.000000, 8149.000000
1764, 20440480.000000, 2695.000000, 8147.000000, 8175.000000, 8156.000000
1765, 20440640.000000, 3024.000000, 8151.000000, 8181.000000, 8167.000000
1766, 20440800.000000, 3176.000000, 8162.000000, 8178.000000, 8171.000000
1767, 20440960.000000, 3196.000000, 8163.000000, 8186.000000, 8186.000000
1768, 20441120.000000, 3137.000000, 8169.000000, 8180.000000, 8178.000000
1769, 20441280.000000, 3043.000000, 8151.000000, 8178.000000, 8162.000000
1770, 20441440.000000, 2945.000000, 8156.000000, 8171.000000, 8152.000000
1771, 20441600.000000, 2856.000000, 8156.000000, 8239.000000, 8212.000000
1772, 20441760.000000, 2750.500000, 8481.000000, 8143.000000, 8267.000000
1773, 20441920.000000, 2621.000000, 8374.000000, 7587.000000, 7673.000000
1774, 20442080.000000, 2478.500000, 8044.000000, 8001.000000, 7894.000000
1775, 20442240.000000, 2358.000000, 8167.000000, 8240.000000, 8229.000000
1776, 20442400.000000, 2284.000000, 8178.000000, 8257.000000, 8249.000000
1777, 20442560.000000, 2253.000000, 8191.000000, 8264.000000, 8259.000000
1778, 20442720.000000, 2251.000000, 8200.000000, 8271.000000, 8273.000000
1779, 20442880.000000, 2253.000000, 8214.000000, 8277.000000, 8289.000000
1780, 20443040.000000, 2238.000000, 8238.000000, 8289.000000, 8309.000000
1781, 20443200.000000, 2199.000000, 8267.000000, 8316.000000, 8345.000000
1782, 20443360.000000, 2141.000000, 8309.000000, 8338.000000, 8389.000000
1783, 20443520.000000, 2071.000000, 8336.000000, 8350.000000, 8407.000000
1784, 20443680.000000, 1997.000000, 8335.000000, 8333.000000, 8393.000000
1785, 20443840.000000, 1922.000000, 8303.000000, 8291.000000, 8338.000000
1786, 20444000.000000, 1847.000000, 8221.000000, 8235.000000, 8249.000000
1787, 20444160.000000, 1775.000000, 8158.000000, 8190.000000, 8177.000000
1788, 20444320.000000, 1711.500000, 8117.000000, 8176.000000, 8149.000000
1789, 20444480.000000, 1655.000000, 8117.000000, 8161.000000, 8132.000000
1790, 20444640.000000, 1602.000000, 8115.000000, 8163.000000, 8137.000000
1791, 20444800.000000, 1555.000000, 8126.000000, 8173.000000, 8148.000000
1792, 20444960.000000, 1510.500000, 8140.000000, 8174.000000, 8155.000000
1793, 20445120.000000, 1470.000000, 8138.000000, 8171.000000, 8154.000000
1794, 20445280.000000, 1418.500000, 8145.000000, 8169.000000, 8151.000000
1795, 20445440.000000, 1361.000000, 8142.000000, 8181.000000, 8161.000000
1796, 20445600.000000, 1362.000000, 8139.000000, 8171.000000, 8151.000000
1797, 20445760.000000, 1529.000000, 8147.000000, 8176.000000, 8155.000000
1798, 20445920.000000, 1925.500000, 8149.000000, 8172.000000, 8151.000000
1799, 20446080.000000, 2430.000000, 8138.000000, 8173.000000, 8150.000000
1800, 20446240.000000, 2874.500000, 8148.000000, 8176.000000, 8158.000000
1801, 20446400.000000, 3158.000000, 8150.000000, 8178.000000, 8161.000000
1802, 20446560.000000, 3260.500000, 8155.000000, 8185.000000, 8172.000000
1803, 20446720.000000, 3248.000000, 8154.000000, 8186.000000, 8176.000000
1804, 20446880.000000, 3164.500000, 8164.000000, 8178.000000, 8173.000000
1805, 20447040.000000, 3062.000000, 8175.000000, 8183.000000, 8173.000000
1806, 20447200.000000, 2961.500000, 8154.000000, 8178.000000, 8156.000000
1807, 20447360.000000, 2858.000000, 8154.000000, 8174.000000, 8152.000000
1808, 20447520.000000, 2733.500000, 8192.000000, 8320.000000, 8317.000000
1809, 20447680.000000, 2586.000000, 8661.000000, 7820.000000, 8038.000000
1810, 20447840.000000, 2438.500000, 7977.000000, 7795.000000, 7691.000000
1811, 20448000.000000, 2323.000000, 8132.000000, 8159.000000, 8106.000000
1812, 20448160.000000, 2255.000000, 8169.000000, 8244.000000, 8228.000000
1813, 20448320.000000, 2222.000000, 8183.000000, 8254.000000, 8245.000000
1814, 20448480.000000, 2215.000000, 8189.000000, 8262.000000, 8261.000000
1815, 20448640.000000, 2206.000000, 8205.000000, 8267.000000, 8275.000000
1816, 20448800.000000, 2174.000000, 8228.000000, 8280.000000, 8295.000000
1817, 20448960.000000, 2113.000000, 8250.000000, 8290.000000, 8318.000000
1818, 20449120.000000, 2031.000000, 8292.000000, 8309.000000, 8351.000000
1819, 20449280.000000, 1938.000000, 8329.000000, 8328.000000, 8384.000000
1820, 20449440.000000, 1839.500000, 8348.000000, 8326.000000, 8395.000000
1821, 20449600.000000, 1739.000000, 8329.000000, 8310.000000, 8370.000000
1822, 20449760.000000, 1642.500000, 8271.000000, 8262.000000, 8300.000000
1823, 20449920.000000, 1553.000000, 8187.000000, 8209.000000, 8211.000000
1824, 20450080.000000, 1476.000000, 8139.000000, 8176.000000, 8158.000000
1825, 20450240.000000, 1412.000000, 8115.000000, 8170.000000, 8142.000000
1826, 20450400.000000, 1365.500000, 8114.000000, 8167.000000, 8140.000000
1827, 20450560.000000, 1334.000000, 8119.000000, 8172.000000, 8147.000000
1828, 20450720.000000, 1311.500000, 8123.000000, 8164.000000, 8143.000000
1829, 20450880.000000, 1290.000000, 8135.000000, 8174.000000, 8157.000000
1830, 20451040.000000, 1262.500000, 8141.000000, 8175.000000, 8160.000000
1831, 20451200.000000, 1218.000000, 8147.000000, 8171.000000, 8158.000000
1832, 20451360.000000, 1180.000000, 8141.000000, 8175.000000, 8154.000000
1833, 20451520.000000, 1226.000000, 8145.000000, 8170.000000, 8148.000000
1834, 20451680.000000, 1491.500000, 8131.000000, 8172.000000, 8155.000000
1835, 20451840.000000, 1947.000000, 8142.000000, 8171.000000, 8151.000000
1836, 20452000.000000, 2460.500000, 8142.000000, 8169.000000, 8151.000000
1837, 20452160.000000, 2867.000000, 8157.000000, 8170.000000, 8152.000000
1838, 20452320.000000, 3091.000000, 8152.000000, 8173.000000, 8150.000000
1839, 20452480.000000, 3157.000000, 8142.000000, 8181.000000, 8163.000000
1840, 20452640.000000, 3114.000000, 8150.000000, 8177.000000, 8162.000000
1841, 20452800.000000, 3023.000000, 8169.000000, 8177.000000, 8171.000000
1842, 20452960.000000, 2930.000000, 8151.000000, 8190.000000, 8182.000000
1843, 20453120.000000, 2848.000000, 8165.000000, 8184.000000, 8185.000000
1844, 20453280.000000, 2758.000000, 8175.000000, 8177.000000, 8171.000000
1845, 20453440.000000, 2643.000000, 8159.000000, 8175.000000, 8160.000000
1846, 20453600.000000, 2513.500000, 8155.000000, 8178.000000, 8159.000000
1847, 20453760.000000, 2398.000000, 8182.000000, 8321.000000, 8310.000000
1848, 20453920.000000, 2323.000000, 8694.000000, 7813.000000, 8047.000000
1849, 20454080.000000, 2289.000000, 8007.000000, 7786.000000, 7700.000000
1850, 20454240.000000, 2283.500000, 8122.000000, 8142.000000, 8079.000000
1851, 20454400.000000, 2282.000000, 8172.000000, 8239.000000, 8233.000000
1852, 20454560.000000, 2260.000000, 8186.000000, 8261.000000, 8258.000000
1853, 20454720.000000, 2217.000000, 8191.000000, 8267.000000, 8269.000000
1854, 20454880.000000, 2155.500000, 8211.000000, 8264.000000, 8274.000000
1855, 20455040.000000, 2094.000000, 8224.000000, 8276.000000, 8294.000000
1856, 20455200.000000, 2025.500000, 8239.000000, 8297.000000, 8327.000000
1857, 20455360.000000, 1950.000000, 8280.000000, 8320.000000, 8360.000000
1858, 20455520.000000, 1867.500000, 8330.000000, 8331.000000, 8390.000000
1859, 20455680.000000, 1789.000000, 8343.000000, 8332.000000, 8398.000000
1860, 20455840.000000, 1722.500000, 8325.000000, 8319.000000, 8383.000000
1861, 20456000.000000, 1663.000000, 8286.000000, 8269.000000, 8311.000000
1862, 20456160.000000, 1617.000000, 8206.000000, 8208.000000, 8220.000000
1863, 20456320.000000, 1579.000000, 8147.000000, 8183.000000, 8168.000000
1864, 20456480.000000, 1543.000000, 8126.000000, 8164.000000, 8139.000000
1865, 20456640.000000, 1500.000000, 8115.000000, 8165.000000, 8135.000000
1866, 20456800.000000, 1455.000000, 8126.000000, 8170.000000, 8145.000000
1867, 20456960.000000, 1410.000000, 8130.000000, 8167.000000, 8143.000000
1868, 20457120.000000, 1371.000000, 8149.000000, 8165.000000, 8148.000000
1869, 20457280.000000, 1331.000000, 8144.000000, 8172.000000, 8151.000000
1870, 20457440.000000, 1278.000000, 8148.000000, 8167.000000, 8149.000000
1871, 20457600.000000, 1218.000000, 8147.000000, 8169.000000, 8148.000000
1872, 20457760.000000, 1225.500000, 8143.000000, 8161.000000, 8136.000000
1873, 20457920.000000, 1421.000000, 8141.000000, 8163.000000, 8140.000000
1874, 20458080.000000, 1846.500000, 8150.000000, 8167.000000, 8148.000000
1875, 20458240.000000, 2367.000000, 8145.000000, 8163.000000, 8145.000000
1876, 20458400.000000, 2805.000000, 8149.000000, 8168.000000, 8147.000000
1877, 20458560.000000, 3079.000000, 8158.000000, 8169.000000, 8156.000000
1878, 20458720.000000, 3177.000000, 8150.000000, 8176.000000, 8163.000000
1879, 20458880.000000, 3154.000000, 8167.000000, 8169.000000, 8171.000000
1880, 20459040.000000, 3065.000000, 8166.000000, 8174.000000, 8170.000000
1881, 20459200.000000, 2963.000000, 8160.000000, 8169.000000, 8151.000000
1882, 20459360.000000, 2869.500000, 8162.000000, 8168.000000, 8147.000000
1883, 20459520.000000, 2773.000000, 8162.000000, 8276.000000, 8257.000000
1884, 20459680.000000, 2650.500000, 8650.000000, 7977.000000, 8181.000000
1885, 20459840.000000, 2509.000000, 8050.000000, 7742.000000, 7689.000000
1886, 20460000.000000, 2371.000000, 8091.000000, 8087.000000, 8001.000000
1887, 20460160.000000, 2269.000000, 8177.000000, 8229.000000, 8214.000000
1888, 20460320.000000, 2214.000000, 8177.000000, 8243.000000, 8238.000000
1889, 20460480.000000, 2193.000000, 8196.000000, 8249.000000, 8251.000000
1890, 20460640.000000, 2185.500000, 8205.000000, 8257.000000, 8267.000000
1891, 20460800.000000, 2169.000000, 8235.000000, 8267.000000, 8281.000000
1892, 20460960.000000, 2129.000000, 8253.000000, 8273.000000, 8301.000000
1893, 20461120.000000, 2064.000000, 8293.000000, 8290.000000, 8334.000000
1894, 20461280.000000, 1981.500000, 8331.000000, 8310.000000, 8366.000000
1895, 20461440.000000, 1887.000000, 8362.000000, 8311.000000, 8381.000000
1896, 20461600.000000, 1787.500000, 8344.000000, 8300.000000, 8368.000000
1897, 20461760.000000, 1686.000000, 8298.000000, 8261.000000, 8297.000000
1898, 20461920.000000, 1591.000000, 8202.000000, 8217.000000, 8223.000000
1899, 20462080.000000, 1506.000000, 8140.000000, 8176.000000, 8163.000000
1900, 20462240.000000, 1432.000000, 8118.000000, 8166.000000, 8138.000000
1901, 20462400.000000, 1371.000000, 8114.000000, 8164.000000, 8137.000000
1902, 20462560.000000, 1325.500000, 8114.000000, 8168.000000, 8137.000000
1903, 20462720.000000, 1287.000000, 8130.000000, 8169.000000, 8141.000000
1904, 20462880.000000, 1256.000000, 8137.000000, 8171.000000, 8152.000000
1905, 20463040.000000, 1229.000000, 8149.000000, 8175.000000, 8156.000000
1906, 20463200.000000, 1196.500000, 8145.000000, 8167.000000, 8153.000000
1907, 20463360.000000, 1156.000000, 8141.000000, 8173.000000, 8152.000000
1908, 20463520.000000, 1133.000000, 8141.000000, 8169.000000, 8150.000000
1909, 20463680.000000, 1223.000000, 8147.000000, 8168.000000, 8149.000000
1910, 20463840.000000, 1526.500000, 8141.000000, 8172.000000, 8149.000000
1911, 20464000.000000, 1995.000000, 8138.000000, 8175.000000, 8154.000000
1912, 20464160.000000, 2477.000000, 8140.000000, 8171.000000, 8154.000000
1913, 20464320.000000, 2838.000000, 8150.000000, 8178.000000, 8163.000000
1914, 20464480.000000, 3018.000000, 8153.000000, 8178.000000, 8169.000000
1915, 20464640.000000, 3060.000000, 8156.000000, 8190.000000, 8189.000000
1916, 20464800.000000, 3003.500000, 8164.000000, 8178.000000, 8169.000000
1917, 20464960.000000, 2912.000000, 8150.000000, 8163.000000, 8144.000000
1918, 20465120.000000, 2817.500000, 8156.000000, 8170.000000, 8155.000000
1919, 20465280.000000, 2721.000000, 8156.000000, 8268.000000, 8245.000000
1920, 20465440.000000, 2605.000000, 8611.000000, 8066.000000, 8248.000000
1921, 20465600.000000, 2464.000000, 8127.000000, 7727.000000, 7723.000000
1922, 20465760.000000, 2326.000000, 8062.000000, 8046.000000, 7949.000000
1923, 20465920.000000, 2222.000000, 8163.000000, 8227.000000, 8213.000000
1924, 20466080.000000, 2166.500000, 8187.000000, 8238.000000, 8234.000000
1925, 20466240.000000, 2146.000000, 8195.000000, 8245.000000, 8248.000000
1926, 20466400.000000, 2148.000000, 8203.000000, 8259.000000, 8265.000000
1927, 20466560.000000, 2147.000000, 8229.000000, 8261.000000, 8275.000000
1928, 20466720.000000, 2125.500000, 8249.000000, 8269.000000, 8294.000000
1929, 20466880.000000, 2074.000000, 8272.000000, 8297.000000, 8331.000000
1930, 20467040.000000, 2000.500000, 8318.000000, 8316.000000, 8365.000000
1931, 20467200.000000, 1914.000000, 8340.000000, 8320.000000, 8376.000000
1932, 20467360.000000, 1824.000000, 8342.000000, 8305.000000, 8360.000000
1933, 20467520.000000, 1734.000000, 8289.000000, 8270.000000, 8308.000000
1934, 20467680.000000, 1648.000000, 8216.000000, 8224.000000, 8229.000000
1935, 20467840.000000, 1566.000000, 8141.000000, 8187.000000, 8170.000000
1936, 20468000.000000, 1501.000000, 8127.000000, 8165.000000, 8143.000000
1937, 20468160.000000, 1444.000000, 8118.000000, 8163.000000, 8137.000000
1938, 20468320.000000, 1394.500000, 8116.000000, 8163.000000, 8136.000000
1939, 20468480.000000, 1353.000000, 8126.000000, 8173.000000, 8150.000000
1940, 20468640.000000, 1321.000000, 8140.000000, 8176.000000, 8159.000000
1941, 20468800.000000, 1292.000000, 8154.000000, 8171.000000, 8155.000000
1942, 20468960.000000, 1260.000000, 8152.000000, 8171.000000, 8156.000000
1943, 20469120.000000, 1217.000000, 8144.000000, 8173.000000, 8158.000000
1944, 20469280.000000, 1181.500000, 8143.000000, 8176.000000, 8159.000000
1945, 20469440.000000, 1217.000000, 8151.000000, 8171.000000, 8151.000000
1946, 20469600.000000, 1453.500000, 8151.000000, 8173.000000, 8157.000000
1947, 20469760.000000, 1879.000000, 8150.000000, 8174.000000, 8161.000000
1948, 20469920.000000, 2380.500000, 8156.000000, 8187.000000, 8174.000000
1949, 20470080.000000, 2801.000000, 8158.000000, 8171.000000, 8173.000000
1950, 20470240.000000, 3050.000000, 8164.000000, 8178.000000, 8169.000000
1951, 20470400.000000, 3134.000000, 8153.000000, 8169.000000, 8152.000000
1952, 20470560.000000, 3096.500000, 8157.000000, 8171.000000, 8153.000000
1953, 20470720.000000, 2991.000000, 8159.000000, 8289.000000, 8274.000000
1954, 20470880.000000, 2864.000000, 8617.000000, 8017.000000, 8207.000000
1955, 20471040.000000, 2735.000000, 8044.000000, 7772.000000, 7725.000000
1956, 20471200.000000, 2598.500000, 8078.000000, 8064.000000, 7979.000000
1957, 20471360.000000, 2440.000000, 8170.000000, 8226.000000, 8211.000000
1958, 20471520.000000, 2280.000000, 8183.000000, 8237.000000, 8232.000000
1959, 20471680.000000, 2154.000000, 8196.000000, 8245.000000, 8247.000000
1960, 20471840.000000, 2079.500000, 8208.000000, 8255.000000, 8261.000000
1961, 20472000.000000, 2052.000000, 8227.000000, 8260.000000, 8278.000000
1962, 20472160.000000, 2055.000000, 8241.000000, 8271.000000, 8297.000000
1963, 20472320.000000, 2062.000000, 8287.000000, 8287.000000, 8327.000000
1964, 20472480.000000, 2045.500000, 8319.000000, 8306.000000, 8358.000000
1965, 20472640.000000, 2005.000000, 8348.000000, 8314.000000, 8377.000000
1966, 20472800.000000, 1942.000000, 8338.000000, 8306.000000, 8360.000000
1967, 20472960.000000, 1865.000000, 8283.000000, 8268.000000, 8304.000000
1968, 20473120.000000, 1778.000000, 8195.000000, 8219.000000, 8224.000000
1969, 20473280.000000, 1683.000000, 8143.000000, 8182.000000, 8165.000000
1970, 20473440.000000, 1580.500000, 8120.000000, 8175.000000, 8144.000000
1971, 20473600.000000, 1476.000000, 8113.000000, 8171.000000, 8140.000000
1972, 20473760.000000, 1384.000000, 8114.000000, 8175.000000, 8152.000000
1973, 20473920.000000, 1318.000000, 8118.000000, 8172.000000, 8152.000000
1974, 20474080.000000, 1271.500000, 8140.000000, 8172.000000, 8157.000000
1975, 20474240.000000, 1237.000000, 8149.000000, 8177.000000, 8162.000000
1976, 20474400.000000, 1203.000000, 8140.000000, 8177.000000, 8164.000000
1977, 20474560.000000, 1151.000000, 8148.000000, 8178.000000, 8164.000000
1978, 20474720.000000, 1095.500000, 8136.000000, 8176.000000, 8158.000000
1979, 20474880.000000, 1108.000000, 8141.000000, 8173.000000, 8156.000000
1980, 20475040.000000, 1324.500000, 8142.000000, 8178.000000, 8160.000000
1981, 20475200.000000, 1728.000000, 8140.000000, 8177.000000, 8158.000000
1982, 20475360.000000, 2214.000000, 8145.000000, 8179.000000, 8163.000000
1983, 20475520.000000, 2623.000000, 8158.000000, 8185.000000, 8178.000000
1984, 20475680.000000, 2878.500000, 8158.000000, 8183.000000, 8189.000000
1985, 20475840.000000, 2973.000000, 8157.000000, 8188.000000, 8180.000000
1986, 20476000.000000, 2941.000000, 8155.000000, 8175.000000, 8156.000000
1987, 20476160.000000, 2848.000000, 8158.000000, 8168.000000, 8151.000000
1988, 20476320.000000, 2740.500000, 8152.000000, 8262.000000, 8231.000000
1989, 20476480.000000, 2636.000000, 8529.000000, 8097.000000, 8247.000000
1990, 20476640.000000, 2522.500000, 8263.000000, 7651.000000, 7695.000000
1991, 20476800.000000, 2381.000000, 8054.000000, 8024.000000, 7919.000000
1992, 20476960.000000, 2228.500000, 8166.000000, 8232.000000, 8218.000000
1993, 20477120.000000, 2095.000000, 8171.000000, 8254.000000, 8249.000000
1994, 20477280.000000, 2017.000000, 8182.000000, 8263.000000, 8260.000000
1995, 20477440.000000, 1986.000000, 8199.000000, 8267.000000, 8275.000000
1996, 20477600.000000, 1989.500000, 8212.000000, 8273.000000, 8285.000000
1997, 20477760.000000, 1999.000000, 8228.000000, 8294.000000, 8313.000000
1998, 20477920.000000, 1994.500000, 8274.000000, 8308.000000, 8344.000000
1999, 20478080.000000, 1962.000000, 8305.000000, 8331.000000, 8381.000000
2000, 20478240.000000, 1899.000000, 8339.000000, 8346.000000, 8407.000000
2001, 20478400.000000, 1818.000000, 8353.000000, 8331.000000, 8393.000000
2002, 20478560.000000, 1729.500000, 8296.000000, 8285.000000, 8333.000000
2003, 20478720.000000, 1639.000000, 8216.000000, 8230.000000, 8241.000000
2004, 20478880.000000, 1549.000000, 8148.000000, 8192.000000, 8176.000000
2005, 20479040.000000, 1462.000000, 8121.000000, 8169.000000, 8143.000000
2006, 20479200.000000, 1385.500000, 8124.000000, 8160.000000, 8132.000000
2007, 20479360.000000, 1316.000000, 8122.000000, 8166.000000, 8139.000000
2008, 20479520.000000, 1259.000000, 8128.000000, 8165.000000, 8140.000000
2009, 20479680.000000, 1212.000000, 8133.000000, 8175.000000, 8151.000000
2010, 20479840.000000, 1178.000000, 8142.000000, 8173.000000, 8153.000000
2011, 20480000.000000, 1151.000000, 8145.000000, 8176.000000, 8158.000000
2012, 20480160.000000, 1115.500000, 8149.000000, 8177.000000, 8160.000000
2013, 20480320.000000, 1089.000000, 8151.000000, 8173.000000, 8155.000000
2014, 20480480.000000, 1155.000000, 8148.000000, 8174.000000, 8154.000000
2015, 20480640.000000, 1423.000000, 8151.000000, 8177.000000, 8159.000000
2016, 20480800.000000, 1888.500000, 8148.000000, 8177.000000, 8159.000000
2017, 20480960.000000, 2411.000000, 8148.000000, 8179.000000, 8159.000000
2018, 20481120.000000, 2822.000000, 8152.000000, 8178.000000, 8165.000000
2019, 20481280.000000, 3070.000000, 8160.000000, 8183.000000, 8173.000000
2020, 20481440.000000, 3148.500000, 8164.000000, 8186.000000, 8188.000000
2021, 20481600.000000, 3124.000000, 8169.000000, 8183.000000, 8173.000000
2022, 20481760.000000, 3040.500000, 8162.000000, 8172.000000, 8155.000000
2023, 20481920.000000, 2945.000000, 8155.000000, 8167.000000, 8146.000000
2024, 20482080.000000, 2853.500000, 8149.000000, 8254.000000, 8225.000000
2025, 20482240.000000, 2752.000000, 8539.000000, 8085.000000, 8241.000000
2026, 20482400.000000, 2613.000000, 8264.000000, 7622.000000, 7663.000000
2027, 20482560.000000, 2451.000000, 8054.000000, 8029.000000, 7922.000000
2028, 20482720.000000, 2297.500000, 8162.000000, 8233.000000, 8218.000000
2029, 20482880.000000, 2179.000000, 8169.000000, 8252.000000, 8246.000000
2030, 20483040.000000, 2111.000000, 8188.000000, 8259.000000, 8259.000000
2031, 20483200.000000, 2076.000000, 8190.000000, 8265.000000, 8269.000000
2032, 20483360.000000, 2056.000000, 8219.000000, 8273.000000, 8286.000000
2033, 20483520.000000, 2033.000000, 8242.000000, 8293.000000, 8317.000000
2034, 20483680.000000, 1984.500000, 8272.000000, 8305.000000, 8343.000000
2035, 20483840.000000, 1891.000000, 8312.000000, 8327.000000, 8380.000000
2036, 20484000.000000, 1781.000000, 8339.000000, 8335.000000, 8400.000000
2037, 20484160.000000, 1662.000000, 8351.000000, 8319.000000, 8384.000000
2038, 20484320.000000, 1553.500000, 8305.000000, 8281.000000, 8333.000000
2039, 20484480.000000, 1445.000000, 8216.000000, 8233.000000, 8248.000000
2040, 20484640.000000, 1343.000000, 8154.000000, 8191.000000, 8179.000000
2041, 20484800.000000, 1250.000000, 8114.000000, 8172.000000, 8145.000000
2042, 20484960.000000, 1164.000000, 8120.000000, 8165.000000, 8138.000000
2043, 20485120.000000, 1084.000000, 8109.000000, 8169.000000, 8145.000000
2044, 20485280.000000, 1015.000000, 8124.000000, 8168.000000, 8146.000000
2045, 20485440.000000, 956.000000, 8138.000000, 8174.000000, 8155.000000
2046, 20485600.000000, 905.000000, 8136.000000, 8172.000000, 8156.000000
2047, 20485760.000000, 854.000000, 8141.000000, 8176.000000, 8157.000000
2048, 20485920.000000, 803.000000, 8140.000000, 8172.000000, 8157.000000
2049, 20486080.000000, 791.000000, 8144.000000, 8174.000000, 8155.000000
2050, 20486240.000000, 934.000000, 8147.000000, 8174.000000, 8155.000000
2051, 20486400.000000, 1370.000000, 8140.000000, 8176.000000, 8155.000000
2052, 20486560.000000, 1967.500000, 8145.000000, 8171.000000, 8151.000000
2053, 20486720.000000, 2398.000000, 8145.000000, 8173.000000, 8153.000000
2054, 20486880.000000, 2684.000000, 8148.000000, 8172.000000, 8154.000000
2055, 20487040.000000, 2763.000000, 8155.000000, 8173.000000, 8156.000000
2056, 20487200.000000, 2698.000000, 8159.000000, 8182.000000, 8175.000000
2057, 20487360.000000, 2614.000000, 8157.000000, 8189.000000, 8183.000000
2058, 20487520.000000, 2537.500000, 8163.000000, 8177.000000, 8177.000000
2059, 20487680.000000, 2468.000000, 8166.000000, 8172.000000, 8164.000000
2060, 20487840.000000, 2375.500000, 8150.000000, 8174.000000, 8153.000000
2061, 20488000.000000, 2253.000000, 8152.000000, 8174.000000, 8155.000000
2062, 20488160.000000, 2122.000000, 8226.000000, 8332.000000, 8342.000000
2063, 20488320.000000, 2018.000000, 8676.000000, 7700.000000, 7940.000000
2064, 20488480.000000, 1955.000000, 7975.000000, 7831.000000, 7710.000000
2065, 20488640.000000, 1932.000000, 8142.000000, 8182.000000, 8144.000000
2066, 20488800.000000, 1931.500000, 8162.000000, 8243.000000, 8232.000000
2067, 20488960.000000, 1938.000000, 8177.000000, 8258.000000, 8253.000000
2068, 20489120.000000, 1922.000000, 8194.000000, 8265.000000, 8269.000000
2069, 20489280.000000, 1881.000000, 8201.000000, 8266.000000, 8279.000000
2070, 20489440.000000, 1818.500000, 8233.000000, 8284.000000, 8304.000000
2071, 20489600.000000, 1752.000000, 8266.000000, 8303.000000, 8333.000000
2072, 20489760.000000, 1689.000000, 8297.000000, 8316.000000, 8357.000000
2073, 20489920.000000, 1628.000000, 8335.000000, 8332.000000, 8388.000000
2074, 20490080.000000, 1574.000000, 8352.000000, 8331.000000, 8393.000000
2075, 20490240.000000, 1527.000000, 8339.000000, 8311.000000, 8370.000000
2076, 20490400.000000, 1477.000000, 8280.000000, 8254.000000, 8286.000000
2077, 20490560.000000, 1423.000000, 8190.000000, 8214.000000, 8210.000000
2078, 20490720.000000, 1366.500000, 8132.000000, 8184.000000, 8163.000000
2079, 20490880.000000, 1314.000000, 8124.000000, 8166.000000, 8134.000000
2080, 20491040.000000, 1266.500000, 8121.000000, 8170.000000, 8138.000000
2081, 20491200.000000, 1228.000000, 8131.000000, 8170.000000, 8141.000000
2082, 20491360.000000, 1195.000000, 8135.000000, 8175.000000, 8148.000000
2083, 20491520.000000, 1166.000000, 8144.000000, 8172.000000, 8149.000000
2084, 20491680.000000, 1125.500000, 8149.000000, 8179.000000, 8158.000000
2085, 20491840.000000, 1082.000000, 8151.000000, 8178.000000, 8156.000000
2086, 20492000.000000, 1107.000000, 8153.000000, 8181.000000, 8158.000000
2087, 20492160.000000, 1315.000000, 8148.000000, 8173.000000, 8149.000000
2088, 20492320.000000, 1714.000000, 8153.000000, 8176.000000, 8151.000000
2089, 20492480.000000, 2187.000000, 8150.000000, 8178.000000, 8155.000000
2090, 20492640.000000, 2569.000000, 8148.000000, 8181.000000, 8157.000000
2091, 20492800.000000, 2804.000000, 8157.000000, 8181.000000, 8155.000000
2092, 20492960.000000, 2872.500000, 8164.000000, 8171.000000, 8150.000000
2093, 20493120.000000, 2841.000000, 8155.000000, 8179.000000, 8156.000000
2094, 20493280.000000, 2753.500000, 8159.000000, 8181.000000, 8164.000000
2095, 20493440.000000, 2657.000000, 8166.000000, 8189.000000, 8177.000000
2096, 20493600.000000, 2573.000000, 8175.000000, 8190.000000, 8190.000000
2097, 20493760.000000, 2487.000000, 8176.000000, 8184.000000, 8177.000000
2098, 20493920.000000, 2376.000000, 8167.000000, 8179.000000, 8162.000000
2099, 20494080.000000, 2240.000000, 8159.000000, 8177.000000, 8158.000000
2100, 20494240.000000, 2108.500000, 8159.000000, 8195.000000, 8164.000000
2101, 20494400.000000, 2009.000000, 8339.000000, 8283.000000, 8336.000000
2102, 20494560.000000, 1951.000000, 8634.000000, 7633.000000, 7845.000000
2103, 20494720.000000, 1922.000000, 7984.000000, 7910.000000, 7773.000000
2104, 20494880.000000, 1900.500000, 8165.000000, 8217.000000, 8190.000000
2105, 20495040.000000, 1872.000000, 8177.000000, 8247.000000, 8236.000000
2106, 20495200.000000, 1818.000000, 8194.000000, 8258.000000, 8253.000000
2107, 20495360.000000, 1746.000000, 8206.000000, 8265.000000, 8271.000000
2108, 20495520.000000, 1654.500000, 8219.000000, 8269.000000, 8278.000000
2109, 20495680.000000, 1556.000000, 8243.000000, 8278.000000, 8299.000000
2110, 20495840.000000, 1458.000000, 8266.000000, 8290.000000, 8320.000000
2111, 20496000.000000, 1361.000000, 8302.000000, 8305.000000, 8351.000000
2112, 20496160.000000, 1267.000000, 8344.000000, 8315.000000, 8375.000000
2113, 20496320.000000, 1183.000000, 8364.000000, 8303.000000, 8371.000000
2114, 20496480.000000, 1108.500000, 8342.000000, 8286.000000, 8345.000000
2115, 20496640.000000, 1047.000000, 8268.000000, 8236.000000, 8262.000000
2116, 20496800.000000, 990.000000, 8178.000000, 8193.000000, 8189.000000
2117, 20496960.000000, 937.000000, 8142.000000, 8171.000000, 8149.000000
2118, 20497120.000000, 892.000000, 8115.000000, 8158.000000, 8128.000000
2119, 20497280.000000, 857.000000, 8116.000000, 8159.000000, 8126.000000
2120, 20497440.000000, 831.000000, 8124.000000, 8161.000000, 8131.000000
2121, 20497600.000000, 815.000000, 8137.000000, 8161.000000, 8132.000000
2122, 20497760.000000, 797.500000, 8135.000000, 8167.000000, 8142.000000
2123, 20497920.000000, 770.000000, 8150.000000, 8163.000000, 8142.000000
2124, 20498080.000000, 745.500000, 8140.000000, 8162.000000, 8137.000000
2125, 20498240.000000, 795.000000, 8142.000000, 8169.000000, 8141.000000
2126, 20498400.000000, 1025.500000, 8142.000000, 8162.000000, 8138.000000
2127, 20498560.000000, 1431.000000, 8142.000000, 8166.000000, 8144.000000
2128, 20498720.000000, 1880.000000, 8146.000000, 8163.000000, 8138.000000
2129, 20498880.000000, 2234.000000, 8139.000000, 8171.000000, 8145.000000
2130, 20499040.000000, 2418.500000, 8150.000000, 8169.000000, 8146.000000
2131, 20499200.000000, 2465.000000, 8153.000000, 8171.000000, 8152.000000
2132, 20499360.000000, 2415.500000, 8154.000000, 8172.000000, 8150.000000
2133, 20499520.000000, 2338.000000, 8158.000000, 8181.000000, 8170.000000
2134, 20499680.000000, 2271.500000, 8169.000000, 8181.000000, 8187.000000
2135, 20499840.000000, 2220.000000, 8172.000000, 8176.000000, 8172.000000
2136, 20500000.000000, 2164.000000, 8164.000000, 8175.000000, 8158.000000
2137, 20500160.000000, 2089.000000, 8156.000000, 8169.000000, 8152.000000
2138, 20500320.000000, 1998.500000, 8156.000000, 8221.000000, 8190.000000
2139, 20500480.000000, 1912.000000, 8472.000000, 8188.000000, 8312.000000
2140, 20500640.000000, 1855.000000, 8429.000000, 7620.000000, 7749.000000
2141, 20500800.000000, 1826.000000, 8034.000000, 7967.000000, 7847.000000
2142, 20500960.000000, 1818.500000, 8167.000000, 8218.000000, 8201.000000
2143, 20501120.000000, 1810.000000, 8178.000000, 8245.000000, 8241.000000
2144, 20501280.000000, 1784.000000, 8184.000000, 8252.000000, 8252.000000
2145, 20501440.000000, 1739.000000, 8199.000000, 8261.000000, 8269.000000
2146, 20501600.000000, 1678.500000, 8225.000000, 8267.000000, 8280.000000
2147, 20501760.000000, 1613.000000, 8244.000000, 8279.000000, 8305.000000
2148, 20501920.000000, 1541.500000, 8273.000000, 8295.000000, 8334.000000
2149, 20502080.000000, 1467.000000, 8303.000000, 8319.000000, 8374.000000
2150, 20502240.000000, 1394.500000, 8353.000000, 8321.000000, 8383.000000
2151, 20502400.000000, 1341.000000, 8356.000000, 8323.000000, 8387.000000
2152, 20502560.000000, 1327.500000, 8331.000000, 8286.000000, 8340.000000
2153, 20502720.000000, 1349.000000, 8231.000000, 8242.000000, 8263.000000
2154, 20502880.000000, 1346.000000, 8172.000000, 8186.000000, 8178.000000
2155, 20503040.000000, 1295.000000, 8125.000000, 8166.000000, 8139.000000
2156, 20503200.000000, 1228.000000, 8123.000000, 8157.000000, 8128.000000
2157, 20503360.000000, 1193.000000, 8114.000000, 8153.000000, 8126.000000
2158, 20503520.000000, 1196.500000, 8118.000000, 8168.000000, 8142.000000
2159, 20503680.000000, 1217.000000, 8138.000000, 8163.000000, 8144.000000
2160, 20503840.000000, 1238.500000, 8146.000000, 8166.000000, 8149.000000
2161, 20504000.000000, 1238.000000, 8151.000000, 8162.000000, 8146.000000
2162, 20504160.000000, 1213.000000, 8149.000000, 8167.000000, 8148.000000
2163, 20504320.000000, 1221.000000, 8154.000000, 8166.000000, 8148.000000
2164, 20504480.000000, 1387.000000, 8147.000000, 8165.000000, 8148.000000
2165, 20504640.000000, 1711.000000, 8149.000000, 8171.000000, 8150.000000
2166, 20504800.000000, 2103.000000, 8146.000000, 8167.000000, 8146.000000
2167, 20504960.000000, 2406.000000, 8152.000000, 8170.000000, 8149.000000
2168, 20505120.000000, 2558.500000, 8157.000000, 8177.000000, 8155.000000
2169, 20505280.000000, 2582.000000, 8158.000000, 8177.000000, 8164.000000
2170, 20505440.000000, 2515.500000, 8169.000000, 8180.000000, 8182.000000
2171, 20505600.000000, 2413.000000, 8171.000000, 8181.000000, 8172.000000
2172, 20505760.000000, 2307.000000, 8161.000000, 8169.000000, 8154.000000
2173, 20505920.000000, 2212.000000, 8164.000000, 8165.000000, 8146.000000
2174, 20506080.000000, 2120.000000, 8156.000000, 8225.000000, 8198.000000
2175, 20506240.000000, 2003.000000, 8483.000000, 8199.000000, 8326.000000
2176, 20506400.000000, 1873.500000, 8362.000000, 7680.000000, 7770.000000
2177, 20506560.000000, 1756.000000, 8020.000000, 7975.000000, 7852.000000
2178, 20506720.000000, 1678.500000, 8165.000000, 8213.000000, 8196.000000
2179, 20506880.000000, 1643.000000, 8182.000000, 8240.000000, 8233.000000
2180, 20507040.000000, 1645.500000, 8187.000000, 8250.000000, 8248.000000
2181, 20507200.000000, 1659.000000, 8204.000000, 8261.000000, 8264.000000
2182, 20507360.000000, 1660.500000, 8221.000000, 8258.000000, 8270.000000
2183, 20507520.000000, 1640.000000, 8245.000000, 8268.000000, 8288.000000
2184, 20507680.000000, 1596.000000, 8272.000000, 8289.000000, 8317.000000
2185, 20507840.000000, 1536.000000, 8313.000000, 8303.000000, 8349.000000
2186, 20508000.000000, 1473.000000, 8346.000000, 8309.000000, 8367.000000
2187, 20508160.000000, 1413.000000, 8350.000000, 8298.000000, 8358.000000
2188, 20508320.000000, 1352.500000, 8318.000000, 8270.000000, 8319.000000
2189, 20508480.000000, 1289.000000, 8237.000000, 8230.000000, 8245.000000
2190, 20508640.000000, 1232.000000, 8160.000000, 8194.000000, 8180.000000
2191, 20508800.000000, 1187.000000, 8127.000000, 8170.000000, 8142.000000
2192, 20508960.000000, 1149.500000, 8115.000000, 8159.000000, 8131.000000
2193, 20509120.000000, 1108.000000, 8118.000000, 8162.000000, 8134.000000
2194, 20509280.000000, 1062.000000, 8139.000000, 8166.000000, 8146.000000
2195, 20509440.000000, 1020.000000, 8132.000000, 8170.000000, 8149.000000
2196, 20509600.000000, 980.000000, 8149.000000, 8166.000000, 8149.000000
2197, 20509760.000000, 941.000000, 8150.000000, 8170.000000, 8155.000000
2198, 20509920.000000, 900.500000, 8151.000000, 8172.000000, 8154.000000
2199, 20510080.000000, 901.000000, 8152.000000, 8169.000000, 8154.000000
2200, 20510240.000000, 1032.000000, 8149.000000, 8172.000000, 8151.000000
2201, 20510400.000000, 1341.000000, 8141.000000, 8172.000000, 8153.000000
2202, 20510560.000000, 1752.000000, 8155.000000, 8183.000000, 8172.000000
2203, 20510720.000000, 2126.000000, 8166.000000, 8184.000000, 8184.000000
2204, 20510880.000000, 2359.000000, 8165.000000, 8175.000000, 8172.000000
2205, 20511040.000000, 2461.000000, 8159.000000, 8175.000000, 8160.000000
2206, 20511200.000000, 2459.000000, 8150.000000, 8167.000000, 8150.000000
2207, 20511360.000000, 2403.000000, 8152.000000, 8183.000000, 8158.000000
2208, 20511520.000000, 2326.500000, 8306.000000, 8332.000000, 8385.000000
2209, 20511680.000000, 2252.000000, 8497.000000, 7771.000000, 7929.000000
2210, 20511840.000000, 2173.500000, 7981.000000, 7896.000000, 7779.000000
2211, 20512000.000000, 2083.000000, 8141.000000, 8186.000000, 8149.000000
2212, 20512160.000000, 1983.500000, 8172.000000, 8231.000000, 8221.000000
2213, 20512320.000000, 1897.000000, 8188.000000, 8232.000000, 8232.000000
2214, 20512480.000000, 1842.500000, 8197.000000, 8256.000000, 8258.000000
2215, 20512640.000000, 1826.000000, 8216.000000, 8252.000000, 8261.000000
2216, 20512800.000000, 1841.000000, 8230.000000, 8266.000000, 8286.000000
2217, 20512960.000000, 1869.000000, 8266.000000, 8272.000000, 8298.000000
2218, 20513120.000000, 1886.500000, 8293.000000, 8296.000000, 8342.000000
2219, 20513280.000000, 1883.000000, 8333.000000, 8310.000000, 8357.000000
2220, 20513440.000000, 1851.000000, 8343.000000, 8309.000000, 8367.000000
2221, 20513600.000000, 1801.000000, 8321.000000, 8284.000000, 8331.000000
2222, 20513760.000000, 1741.000000, 8239.000000, 8240.000000, 8262.000000
2223, 20513920.000000, 1683.000000, 8168.000000, 8198.000000, 8191.000000
2224, 20514080.000000, 1628.000000, 8136.000000, 8182.000000, 8164.000000
2225, 20514240.000000, 1575.000000, 8126.000000, 8164.000000, 8141.000000
2226, 20514400.000000, 1522.000000, 8126.000000, 8169.000000, 8148.000000
2227, 20514560.000000, 1472.000000, 8129.000000, 8167.000000, 8146.000000
2228, 20514720.000000, 1426.500000, 8140.000000, 8170.000000, 8153.000000
2229, 20514880.000000, 1385.000000, 8148.000000, 8172.000000, 8158.000000
2230, 20515040.000000, 1345.000000, 8153.000000, 8178.000000, 8167.000000
2231, 20515200.000000, 1302.000000, 8153.000000, 8173.000000, 8162.000000
2232, 20515360.000000, 1276.000000, 8155.000000, 8184.000000, 8171.000000
2233, 20515520.000000, 1329.000000, 8157.000000, 8182.000000, 8166.000000
2234, 20515680.000000, 1553.000000, 8158.000000, 8183.000000, 8180.000000
2235, 20515840.000000, 1914.000000, 8166.000000, 8187.000000, 8191.000000
2236, 20516000.000000, 2306.500000, 8165.000000, 8184.000000, 8179.000000
2237, 20516160.000000, 2610.000000, 8154.000000, 8170.000000, 8164.000000
2238, 20516320.000000, 2770.000000, 8161.000000, 8172.000000, 8155.000000
2239, 20516480.000000, 2808.000000, 8154.000000, 8203.000000, 8181.000000
2240, 20516640.000000, 2766.500000, 8337.000000, 8307.000000, 8379.000000
2241, 20516800.000000, 2688.000000, 8402.000000, 7784.000000, 7899.000000
2242, 20516960.000000, 2600.000000, 7997.000000, 7924.000000, 7811.000000
2243, 20517120.000000, 2507.000000, 8167.000000, 8191.000000, 8168.000000
2244, 20517280.000000, 2399.000000, 8179.000000, 8226.000000, 8219.000000
2245, 20517440.000000, 2278.000000, 8187.000000, 8233.000000, 8233.000000
2246, 20517600.000000, 2160.500000, 8198.000000, 8238.000000, 8247.000000
2247, 20517760.000000, 2070.000000, 8216.000000, 8245.000000, 8254.000000
2248, 20517920.000000, 2022.000000, 8236.000000, 8251.000000, 8273.000000
2249, 20518080.000000, 2012.000000, 8251.000000, 8264.000000, 8298.000000
2250, 20518240.000000, 2020.500000, 8286.000000, 8277.000000, 8323.000000
2251, 20518400.000000, 2027.000000, 8314.000000, 8284.000000, 8340.000000
2252, 20518560.000000, 2010.500000, 8329.000000, 8278.000000, 8334.000000
2253, 20518720.000000, 1968.000000, 8298.000000, 8260.000000, 8304.000000
2254, 20518880.000000, 1905.000000, 8221.000000, 8230.000000, 8246.000000
2255, 20519040.000000, 1829.000000, 8155.000000, 8186.000000, 8179.000000
2256, 20519200.000000, 1754.000000, 8131.000000, 8165.000000, 8146.000000
2257, 20519360.000000, 1680.000000, 8115.000000, 8159.000000, 8141.000000
2258, 20519520.000000, 1609.000000, 8114.000000, 8161.000000, 8144.000000
2259, 20519680.000000, 1540.000000, 8127.000000, 8166.000000, 8148.000000
2260, 20519840.000000, 1474.500000, 8142.000000, 8171.000000, 8155.000000
2261, 20520000.000000, 1412.000000, 8153.000000, 8171.000000, 8158.000000
2262, 20520160.000000, 1346.000000, 8145.000000, 8174.000000, 8162.000000
2263, 20520320.000000, 1276.000000, 8149.000000, 8177.000000, 8164.000000
2264, 20520480.000000, 1231.000000, 8154.000000, 8177.000000, 8169.000000
2265, 20520640.000000, 1290.000000, 8149.000000, 8185.000000, 8176.000000
2266, 20520800.000000, 1536.000000, 8158.000000, 8191.000000, 8193.000000
2267, 20520960.000000, 1909.000000, 8165.000000, 8182.000000, 8177.000000
2268, 20521120.000000, 2285.500000, 8156.000000, 8175.000000, 8160.000000
2269, 20521280.000000, 2555.000000, 8149.000000, 8177.000000, 8154.000000
2270, 20521440.000000, 2680.500000, 8153.000000, 8197.000000, 8174.000000
2271, 20521600.000000, 2691.000000, 8331.000000, 8302.000000, 8364.000000
2272, 20521760.000000, 2632.500000, 8406.000000, 7769.000000, 7883.000000
2273, 20521920.000000, 2552.000000, 7974.000000, 7908.000000, 7790.000000
2274, 20522080.000000, 2470.500000, 8160.000000, 8200.000000, 8170.000000
2275, 20522240.000000, 2388.000000, 8173.000000, 8234.000000, 8223.000000
2276, 20522400.000000, 2287.000000, 8182.000000, 8245.000000, 8242.000000
2277, 20522560.000000, 2165.000000, 8196.000000, 8243.000000, 8245.000000
2278, 20522720.000000, 2046.500000, 8209.000000, 8255.000000, 8263.000000
2279, 20522880.000000, 1961.000000, 8221.000000, 8265.000000, 8283.000000
2280, 20523040.000000, 1919.000000, 8250.000000, 8275.000000, 8301.000000
2281, 20523200.000000, 1911.000000, 8284.000000, 8306.000000, 8344.000000
2282, 20523360.000000, 1917.000000, 8319.000000, 8317.000000, 8367.000000
2283, 20523520.000000, 1919.000000, 8329.000000, 8317.000000, 8373.000000
2284, 20523680.000000, 1902.000000, 8303.000000, 8286.000000, 8329.000000
2285, 20523840.000000, 1864.000000, 8220.000000, 8230.000000, 8242.000000
2286, 20524000.000000, 1809.000000, 8158.000000, 8189.000000, 8176.000000
2287, 20524160.000000, 1745.000000, 8124.000000, 8172.000000, 8148.000000
2288, 20524320.000000, 1673.000000, 8115.000000, 8162.000000, 8138.000000
2289, 20524480.000000, 1601.000000, 8124.000000, 8152.000000, 8128.000000
2290, 20524640.000000, 1537.500000, 8114.000000, 8161.000000, 8136.000000
2291, 20524800.000000, 1489.000000, 8134.000000, 8167.000000, 8146.000000
2292, 20524960.000000, 1451.000000, 8136.000000, 8173.000000, 8153.000000
2293, 20525120.000000, 1414.000000, 8154.000000, 8171.000000, 8155.000000
2294, 20525280.000000, 1374.000000, 8146.000000, 8178.000000, 8163.000000
2295, 20525440.000000, 1371.000000, 8150.000000, 8170.000000, 8153.000000
2296, 20525600.000000, 1493.500000, 8148.000000, 8174.000000, 8158.000000
2297, 20525760.000000, 1794.000000, 8147.000000, 8177.000000, 8164.000000
2298, 20525920.000000, 2202.500000, 8167.000000, 8181.000000, 8174.000000
2299, 20526080.000000, 2580.000000, 8164.000000, 8188.000000, 8188.000000
2300, 20526240.000000, 2818.500000, 8159.000000, 8177.000000, 8174.000000
2301, 20526400.000000, 2917.000000, 8154.000000, 8166.000000, 8152.000000
2302, 20526560.000000, 2901.000000, 8156.000000, 8167.000000, 8150.000000
2303, 20526720.000000, 2831.000000, 8157.000000, 8187.000000, 8163.000000
2304, 20526880.000000, 2748.500000, 8319.000000, 8307.000000, 8359.000000
2305, 20527040.000000, 2679.000000, 8494.000000, 7620.000000, 7778.000000
2306, 20527200.000000, 2614.500000, 7983.000000, 7877.000000, 7747.000000
2307, 20527360.000000, 2536.000000, 8160.000000, 8210.000000, 8188.000000
2308, 20527520.000000, 2416.000000, 8174.000000, 8242.000000, 8231.000000
2309, 20527680.000000, 2288.000000, 8186.000000, 8254.000000, 8251.000000
2310, 20527840.000000, 2184.000000, 8193.000000, 8263.000000, 8263.000000
2311, 20528000.000000, 2123.000000, 8205.000000, 8264.000000, 8276.000000
2312, 20528160.000000, 2101.500000, 8217.000000, 8284.000000, 8296.000000
2313, 20528320.000000, 2102.000000, 8249.000000, 8298.000000, 8325.000000
2314, 20528480.000000, 2100.000000, 8280.000000, 8324.000000, 8364.000000
2315, 20528640.000000, 2079.000000, 8323.000000, 8338.000000, 8390.000000
2316, 20528800.000000, 2030.500000, 8334.000000, 8335.000000, 8393.000000
2317, 20528960.000000, 1965.000000, 8318.000000, 8298.000000, 8349.000000
2318, 20529120.000000, 1891.000000, 8246.000000, 8249.000000, 8264.000000
2319, 20529280.000000, 1814.000000, 8164.000000, 8197.000000, 8186.000000
2320, 20529440.000000, 1736.500000, 8128.000000, 8177.000000, 8150.000000
2321, 20529600.000000, 1664.000000, 8125.000000, 8168.000000, 8137.000000
2322, 20529760.000000, 1601.000000, 8122.000000, 8170.000000, 8143.000000
2323, 20529920.000000, 1544.000000, 8127.000000, 8177.000000, 8149.000000
2324, 20530080.000000, 1499.000000, 8136.000000, 8181.000000, 8159.000000
2325, 20530240.000000, 1459.000000, 8141.000000, 8188.000000, 8165.000000
2326, 20530400.000000, 1412.000000, 8142.000000, 8183.000000, 8167.000000
2327, 20530560.000000, 1356.000000, 8145.000000, 8190.000000, 8172.000000
2328, 20530720.000000, 1348.000000, 8145.000000, 8193.000000, 8175.000000
2329, 20530880.000000, 1478.000000, 8150.000000, 8191.000000, 8170.000000
2330, 20531040.000000, 1801.500000, 8144.000000, 8191.000000, 8170.000000
2331, 20531200.000000, 2223.000000, 8146.000000, 8190.000000, 8169.000000
2332, 20531360.000000, 2586.000000, 8144.000000, 8183.000000, 8164.000000
2333, 20531520.000000, 2813.000000, 8151.000000, 8193.000000, 8177.000000
2334, 20531680.000000, 2891.500000, 8144.000000, 8198.000000, 8187.000000
2335, 20531840.000000, 2872.000000, 8164.000000, 8198.000000, 8200.000000
2336, 20532000.000000, 2801.000000, 8158.000000, 8198.000000, 8189.000000
2337, 20532160.000000, 2722.000000, 8151.000000, 8187.000000, 8165.000000
2338, 20532320.000000, 2652.000000, 8150.000000, 8183.000000, 8164.000000
2339, 20532480.000000, 2578.000000, 8147.000000, 8239.000000, 8210.000000
2340, 20532640.000000, 2473.500000, 8439.000000, 8185.000000, 8287.000000
2341, 20532800.000000, 2336.000000, 8378.000000, 7605.000000, 7698.000000
2342, 20532960.000000, 2186.000000, 8021.000000, 7981.000000, 7862.000000
2343, 20533120.000000, 2055.000000, 8160.000000, 8238.000000, 8220.000000
2344, 20533280.000000, 1960.500000, 8173.000000, 8265.000000, 8256.000000
2345, 20533440.000000, 1905.000000, 8178.000000, 8273.000000, 8267.000000
2346, 20533600.000000, 1880.000000, 8195.000000, 8277.000000, 8280.000000
2347, 20533760.000000, 1865.000000, 8214.000000, 8284.000000, 8292.000000
2348, 20533920.000000, 1836.500000, 8223.000000, 8296.000000, 8316.000000
2349, 20534080.000000, 1781.000000, 8255.000000, 8312.000000, 8345.000000
2350, 20534240.000000, 1706.500000, 8303.000000, 8335.000000, 8380.000000
2351, 20534400.000000, 1619.000000, 8332.000000, 8342.000000, 8402.000000
2352, 20534560.000000, 1531.500000, 8339.000000, 8329.000000, 8394.000000
2353, 20534720.000000, 1442.000000, 8309.000000, 8296.000000, 8347.000000
2354, 20534880.000000, 1358.500000, 8227.000000, 8244.000000, 8264.000000
2355, 20535040.000000, 1281.000000, 8162.000000, 8205.000000, 8190.000000
2356, 20535200.000000, 1218.000000, 8121.000000, 8172.000000, 8150.000000
2357, 20535360.000000, 1168.000000, 8116.000000, 8170.000000, 8143.000000
2358, 20535520.000000, 1134.000000, 8119.000000, 8167.000000, 8138.000000
2359, 20535680.000000, 1109.000000, 8126.000000, 8178.000000, 8157.000000
2360, 20535840.000000, 1089.000000, 8137.000000, 8168.000000, 8149.000000
2361, 20536000.000000, 1068.000000, 8134.000000, 8176.000000, 8159.000000
2362, 20536160.000000, 1036.500000, 8150.000000, 8172.000000, 8157.000000
2363, 20536320.000000, 1006.000000, 8160.000000, 8168.000000, 8154.000000
2364, 20536480.000000, 1047.500000, 8148.000000, 8170.000000, 8152.000000
2365, 20536640.000000, 1249.000000, 8153.000000, 8164.000000, 8147.000000
2366, 20536800.000000, 1633.500000, 8151.000000, 8162.000000, 8146.000000
2367, 20536960.000000, 2071.000000, 8161.000000, 8153.000000, 8140.000000
2368, 20537120.000000, 2415.500000, 8161.000000, 8151.000000, 8134.000000
2369, 20537280.000000, 2601.000000, 8163.000000, 8151.000000, 8133.000000
2370, 20537440.000000, 2644.000000, 8167.000000, 8151.000000, 8134.000000
2371, 20537600.000000, 2617.000000, 8169.000000, 8150.000000, 8138.000000
2372, 20537760.000000, 2566.500000, 8175.000000, 8153.000000, 8145.000000
2373, 20537920.000000, 2528.000000, 8184.000000, 8155.000000, 8155.000000
2374, 20538080.000000, 2505.500000, 8188.000000, 8142.000000, 8142.000000
2375, 20538240.000000, 2471.000000, 8186.000000, 8148.000000, 8141.000000
2376, 20538400.000000, 2400.500000, 8195.000000, 8130.000000, 8117.000000
2377, 20538560.000000, 2293.000000, 8189.000000, 8133.000000, 8116.000000
2378, 20538720.000000, 2172.000000, 8189.000000, 8247.000000, 8230.000000
2379, 20538880.000000, 2068.000000, 8629.000000, 7896.000000, 8078.000000
2380, 20539040.000000, 2004.000000, 8152.000000, 7626.000000, 7599.000000
2381, 20539200.000000, 1973.000000, 8137.000000, 8046.000000, 7967.000000
2382, 20539360.000000, 1964.500000, 8190.000000, 8190.000000, 8174.000000
2383, 20539520.000000, 1959.000000, 8207.000000, 8209.000000, 8198.000000
2384, 20539680.000000, 1941.500000, 8224.000000, 8213.000000, 8206.000000
2385, 20539840.000000, 1905.000000, 8237.000000, 8216.000000, 8217.000000
2386, 20540000.000000, 1851.000000, 8252.000000, 8225.000000, 8230.000000
2387, 20540160.000000, 1788.000000, 8272.000000, 8242.000000, 8252.000000
2388, 20540320.000000, 1722.500000, 8301.000000, 8262.000000, 8282.000000
2389, 20540480.000000, 1662.000000, 8336.000000, 8283.000000, 8318.000000
2390, 20540640.000000, 1607.000000, 8365.000000, 8287.000000, 8329.000000
2391, 20540800.000000, 1562.000000, 8374.000000, 8270.000000, 8314.000000
2392, 20540960.000000, 1522.500000, 8330.000000, 8233.000000, 8256.000000
2393, 20541120.000000, 1486.000000, 8244.000000, 8176.000000, 8168.000000
2394, 20541280.000000, 1443.000000, 8173.000000, 8140.000000, 8101.000000
2395, 20541440.000000, 1403.000000, 8151.000000, 8120.000000, 8068.000000
2396, 20541600.000000, 1370.000000, 8143.000000, 8120.000000, 8063.000000
2397, 20541760.000000, 1344.000000, 8146.000000, 8124.000000, 8067.000000
2398, 20541920.000000, 1322.500000, 8159.000000, 8126.000000, 8077.000000
2399, 20542080.000000, 1301.000000, 8167.000000, 8131.000000, 8076.000000
2400, 20542240.000000, 1274.000000, 8165.000000, 8132.000000, 8081.000000
2401, 20542400.000000, 1243.000000, 8178.000000, 8135.000000, 8083.000000
2402, 20542560.000000, 1211.000000, 8179.000000, 8144.000000, 8089.000000
2403, 20542720.000000, 1231.000000, 8168.000000, 8142.000000, 8085.000000
2404, 20542880.000000, 1425.000000, 8176.000000, 8136.000000, 8079.000000
2405, 20543040.000000, 1788.000000, 8168.000000, 8140.000000, 8081.000000
2406, 20543200.000000, 2226.500000, 8159.000000, 8140.000000, 8083.000000
2407, 20543360.000000, 2576.000000, 8165.000000, 8146.000000, 8085.000000
2408, 20543520.000000, 2765.000000, 8171.000000, 8151.000000, 8092.000000
2409, 20543680.000000, 2806.000000, 8180.000000, 8149.000000, 8096.000000
2410, 20543840.000000, 2749.500000, 8194.000000, 8158.000000, 8117.000000
2411, 20544000.000000, 2662.000000, 8193.000000, 8156.000000, 8112.000000
2412, 20544160.000000, 2578.500000, 8185.000000, 8153.000000, 8098.000000
2413, 20544320.000000, 2510.000000, 8188.000000, 8152.000000, 8093.000000
2414, 20544480.000000, 2443.000000, 8183.000000, 8159.000000, 8096.000000
2415, 20544640.000000, 2342.000000, 8286.000000, 8318.000000, 8308.000000
2416, 20544800.000000, 2214.000000, 8621.000000, 7764.000000, 7917.000000
2417, 20544960.000000, 2082.000000, 8005.000000, 7841.000000, 7696.000000
2418, 20545120.000000, 1984.500000, 8175.000000, 8158.000000, 8074.000000
2419, 20545280.000000, 1929.000000, 8215.000000, 8217.000000, 8172.000000
2420, 20545440.000000, 1912.500000, 8228.000000, 8229.000000, 8186.000000
2421, 20545600.000000, 1909.000000, 8249.000000, 8236.000000, 8203.000000
2422, 20545760.000000, 1904.000000, 8257.000000, 8242.000000, 8215.000000
2423, 20545920.000000, 1874.000000, 8269.000000, 8243.000000, 8228.000000
2424, 20546080.000000, 1818.500000, 8299.000000, 8263.000000, 8258.000000
2425, 20546240.000000, 1749.000000, 8329.000000, 8276.000000, 8282.000000
2426, 20546400.000000, 1677.000000, 8356.000000, 8292.000000, 8314.000000
2427, 20546560.000000, 1604.000000, 8375.000000, 8290.000000, 8313.000000
2428, 20546720.000000, 1534.000000, 8364.000000, 8269.000000, 8285.000000
2429, 20546880.000000, 1466.000000, 8294.000000, 8232.000000, 8223.000000
2430, 20547040.000000, 1401.500000, 8203.000000, 8195.000000, 8154.000000
2431, 20547200.000000, 1342.000000, 8164.000000, 8158.000000, 8103.000000
2432, 20547360.000000, 1291.000000, 8141.000000, 8153.000000, 8096.000000
2433, 20547520.000000, 1250.000000, 8139.000000, 8151.000000, 8095.000000
2434, 20547680.000000, 1220.500000, 8152.000000, 8153.000000, 8096.000000
2435, 20547840.000000, 1197.000000, 8154.000000, 8154.000000, 8108.000000
2436, 20548000.000000, 1173.000000, 8162.000000, 8160.000000, 8121.000000
2437, 20548160.000000, 1148.000000, 8164.000000, 8161.000000, 8126.000000
2438, 20548320.000000, 1118.500000, 8162.000000, 8154.000000, 8125.000000
2439, 20548480.000000, 1089.000000, 8161.000000, 8152.000000, 8127.000000
2440, 20548640.000000, 1114.000000, 8151.000000, 8157.000000, 8133.000000
2441, 20548800.000000, 1277.000000, 8143.000000, 8157.000000, 8134.000000
2442, 20548960.000000, 1625.500000, 8150.000000, 8156.000000, 8139.000000
2443, 20549120.000000, 2048.000000, 8146.000000, 8158.000000, 8143.000000
2444, 20549280.000000, 2387.500000, 8142.000000, 8157.000000, 8143.000000
2445, 20549440.000000, 2578.000000, 8151.000000, 8162.000000, 8160.000000
2446, 20549600.000000, 2611.000000, 8150.000000, 8162.000000, 8161.000000
2447, 20549760.000000, 2556.000000, 8152.000000, 8164.000000, 8174.000000
2448, 20549920.000000, 2464.000000, 8158.000000, 8164.000000, 8168.000000
2449, 20550080.000000, 2375.000000, 8151.000000, 8152.000000, 8146.000000
2450, 20550240.000000, 2303.000000, 8146.000000, 8163.000000, 8160.000000
2451, 20550400.000000, 2236.000000, 8173.000000, 8284.000000, 8292.000000
2452, 20550560.000000, 2148.000000, 8595.000000, 7970.000000, 8176.000000
2453, 20550720.000000, 2050.000000, 8017.000000, 7767.000000, 7738.000000
2454, 20550880.000000, 1966.500000, 8080.000000, 8079.000000, 8020.000000
2455, 20551040.000000, 1923.000000, 8158.000000, 8226.000000, 8236.000000
2456, 20551200.000000, 1915.500000, 8168.000000, 8241.000000, 8260.000000
2457, 20551360.000000, 1931.000000, 8162.000000, 8250.000000, 8275.000000
2458, 20551520.000000, 1949.500000, 8175.000000, 8259.000000, 8287.000000
2459, 20551680.000000, 1954.000000, 8192.000000, 8267.000000, 8302.000000
2460, 20551840.000000, 1930.500000, 8212.000000, 8280.000000, 8324.000000
2461, 20552000.000000, 1887.000000, 8248.000000, 8300.000000, 8352.000000
2462, 20552160.000000, 1826.000000, 8278.000000, 8323.000000, 8395.000000
2463, 20552320.000000, 1758.000000, 8312.000000, 8332.000000, 8409.000000
2464, 20552480.000000, 1696.500000, 8305.000000, 8319.000000, 8393.000000
2465, 20552640.000000, 1643.000000, 8262.000000, 8276.000000, 8328.000000
2466, 20552800.000000, 1598.000000, 8185.000000, 8232.000000, 8258.000000
2467, 20552960.000000, 1561.000000, 8123.000000, 8192.000000, 8197.000000
2468, 20553120.000000, 1529.000000, 8099.000000, 8179.000000, 8170.000000
2469, 20553280.000000, 1503.000000, 8088.000000, 8175.000000, 8161.000000
2470, 20553440.000000, 1483.500000, 8100.000000, 8177.000000, 8169.000000
2471, 20553600.000000, 1466.000000, 8114.000000, 8181.000000, 8174.000000
2472, 20553760.000000, 1451.500000, 8124.000000, 8184.000000, 8182.000000
2473, 20553920.000000, 1441.000000, 8134.000000, 8185.000000, 8185.000000
2474, 20554080.000000, 1426.500000, 8136.000000, 8187.000000, 8185.000000
2475, 20554240.000000, 1401.000000, 8138.000000, 8194.000000, 8189.000000
2476, 20554400.000000, 1384.500000, 8136.000000, 8188.000000, 8180.000000
2477, 20554560.000000, 1460.000000, 8131.000000, 8190.000000, 8179.000000
2478, 20554720.000000, 1715.000000, 8129.000000, 8188.000000, 8173.000000
2479, 20554880.000000, 2103.000000, 8135.000000, 8191.000000, 8178.000000
2480, 20555040.000000, 2488.500000, 8143.000000, 8194.000000, 8179.000000
2481, 20555200.000000, 2750.000000, 8141.000000, 8192.000000, 8179.000000
2482, 20555360.000000, 2845.500000, 8145.000000, 8204.000000, 8192.000000
2483, 20555520.000000, 2825.000000, 8157.000000, 8203.000000, 8199.000000
2484, 20555680.000000, 2732.000000, 8155.000000, 8198.000000, 8193.000000
2485, 20555840.000000, 2620.000000, 8154.000000, 8198.000000, 8184.000000
2486, 20556000.000000, 2519.500000, 8148.000000, 8187.000000, 8167.000000
2487, 20556160.000000, 2430.000000, 8151.000000, 8193.000000, 8173.000000
2488, 20556320.000000, 2331.500000, 8188.000000, 8350.000000, 8354.000000
2489, 20556480.000000, 2208.000000, 8601.000000, 7847.000000, 8039.000000
2490, 20556640.000000, 2080.000000, 7975.000000, 7812.000000, 7709.000000
2491, 20556800.000000, 1977.000000, 8120.000000, 8167.000000, 8108.000000
2492, 20556960.000000, 1922.500000, 8169.000000, 8255.000000, 8245.000000
2493, 20557120.000000, 1907.000000, 8187.000000, 8271.000000, 8267.000000
2494, 20557280.000000, 1914.500000, 8190.000000, 8279.000000, 8279.000000
2495, 20557440.000000, 1919.000000, 8202.000000, 8280.000000, 8288.000000
2496, 20557600.000000, 1903.500000, 8225.000000, 8298.000000, 8311.000000
2497, 20557760.000000, 1866.000000, 8250.000000, 8310.000000, 8336.000000
2498, 20557920.000000, 1809.500000, 8272.000000, 8328.000000, 8368.000000
2499, 20558080.000000, 1743.000000, 8314.000000, 8351.000000, 8401.000000
2500, 20558240.000000, 1667.500000, 8345.000000, 8352.000000, 8417.000000
2501, 20558400.000000, 1590.000000, 8334.000000, 8338.000000, 8396.000000
2502, 20558560.000000, 1512.500000, 8285.000000, 8289.000000, 8326.000000
2503, 20558720.000000, 1445.000000, 8203.000000, 8232.000000, 8242.000000
2504, 20558880.000000, 1386.500000, 8136.000000, 8205.000000, 8187.000000
2505, 20559040.000000, 1337.000000, 8129.000000, 8189.000000, 8160.000000
2506, 20559200.000000, 1290.500000, 8119.000000, 8187.000000, 8158.000000
2507, 20559360.000000, 1247.000000, 8120.000000, 8185.000000, 8162.000000
2508, 20559520.000000, 1212.000000, 8121.000000, 8196.000000, 8172.000000
2509, 20559680.000000, 1186.000000, 8138.000000, 8200.000000, 8179.000000
2510, 20559840.000000, 1165.500000, 8147.000000, 8190.000000, 8175.000000
2511, 20560000.000000, 1138.000000, 8147.000000, 8204.000000, 8185.000000
2512, 20560160.000000, 1102.000000, 8145.000000, 8199.000000, 8183.000000
2513, 20560320.000000, 1100.000000, 8144.000000, 8195.000000, 8178.000000
2514, 20560480.000000, 1252.500000, 8152.000000, 8194.000000, 8179.000000
2515, 20560640.000000, 1592.000000, 8146.000000, 8196.000000, 8175.000000
2516, 20560800.000000, 2040.500000, 8135.000000, 8204.000000, 8189.000000
2517, 20560960.000000, 2427.000000, 8145.000000, 8193.000000, 8179.000000
2518, 20561120.000000, 2657.000000, 8144.000000, 8199.000000, 8190.000000
2519, 20561280.000000, 2725.000000, 8153.000000, 8200.000000, 8187.000000
2520, 20561440.000000, 2688.000000, 8154.000000, 8197.000000, 8189.000000
2521, 20561600.000000, 2605.000000, 8155.000000, 8209.000000, 8204.000000
2522, 20561760.000000, 2524.000000, 8166.000000, 8209.000000, 8217.000000
2523, 20561920.000000, 2457.000000, 8177.000000, 8199.000000, 8204.000000
2524, 20562080.000000, 2398.000000, 8154.000000, 8199.000000, 8183.000000
2525, 20562240.000000, 2324.000000, 8149.000000, 8193.000000, 8182.000000
2526, 20562400.000000, 2222.000000, 8149.000000, 8236.000000, 8215.000000
2527, 20562560.000000, 2114.000000, 8421.000000, 8238.000000, 8338.000000
2528, 20562720.000000, 2032.000000, 8456.000000, 7595.000000, 7728.000000
2529, 20562880.000000, 1989.000000, 8027.000000, 7969.000000, 7852.000000
2530, 20563040.000000, 1980.000000, 8164.000000, 8249.000000, 8238.000000
2531, 20563200.000000, 1987.000000, 8178.000000, 8269.000000, 8267.000000
2532, 20563360.000000, 1994.500000, 8187.000000, 8282.000000, 8288.000000
2533, 20563520.000000, 1992.000000, 8194.000000, 8289.000000, 8303.000000
2534, 20563680.000000, 1964.500000, 8208.000000, 8292.000000, 8306.000000
2535, 20563840.000000, 1918.000000, 8227.000000, 8306.000000, 8334.000000
2536, 20564000.000000, 1854.500000, 8263.000000, 8326.000000, 8362.000000
2537, 20564160.000000, 1787.000000, 8295.000000, 8349.000000, 8397.000000
2538, 20564320.000000, 1725.000000, 8333.000000, 8367.000000, 8430.000000
2539, 20564480.000000, 1667.000000, 8338.000000, 8363.000000, 8431.000000
2540, 20564640.000000, 1616.500000, 8317.000000, 8326.000000, 8386.000000
2541, 20564800.000000, 1573.000000, 8252.000000, 8261.000000, 8292.000000
2542, 20564960.000000, 1539.500000, 8168.000000, 8214.000000, 8217.000000
2543, 20565120.000000, 1510.000000, 8128.000000, 8184.000000, 8169.000000
2544, 20565280.000000, 1483.500000, 8122.000000, 8169.000000, 8148.000000
2545, 20565440.000000, 1458.000000, 8116.000000, 8168.000000, 8149.000000
2546, 20565600.000000, 1439.000000, 8125.000000, 8173.000000, 8152.000000
2547, 20565760.000000, 1421.000000, 8138.000000, 8181.000000, 8166.000000
2548, 20565920.000000, 1404.500000, 8144.000000, 8173.000000, 8162.000000
2549, 20566080.000000, 1384.000000, 8147.000000, 8173.000000, 8164.000000
2550, 20566240.000000, 1352.500000, 8143.000000, 8177.000000, 8164.000000
2551, 20566400.000000, 1332.000000, 8136.000000, 8180.000000, 8164.000000
2552, 20566560.000000, 1476.000000, 8134.000000, 8175.000000, 8162.000000
2553, 20566720.000000, 1883.000000, 8144.000000, 8172.000000, 8157.000000
2554, 20566880.000000, 2351.500000, 8144.000000, 8174.000000, 8157.000000
2555, 20567040.000000, 2743.000000, 8146.000000, 8176.000000, 8159.000000
2556, 20567200.000000, 2965.000000, 8136.000000, 8176.000000, 8164.000000
2557, 20567360.000000, 3027.000000, 8147.000000, 8174.000000, 8163.000000
2558, 20567520.000000, 2954.500000, 8162.000000, 8184.000000, 8179.000000
2559, 20567680.000000, 2828.000000, 8165.000000, 8183.000000, 8192.000000
2560, 20567840.000000, 2726.000000, 8168.000000, 8176.000000, 8179.000000
2561, 20568000.000000, 2636.000000, 8157.000000, 8178.000000, 8168.000000
2562, 20568160.000000, 2543.000000, 8154.000000, 8171.000000, 8159.000000
2563, 20568320.000000, 2434.000000, 8155.000000, 8193.000000, 8172.000000
2564, 20568480.000000, 2305.000000, 8334.000000, 8307.000000, 8377.000000
2565, 20568640.000000, 2161.000000, 8522.000000, 7670.000000, 7839.000000
2566, 20568800.000000, 2071.500000, 7984.000000, 7902.000000, 7783.000000
2567, 20568960.000000, 2028.000000, 8155.000000, 8210.000000, 8193.000000
2568, 20569120.000000, 2024.500000, 8181.000000, 8236.000000, 8234.000000
2569, 20569280.000000, 2029.000000, 8181.000000, 8250.000000, 8250.000000
2570, 20569440.000000, 2014.500000, 8200.000000, 8252.000000, 8260.000000
2571, 20569600.000000, 1979.000000, 8214.000000, 8262.000000, 8274.000000
2572, 20569760.000000, 1923.500000, 8229.000000, 8270.000000, 8292.000000
2573, 20569920.000000, 1857.000000, 8253.000000, 8285.000000, 8315.000000
2574, 20570080.000000, 1784.500000, 8285.000000, 8303.000000, 8348.000000
2575, 20570240.000000, 1706.000000, 8317.000000, 8318.000000, 8374.000000
2576, 20570400.000000, 1631.000000, 8339.000000, 8317.000000, 8378.000000
2577, 20570560.000000, 1560.000000, 8322.000000, 8290.000000, 8344.000000
2578, 20570720.000000, 1498.500000, 8256.000000, 8246.000000, 8278.000000
2579, 20570880.000000, 1445.000000, 8174.000000, 8204.000000, 8203.000000
2580, 20571040.000000, 1393.500000, 8133.000000, 8173.000000, 8153.000000
2581, 20571200.000000, 1347.000000, 8121.000000, 8166.000000, 8144.000000
2582, 20571360.000000, 1306.500000, 8114.000000, 8166.000000, 8143.000000
2583, 20571520.000000, 1278.000000, 8124.000000, 8172.000000, 8152.000000
2584, 20571680.000000, 1261.500000, 8138.000000, 8167.000000, 8154.000000
2585, 20571840.000000, 1251.000000, 8150.000000, 8176.000000, 8163.000000
2586, 20572000.000000, 1226.500000, 8148.000000, 8176.000000, 8160.000000
2587, 20572160.000000, 1189.000000, 8143.000000, 8182.000000, 8169.000000
2588, 20572320.000000, 1230.500000, 8147.000000, 8173.000000, 8166.000000
2589, 20572480.000000, 1446.000000, 8144.000000, 8172.000000, 8159.000000
2590, 20572640.000000, 1852.500000, 8146.000000, 8173.000000, 8160.000000
2591, 20572800.000000, 2290.000000, 8142.000000, 8175.000000, 8161.000000
2592, 20572960.000000, 2610.500000, 8145.000000, 8178.000000, 8160.000000
2593, 20573120.000000, 2760.000000, 8153.000000, 8181.000000, 8170.000000
2594, 20573280.000000, 2762.500000, 8152.000000, 8185.000000, 8174.000000
2595, 20573440.000000, 2690.000000, 8165.000000, 8178.000000, 8183.000000
2596, 20573600.000000, 2586.500000, 8157.000000, 8188.000000, 8180.000000
2597, 20573760.000000, 2489.000000, 8155.000000, 8172.000000, 8157.000000
2598, 20573920.000000, 2406.000000, 8159.000000, 8175.000000, 8158.000000
2599, 20574080.000000, 2324.000000, 8173.000000, 8309.000000, 8306.000000
2600, 20574240.000000, 2225.500000, 8595.000000, 7965.000000, 8159.000000
2601, 20574400.000000, 2117.000000, 7998.000000, 7812.000000, 7746.000000
2602, 20574560.000000, 2028.500000, 8093.000000, 8108.000000, 8029.000000
2603, 20574720.000000, 1974.000000, 8173.000000, 8224.000000, 8217.000000
2604, 20574880.000000, 1962.500000, 8185.000000, 8251.000000, 8244.000000
2605, 20575040.000000, 1977.000000, 8186.000000, 8251.000000, 8258.000000
2606, 20575200.000000, 1999.000000, 8215.000000, 8249.000000, 8263.000000
2607, 20575360.000000, 2011.000000, 8220.000000, 8266.000000, 8286.000000
2608, 20575520.000000, 2006.000000, 8249.000000, 8280.000000, 8303.000000
2609, 20575680.000000, 1977.000000, 8267.000000, 8303.000000, 8340.000000
2610, 20575840.000000, 1927.500000, 8311.000000, 8319.000000, 8377.000000
2611, 20576000.000000, 1867.000000, 8329.000000, 8328.000000, 8388.000000
2612, 20576160.000000, 1802.000000, 8320.000000, 8326.000000, 8384.000000
2613, 20576320.000000, 1738.000000, 8278.000000, 8274.000000, 8314.000000
2614, 20576480.000000, 1684.000000, 8211.000000, 8229.000000, 8239.000000
2615, 20576640.000000, 1638.000000, 8141.000000, 8187.000000, 8178.000000
2616, 20576800.000000, 1601.000000, 8125.000000, 8173.000000, 8154.000000
2617, 20576960.000000, 1570.000000, 8116.000000, 8174.000000, 8151.000000
2618, 20577120.000000, 1547.500000, 8131.000000, 8174.000000, 8153.000000
2619, 20577280.000000, 1532.000000, 8132.000000, 8173.000000, 8160.000000
2620, 20577440.000000, 1521.000000, 8140.000000, 8176.000000, 8165.000000
2621, 20577600.000000, 1504.000000, 8143.000000, 8179.000000, 8166.000000
2622, 20577760.000000, 1470.500000, 8143.000000, 8179.000000, 8168.000000
2623, 20577920.000000, 1451.000000, 8137.000000, 8178.000000, 8167.000000
2624, 20578080.000000, 1538.500000, 8146.000000, 8175.000000, 8160.000000
2625, 20578240.000000, 1817.000000, 8145.000000, 8180.000000, 8162.000000
2626, 20578400.000000, 2241.500000, 8143.000000, 8178.000000, 8165.000000
2627, 20578560.000000, 2656.000000, 8139.000000, 8187.000000, 8171.000000
2628, 20578720.000000, 2917.000000, 8149.000000, 8181.000000, 8168.000000
2629, 20578880.000000, 3022.000000, 8155.000000, 8191.000000, 8182.000000
2630, 20579040.000000, 2991.000000, 8161.000000, 8199.000000, 8203.000000
2631, 20579200.000000, 2887.000000, 8164.000000, 8188.000000, 8188.000000
2632, 20579360.000000, 2759.000000, 8164.000000, 8184.000000, 8177.000000
2633, 20579520.000000, 2634.000000, 8148.000000, 8184.000000, 8168.000000
2634, 20579680.000000, 2511.500000, 8152.000000, 8185.000000, 8168.000000
2635, 20579840.000000, 2384.000000, 8247.000000, 8356.000000, 8384.000000
2636, 20580000.000000, 2242.500000, 8587.000000, 7742.000000, 7946.000000
2637, 20580160.000000, 2120.000000, 7964.000000, 7855.000000, 7738.000000
2638, 20580320.000000, 2035.000000, 8137.000000, 8200.000000, 8165.000000
2639, 20580480.000000, 1997.000000, 8172.000000, 8250.000000, 8244.000000
2640, 20580640.000000, 1990.000000, 8183.000000, 8266.000000, 8265.000000
2641, 20580800.000000, 2000.000000, 8186.000000, 8274.000000, 8283.000000
2642, 20580960.000000, 2010.000000, 8204.000000, 8282.000000, 8297.000000
2643, 20581120.000000, 2006.000000, 8230.000000, 8288.000000, 8312.000000
2644, 20581280.000000, 1972.000000, 8246.000000, 8303.000000, 8334.000000
2645, 20581440.000000, 1915.000000, 8281.000000, 8328.000000, 8374.000000
2646, 20581600.000000, 1844.500000, 8313.000000, 8352.000000, 8410.000000
2647, 20581760.000000, 1769.000000, 8333.000000, 8354.000000, 8419.000000
2648, 20581920.000000, 1692.000000, 8329.000000, 8326.000000, 8386.000000
2649, 20582080.000000, 1616.000000, 8275.000000, 8277.000000, 8313.000000
2650, 20582240.000000, 1547.500000, 8197.000000, 8228.000000, 8232.000000
2651, 20582400.000000, 1493.000000, 8138.000000, 8194.000000, 8181.000000
2652, 20582560.000000, 1452.000000, 8118.000000, 8179.000000, 8157.000000
2653, 20582720.000000, 1419.000000, 8119.000000, 8176.000000, 8151.000000
2654, 20582880.000000, 1386.500000, 8130.000000, 8178.000000, 8158.000000
2655, 20583040.000000, 1349.000000, 8136.000000, 8177.000000, 8159.000000
2656, 20583200.000000, 1314.000000, 8144.000000, 8178.000000, 8165.000000
2657, 20583360.000000, 1272.000000, 8141.000000, 8177.000000, 8164.000000
2658, 20583520.000000, 1229.500000, 8145.000000, 8182.000000, 8166.000000
2659, 20583680.000000, 1231.000000, 8144.000000, 8171.000000, 8152.000000
2660, 20583840.000000, 1419.000000, 8145.000000, 8175.000000, 8159.000000
2661, 20584000.000000, 1798.000000, 8141.000000, 8174.000000, 8155.000000
2662, 20584160.000000, 2268.500000, 8149.000000, 8175.000000, 8154.000000
2663, 20584320.000000, 2641.000000, 8150.000000, 8165.000000, 8142.000000
2664, 20584480.000000, 2837.500000, 8158.000000, 8176.000000, 8157.000000
2665, 20584640.000000, 2877.000000, 8153.000000, 8177.000000, 8166.000000
2666, 20584800.000000, 2816.000000, 8171.000000, 8175.000000, 8176.000000
2667, 20584960.000000, 2713.000000, 8165.000000, 8170.000000, 8159.000000
2668, 20585120.000000, 2597.000000, 8162.000000, 8160.000000, 8133.000000
2669, 20585280.000000, 2490.000000, 8160.000000, 8155.000000, 8127.000000
2670, 20585440.000000, 2391.500000, 8157.000000, 8251.000000, 8213.000000
2671, 20585600.000000, 2288.000000, 8563.000000, 8056.000000, 8202.000000
2672, 20585760.000000, 2173.500000, 8237.000000, 7632.000000, 7641.000000
2673, 20585920.000000, 2072.000000, 8079.000000, 8021.000000, 7905.000000
2674, 20586080.000000, 2009.500000, 8181.000000, 8206.000000, 8178.000000
2675, 20586240.000000, 1987.000000, 8199.000000, 8231.000000, 8205.000000
2676, 20586400.000000, 1992.500000, 8201.000000, 8237.000000, 8218.000000
2677, 20586560.000000, 2008.000000, 8211.000000, 8240.000000, 8222.000000
2678, 20586720.000000, 2017.500000, 8231.000000, 8252.000000, 8235.000000
2679, 20586880.000000, 2010.000000, 8271.000000, 8264.000000, 8256.000000
2680, 20587040.000000, 1980.000000, 8293.000000, 8273.000000, 8279.000000
2681, 20587200.000000, 1936.000000, 8325.000000, 8303.000000, 8317.000000
2682, 20587360.000000, 1881.000000, 8359.000000, 8317.000000, 8339.000000
2683, 20587520.000000, 1821.000000, 8369.000000, 8301.000000, 8322.000000
2684, 20587680.000000, 1759.500000, 8327.000000, 8265.000000, 8274.000000
2685, 20587840.000000, 1698.000000, 8262.000000, 8195.000000, 8181.000000
2686, 20588000.000000, 1639.000000, 8178.000000, 8160.000000, 8104.000000
2687, 20588160.000000, 1583.000000, 8147.000000, 8138.000000, 8067.000000
2688, 20588320.000000, 1532.000000, 8144.000000, 8131.000000, 8060.000000
2689, 20588480.000000, 1482.000000, 8141.000000, 8133.000000, 8062.000000
2690, 20588640.000000, 1440.500000, 8158.000000, 8136.000000, 8067.000000
2691, 20588800.000000, 1411.000000, 8153.000000, 8136.000000, 8073.000000
2692, 20588960.000000, 1387.500000, 8170.000000, 8139.000000, 8074.000000
2693, 20589120.000000, 1361.000000, 8163.000000, 8137.000000, 8075.000000
2694, 20589280.000000, 1342.000000, 8165.000000, 8140.000000, 8071.000000
2695, 20589440.000000, 1422.000000, 8165.000000, 8135.000000, 8070.000000
2696, 20589600.000000, 1706.500000, 8154.000000, 8139.000000, 8067.000000
2697, 20589760.000000, 2178.000000, 8163.000000, 8133.000000, 8063.000000
2698, 20589920.000000, 2658.500000, 8159.000000, 8149.000000, 8082.000000
2699, 20590080.000000, 3015.000000, 8168.000000, 8152.000000, 8093.000000
2700, 20590240.000000, 3175.000000, 8169.000000, 8152.000000, 8092.000000
2701, 20590400.000000, 3197.000000, 8174.000000, 8154.000000, 8095.000000
2702, 20590560.000000, 3126.000000, 8154.000000, 8156.000000, 8088.000000
2703, 20590720.000000, 3022.000000, 8170.000000, 8163.000000, 8098.000000
2704, 20590880.000000, 2916.000000, 8216.000000, 8313.000000, 8276.000000
2705, 20591040.000000, 2822.000000, 8636.000000, 7837.000000, 8002.000000
2706, 20591200.000000, 2719.500000, 7984.000000, 7819.000000, 7686.000000
2707, 20591360.000000, 2589.000000, 8129.000000, 8135.000000, 8040.000000
2708, 20591520.000000, 2445.000000, 8184.000000, 8210.000000, 8164.000000
2709, 20591680.000000, 2324.000000, 8195.000000, 8226.000000, 8191.000000
2710, 20591840.000000, 2244.500000, 8205.000000, 8221.000000, 8193.000000
2711, 20592000.000000, 2211.000000, 8225.000000, 8226.000000, 8205.000000
2712, 20592160.000000, 2207.500000, 8234.000000, 8230.000000, 8217.000000
2713, 20592320.000000, 2211.000000, 8255.000000, 8243.000000, 8236.000000
2714, 20592480.000000, 2199.500000, 8289.000000, 8258.000000, 8270.000000
2715, 20592640.000000, 2166.000000, 8332.000000, 8281.000000, 8305.000000
2716, 20592800.000000, 2107.000000, 8354.000000, 8277.000000, 8308.000000
2717, 20592960.000000, 2037.000000, 8334.000000, 8260.000000, 8292.000000
2718, 20593120.000000, 1961.500000, 8290.000000, 8214.000000, 8226.000000
2719, 20593280.000000, 1887.000000, 8200.000000, 8165.000000, 8150.000000
2720, 20593440.000000, 1817.500000, 8161.000000, 8140.000000, 8107.000000
2721, 20593600.000000, 1746.000000, 8144.000000, 8128.000000, 8095.000000
2722, 20593760.000000, 1673.000000, 8137.000000, 8123.000000, 8092.000000
2723, 20593920.000000, 1608.000000, 8143.000000, 8127.000000, 8100.000000
2724, 20594080.000000, 1552.500000, 8151.000000, 8129.000000, 8109.000000
2725, 20594240.000000, 1509.000000, 8161.000000, 8125.000000, 8106.000000
2726, 20594400.000000, 1466.000000, 8171.000000, 8127.000000, 8114.000000
2727, 20594560.000000, 1409.000000, 8171.000000, 8136.000000, 8123.000000
2728, 20594720.000000, 1365.500000, 8172.000000, 8137.000000, 8125.000000
2729, 20594880.000000, 1416.000000, 8149.000000, 8139.000000, 8128.000000
2730, 20595040.000000, 1678.500000, 8152.000000, 8138.000000, 8138.000000
2731, 20595200.000000, 2093.000000, 8163.000000, 8143.000000, 8157.000000
2732, 20595360.000000, 2509.000000, 8169.000000, 8134.000000, 8152.000000
2733, 20595520.000000, 2790.000000, 8152.000000, 8132.000000, 8142.000000
2734, 20595680.000000, 2892.000000, 8151.000000, 8126.000000, 8128.000000
2735, 20595840.000000, 2868.000000, 8144.000000, 8143.000000, 8136.000000
2736, 20596000.000000, 2774.000000, 8290.000000, 8283.000000, 8347.000000
2737, 20596160.000000, 2664.000000, 8491.000000, 7742.000000, 7912.000000
2738, 20596320.000000, 2557.000000, 7974.000000, 7866.000000, 7752.000000
2739, 20596480.000000, 2456.000000, 8148.000000, 8156.000000, 8112.000000
2740, 20596640.000000, 2338.500000, 8179.000000, 8209.000000, 8186.000000
2741, 20596800.000000, 2201.000000, 8178.000000, 8213.000000, 8199.000000
2742, 20596960.000000, 2068.500000, 8187.000000, 8215.000000, 8201.000000
2743, 20597120.000000, 1979.000000, 8206.000000, 8216.000000, 8211.000000
2744, 20597280.000000, 1942.500000, 8217.000000, 8214.000000, 8218.000000
2745, 20597440.000000, 1945.000000, 8221.000000, 8233.000000, 8249.000000
2746, 20597600.000000, 1961.500000, 8267.000000, 8261.000000, 8292.000000
2747, 20597760.000000, 1968.000000, 8300.000000, 8274.000000, 8323.000000
2748, 20597920.000000, 1951.000000, 8299.000000, 8280.000000, 8326.000000
2749, 20598080.000000, 1919.000000, 8285.000000, 8267.000000, 8308.000000
2750, 20598240.000000, 1877.000000, 8213.000000, 8231.000000, 8246.000000
2751, 20598400.000000, 1830.000000, 8136.000000, 8193.000000, 8181.000000
2752, 20598560.000000, 1780.000000, 8109.000000, 8167.000000, 8149.000000
2753, 20598720.000000, 1731.000000, 8097.000000, 8165.000000, 8141.000000
2754, 20598880.000000, 1685.000000, 8096.000000, 8168.000000, 8145.000000
2755, 20599040.000000, 1645.000000, 8115.000000, 8178.000000, 8162.000000
2756, 20599200.000000, 1613.500000, 8122.000000, 8180.000000, 8167.000000
2757, 20599360.000000, 1586.000000, 8135.000000, 8187.000000, 8180.000000
2758, 20599520.000000, 1554.000000, 8139.000000, 8182.000000, 8174.000000
2759, 20599680.000000, 1515.000000, 8125.000000, 8186.000000, 8175.000000
2760, 20599840.000000, 1503.000000, 8133.000000, 8192.000000, 8184.000000
2761, 20600000.000000, 1605.000000, 8138.000000, 8202.000000, 8199.000000
2762, 20600160.000000, 1908.000000, 8135.000000, 8204.000000, 8205.000000
2763, 20600320.000000, 2335.000000, 8147.000000, 8204.000000, 8211.000000
2764, 20600480.000000, 2724.000000, 8150.000000, 8200.000000, 8197.000000
2765, 20600640.000000, 2970.000000, 8135.000000, 8193.000000, 8178.000000
2766, 20600800.000000, 3042.000000, 8135.000000, 8198.000000, 8183.000000
2767, 20600960.000000, 2995.000000, 8143.000000, 8304.000000, 8283.000000
2768, 20601120.000000, 2889.500000, 8564.000000, 8055.000000, 8222.000000
2769, 20601280.000000, 2775.000000, 8090.000000, 7758.000000, 7725.000000
2770, 20601440.000000, 2673.500000, 8049.000000, 8077.000000, 7981.000000
2771, 20601600.000000, 2577.000000, 8145.000000, 8255.000000, 8233.000000
2772, 20601760.000000, 2466.500000, 8162.000000, 8263.000000, 8252.000000
2773, 20601920.000000, 2350.000000, 8168.000000, 8270.000000, 8265.000000
2774, 20602080.000000, 2254.000000, 8184.000000, 8279.000000, 8279.000000
2775, 20602240.000000, 2196.000000, 8207.000000, 8281.000000, 8294.000000
2776, 20602400.000000, 2180.000000, 8231.000000, 8294.000000, 8315.000000
2777, 20602560.000000, 2196.000000, 8253.000000, 8314.000000, 8346.000000
2778, 20602720.000000, 2212.000000, 8295.000000, 8333.000000, 8379.000000
2779, 20602880.000000, 2208.000000, 8318.000000, 8344.000000, 8399.000000
