1922, 10670320.000000, 1774.000000, 8264.000000, 8298.000000, 8329.000000
1923, 10670480.000000, 1791.250000, 8282.000000, 8312.000000, 8351.000000
1924, 10670640.000000, 1795.500000, 8280.000000, 8314.000000, 8350.000000
1925, 10670800.000000, 1776.250000, 8267.000000, 8303.000000, 8334.000000
1926, 10670960.000000, 1732.000000, 8232.000000, 8257.000000, 8273.000000
1927, 10671120.000000, 1672.000000, 8185.000000, 8198.000000, 8195.000000
1928, 10671280.000000, 1602.000000, 8149.000000, 8163.000000, 8146.000000
1929, 10671440.000000, 1532.250000, 8137.000000, 8153.000000, 8132.000000
1930, 10671600.000000, 1467.250000, 8137.000000, 8155.000000, 8134.000000
1931, 10671760.000000, 1411.000000, 8144.000000, 8158.000000, 8141.000000
1932, 10671920.000000, 1365.250000, 8153.000000, 8159.000000, 8146.000000
1933, 10672080.000000, 1330.250000, 8153.000000, 8159.000000, 8146.000000
1934, 10672240.000000, 1303.500000, 8153.000000, 8158.000000, 8145.000000
1935, 10672400.000000, 1276.750000, 8154.000000, 8161.000000, 8149.000000
1936, 10672560.000000, 1245.250000, 8153.000000, 8161.000000, 8146.000000
1937, 10672720.000000, 1219.750000, 8154.000000, 8159.000000, 8143.000000
1938, 10672880.000000, 1257.250000, 8152.000000, 8158.000000, 8139.000000
1939, 10673040.000000, 1460.500000, 8153.000000, 8160.000000, 8143.000000
1940, 10673200.000000, 1831.250000, 8153.000000, 8163.000000, 8146.000000
1941, 10673360.000000, 2276.250000, 8163.000000, 8175.000000, 8169.000000
1942, 10673520.000000, 2646.250000, 8169.000000, 8181.000000, 8183.000000
1943, 10673680.000000, 2868.000000, 8175.000000, 8174.000000, 8174.000000
1944, 10673840.000000, 2919.250000, 8167.000000, 8169.000000, 8158.000000
1945, 10674000.000000, 2851.250000, 8157.000000, 8163.000000, 8145.000000
1946, 10674160.000000, 2720.250000, 8162.000000, 8166.000000, 8147.000000
1947, 10674320.000000, 2568.500000, 8225.000000, 8325.000000, 8334.000000
1948, 10674480.000000, 2410.250000, 8536.000000, 7639.000000, 7829.000000
1949, 10674640.000000, 2245.750000, 7970.000000, 7775.000000, 7654.000000
1950, 10674800.000000, 2095.750000, 8175.000000, 8210.000000, 8196.000000
1951, 10674960.000000, 1981.750000, 8183.000000, 8257.000000, 8250.000000
1952, 10675120.000000, 1919.500000, 8193.000000, 8269.000000, 8265.000000
1953, 10675280.000000, 1896.750000, 8205.000000, 8274.000000, 8278.000000
1954, 10675440.000000, 1900.000000, 8216.000000, 8282.000000, 8291.000000
1955, 10675600.000000, 1908.250000, 8231.000000, 8291.000000, 8308.000000
1956, 10675760.000000, 1902.500000, 8252.000000, 8306.000000, 8331.000000
1957, 10675920.000000, 1871.250000, 8272.000000, 8322.000000, 8354.000000
1958, 10676080.000000, 1815.500000, 8282.000000, 8333.000000, 8368.000000
1959, 10676240.000000, 1739.750000, 8278.000000, 8331.000000, 8365.000000
1960, 10676400.000000, 1657.250000, 8260.000000, 8311.000000, 8339.000000
1961, 10676560.000000, 1577.250000, 8221.000000, 8259.000000, 8271.000000
1962, 10676720.000000, 1502.250000, 8176.000000, 8205.000000, 8196.000000
1963, 10676880.000000, 1439.250000, 8147.000000, 8176.000000, 8157.000000
1964, 10677040.000000, 1386.750000, 8138.000000, 8171.000000, 8150.000000
1965, 10677200.000000, 1343.500000, 8141.000000, 8175.000000, 8156.000000
1966, 10677360.000000, 1310.250000, 8149.000000, 8176.000000, 8159.000000
1967, 10677520.000000, 1285.250000, 8154.000000, 8175.000000, 8159.000000
1968, 10677680.000000, 1268.500000, 8155.000000, 8174.000000, 8159.000000
1969, 10677840.000000, 1255.500000, 8155.000000, 8173.000000, 8158.000000
1970, 10678000.000000, 1235.500000, 8154.000000, 8175.000000, 8159.000000
1971, 10678160.000000, 1205.750000, 8155.000000, 8173.000000, 8158.000000
1972, 10678320.000000, 1189.000000, 8155.000000, 8172.000000, 8153.000000
1973, 10678480.000000, 1265.750000, 8154.000000, 8171.000000, 8153.000000
1974, 10678640.000000, 1532.250000, 8153.000000, 8173.000000, 8156.000000
1975, 10678800.000000, 1959.250000, 8155.000000, 8174.000000, 8157.000000
1976, 10678960.000000, 2424.250000, 8158.000000, 8177.000000, 8160.000000
1977, 10679120.000000, 2782.750000, 8168.000000, 8185.000000, 8180.000000
1978, 10679280.000000, 2972.250000, 8170.000000, 8189.000000, 8189.000000
1979, 10679440.000000, 2987.250000, 8174.000000, 8186.000000, 8187.000000
1980, 10679600.000000, 2891.000000, 8171.000000, 8182.000000, 8173.000000
1981, 10679760.000000, 2739.500000, 8163.000000, 8174.000000, 8156.000000
1982, 10679920.000000, 2572.750000, 8167.000000, 8174.000000, 8155.000000
1983, 10680080.000000, 2400.250000, 8202.000000, 8315.000000, 8309.000000
1984, 10680240.000000, 2223.500000, 8586.000000, 7791.000000, 7985.000000
1985, 10680400.000000, 2073.000000, 7982.000000, 7761.000000, 7662.000000
1986, 10680560.000000, 1971.250000, 8168.000000, 8191.000000, 8164.000000
1987, 10680720.000000, 1921.500000, 8188.000000, 8256.000000, 8247.000000
1988, 10680880.000000, 1910.750000, 8190.000000, 8270.000000, 8264.000000
1989, 10681040.000000, 1920.000000, 8201.000000, 8277.000000, 8278.000000
1990, 10681200.000000, 1924.250000, 8213.000000, 8285.000000, 8290.000000
1991, 10681360.000000, 1908.500000, 8232.000000, 8292.000000, 8304.000000
1992, 10681520.000000, 1865.000000, 8251.000000, 8302.000000, 8322.000000
1993, 10681680.000000, 1800.500000, 8268.000000, 8317.000000, 8343.000000
1994, 10681840.000000, 1723.750000, 8280.000000, 8330.000000, 8360.000000
1995, 10682000.000000, 1641.750000, 8275.000000, 8328.000000, 8356.000000
1996, 10682160.000000, 1549.250000, 8261.000000, 8309.000000, 8332.000000
1997, 10682320.000000, 1457.250000, 8228.000000, 8266.000000, 8275.000000
1998, 10682480.000000, 1398.000000, 8182.000000, 8212.000000, 8203.000000
1999, 10682640.000000, 1354.500000, 8149.000000, 8182.000000, 8163.000000
2000, 10682800.000000, 1317.500000, 8141.000000, 8177.000000, 8156.000000
2001, 10682960.000000, 1289.500000, 8147.000000, 8176.000000, 8157.000000
2002, 10683120.000000, 1276.500000, 8155.000000, 8178.000000, 8159.000000
2003, 10683280.000000, 1268.250000, 8158.000000, 8179.000000, 8162.000000
2004, 10683440.000000, 1258.250000, 8158.000000, 8181.000000, 8166.000000
2005, 10683600.000000, 1240.500000, 8159.000000, 8183.000000, 8168.000000
2006, 10683760.000000, 1210.500000, 8159.000000, 8180.000000, 8165.000000
2007, 10683920.000000, 1194.500000, 8159.000000, 8178.000000, 8161.000000
2008, 10684080.000000, 1278.500000, 8155.000000, 8177.000000, 8158.000000
2009, 10684240.000000, 1539.000000, 8154.000000, 8177.000000, 8159.000000
2010, 10684400.000000, 1957.750000, 8156.000000, 8179.000000, 8162.000000
2011, 10684560.000000, 2404.000000, 8159.000000, 8179.000000, 8162.000000
2012, 10684720.000000, 2748.750000, 8165.000000, 8183.000000, 8170.000000
2013, 10684880.000000, 2923.250000, 8168.000000, 8187.000000, 8180.000000
2014, 10685040.000000, 2930.250000, 8174.000000, 8188.000000, 8191.000000
2015, 10685200.000000, 2822.250000, 8177.000000, 8187.000000, 8182.000000
2016, 10685360.000000, 2650.250000, 8165.000000, 8177.000000, 8160.000000
2017, 10685520.000000, 2458.250000, 8169.000000, 8175.000000, 8157.000000
2018, 10685680.000000, 2260.000000, 8190.000000, 8288.000000, 8276.000000
2019, 10685840.000000, 2074.500000, 8573.000000, 7991.000000, 8170.000000
2020, 10686000.000000, 1936.000000, 7997.000000, 7789.000000, 7722.000000
2021, 10686160.000000, 1862.500000, 8137.000000, 8133.000000, 8076.000000
2022, 10686320.000000, 1852.000000, 8185.000000, 8241.000000, 8230.000000
2023, 10686480.000000, 1877.750000, 8193.000000, 8255.000000, 8249.000000
2024, 10686640.000000, 1916.250000, 8201.000000, 8264.000000, 8263.000000
2025, 10686800.000000, 1937.500000, 8214.000000, 8271.000000, 8275.000000
2026, 10686960.000000, 1930.250000, 8231.000000, 8280.000000, 8291.000000
2027, 10687120.000000, 1886.250000, 8248.000000, 8293.000000, 8311.000000
2028, 10687280.000000, 1821.250000, 8265.000000, 8310.000000, 8334.000000
2029, 10687440.000000, 1743.750000, 8275.000000, 8323.000000, 8351.000000
2030, 10687600.000000, 1661.250000, 8273.000000, 8323.000000, 8350.000000
2031, 10687760.000000, 1584.750000, 8254.000000, 8305.000000, 8325.000000
2032, 10687920.000000, 1515.750000, 8222.000000, 8262.000000, 8271.000000
2033, 10688080.000000, 1455.750000, 8180.000000, 8210.000000, 8205.000000
2034, 10688240.000000, 1406.500000, 8145.000000, 8182.000000, 8164.000000
2035, 10688400.000000, 1368.750000, 8135.000000, 8174.000000, 8155.000000
2036, 10688560.000000, 1339.500000, 8143.000000, 8174.000000, 8157.000000
2037, 10688720.000000, 1320.500000, 8149.000000, 8173.000000, 8158.000000
2038, 10688880.000000, 1308.000000, 8154.000000, 8174.000000, 8162.000000
2039, 10689040.000000, 1294.500000, 8153.000000, 8175.000000, 8164.000000
2040, 10689200.000000, 1277.000000, 8155.000000, 8172.000000, 8161.000000
2041, 10689360.000000, 1250.750000, 8155.000000, 8171.000000, 8158.000000
2042, 10689520.000000, 1219.750000, 8154.000000, 8169.000000, 8155.000000
2043, 10689680.000000, 1224.000000, 8152.000000, 8168.000000, 8153.000000
2044, 10689840.000000, 1342.500000, 8152.000000, 8170.000000, 8157.000000
2045, 10690000.000000, 1635.750000, 8154.000000, 8171.000000, 8159.000000
2046, 10690160.000000, 2051.500000, 8157.000000, 8171.000000, 8157.000000
2047, 10690320.000000, 2450.500000, 8158.000000, 8170.000000, 8157.000000
2048, 10690480.000000, 2719.500000, 8161.000000, 8178.000000, 8171.000000
2049, 10690640.000000, 2824.750000, 8166.000000, 8185.000000, 8185.000000
2050, 10690800.000000, 2788.250000, 8173.000000, 8185.000000, 8195.000000
2051, 10690960.000000, 2650.000000, 8177.000000, 8181.000000, 8180.000000
2052, 10691120.000000, 2461.750000, 8163.000000, 8170.000000, 8156.000000
2053, 10691280.000000, 2245.750000, 8163.000000, 8169.000000, 8155.000000
2054, 10691440.000000, 2027.250000, 8183.000000, 8293.000000, 8282.000000
2055, 10691600.000000, 1845.500000, 8543.000000, 7895.000000, 8072.000000
2056, 10691760.000000, 1739.750000, 8001.000000, 7714.000000, 7638.000000
2057, 10691920.000000, 1712.000000, 8153.000000, 8160.000000, 8125.000000
2058, 10692080.000000, 1738.750000, 8182.000000, 8252.000000, 8247.000000
2059, 10692240.000000, 1791.250000, 8191.000000, 8270.000000, 8272.000000
2060, 10692400.000000, 1836.500000, 8202.000000, 8278.000000, 8284.000000
2061, 10692560.000000, 1855.500000, 8214.000000, 8284.000000, 8294.000000
2062, 10692720.000000, 1832.750000, 8229.000000, 8293.000000, 8309.000000
2063, 10692880.000000, 1782.500000, 8244.000000, 8307.000000, 8331.000000
2064, 10693040.000000, 1710.750000, 8264.000000, 8327.000000, 8360.000000
2065, 10693200.000000, 1630.000000, 8280.000000, 8343.000000, 8381.000000
2066, 10693360.000000, 1552.500000, 8280.000000, 8344.000000, 8380.000000
2067, 10693520.000000, 1481.500000, 8261.000000, 8324.000000, 8353.000000
2068, 10693680.000000, 1419.750000, 8226.000000, 8276.000000, 8290.000000
2069, 10693840.000000, 1367.250000, 8183.000000, 8217.000000, 8216.000000
2070, 10694000.000000, 1324.750000, 8150.000000, 8186.000000, 8171.000000
2071, 10694160.000000, 1289.750000, 8140.000000, 8173.000000, 8152.000000
2072, 10694320.000000, 1260.500000, 8142.000000, 8172.000000, 8154.000000
2073, 10694480.000000, 1239.250000, 8148.000000, 8174.000000, 8160.000000
2074, 10694640.000000, 1224.250000, 8151.000000, 8175.000000, 8163.000000
2075, 10694800.000000, 1215.250000, 8154.000000, 8176.000000, 8164.000000
2076, 10694960.000000, 1204.500000, 8157.000000, 8173.000000, 8159.000000
2077, 10695120.000000, 1182.750000, 8156.000000, 8171.000000, 8156.000000
2078, 10695280.000000, 1156.000000, 8155.000000, 8170.000000, 8155.000000
2079, 10695440.000000, 1183.000000, 8153.000000, 8171.000000, 8156.000000
2080, 10695600.000000, 1374.750000, 8152.000000, 8172.000000, 8155.000000
2081, 10695760.000000, 1772.750000, 8157.000000, 8170.000000, 8154.000000
2082, 10695920.000000, 2284.250000, 8159.000000, 8170.000000, 8155.000000
2083, 10696080.000000, 2736.250000, 8158.000000, 8171.000000, 8156.000000
2084, 10696240.000000, 3025.000000, 8160.000000, 8177.000000, 8165.000000
2085, 10696400.000000, 3115.750000, 8165.000000, 8186.000000, 8181.000000
2086, 10696560.000000, 3041.750000, 8177.000000, 8188.000000, 8197.000000
2087, 10696720.000000, 2870.500000, 8176.000000, 8182.000000, 8179.000000
2088, 10696880.000000, 2655.250000, 8164.000000, 8172.000000, 8157.000000
2089, 10697040.000000, 2428.000000, 8160.000000, 8168.000000, 8150.000000
2090, 10697200.000000, 2201.250000, 8165.000000, 8240.000000, 8211.000000
2091, 10697360.000000, 2009.250000, 8485.000000, 8062.000000, 8198.000000
2092, 10697520.000000, 1884.000000, 8212.000000, 7552.000000, 7584.000000
2093, 10697680.000000, 1834.750000, 8105.000000, 8057.000000, 7992.000000
2094, 10697840.000000, 1842.500000, 8182.000000, 8235.000000, 8230.000000
2095, 10698000.000000, 1881.250000, 8190.000000, 8256.000000, 8254.000000
2096, 10698160.000000, 1918.750000, 8201.000000, 8261.000000, 8264.000000
2097, 10698320.000000, 1930.250000, 8210.000000, 8266.000000, 8273.000000
2098, 10698480.000000, 1907.750000, 8225.000000, 8275.000000, 8290.000000
2099, 10698640.000000, 1849.000000, 8242.000000, 8289.000000, 8313.000000
2100, 10698800.000000, 1771.500000, 8261.000000, 8308.000000, 8339.000000
2101, 10698960.000000, 1680.750000, 8281.000000, 8323.000000, 8361.000000
2102, 10699120.000000, 1590.000000, 8282.000000, 8326.000000, 8363.000000
2103, 10699280.000000, 1504.250000, 8266.000000, 8318.000000, 8350.000000
2104, 10699440.000000, 1431.000000, 8239.000000, 8279.000000, 8299.000000
2105, 10699600.000000, 1368.500000, 8195.000000, 8222.000000, 8223.000000
2106, 10699760.000000, 1317.750000, 8156.000000, 8181.000000, 8166.000000
2107, 10699920.000000, 1277.750000, 8138.000000, 8167.000000, 8146.000000
2108, 10700080.000000, 1247.750000, 8137.000000, 8168.000000, 8147.000000
2109, 10700240.000000, 1225.500000, 8142.000000, 8172.000000, 8154.000000
2110, 10700400.000000, 1212.250000, 8151.000000, 8173.000000, 8159.000000
2111, 10700560.000000, 1203.250000, 8153.000000, 8172.000000, 8157.000000
2112, 10700720.000000, 1195.000000, 8152.000000, 8170.000000, 8153.000000
2113, 10700880.000000, 1179.500000, 8151.000000, 8170.000000, 8152.000000
2114, 10701040.000000, 1151.000000, 8150.000000, 8169.000000, 8152.000000
2115, 10701200.000000, 1147.000000, 8152.000000, 8168.000000, 8149.000000
2116, 10701360.000000, 1261.750000, 8154.000000, 8167.000000, 8149.000000
2117, 10701520.000000, 1592.250000, 8154.000000, 8166.000000, 8146.000000
2118, 10701680.000000, 2094.000000, 8153.000000, 8167.000000, 8150.000000
2119, 10701840.000000, 2604.250000, 8155.000000, 8169.000000, 8152.000000
2120, 10702000.000000, 2968.500000, 8159.000000, 8171.000000, 8156.000000
2121, 10702160.000000, 3131.000000, 8169.000000, 8180.000000, 8174.000000
2122, 10702320.000000, 3109.500000, 8171.000000, 8183.000000, 8182.000000
2123, 10702480.000000, 2956.250000, 8175.000000, 8178.000000, 8176.000000
2124, 10702640.000000, 2744.500000, 8173.000000, 8177.000000, 8168.000000
2125, 10702800.000000, 2511.250000, 8166.000000, 8170.000000, 8154.000000
2126, 10702960.000000, 2275.250000, 8167.000000, 8178.000000, 8155.000000
2127, 10703120.000000, 2059.250000, 8290.000000, 8320.000000, 8360.000000
2128, 10703280.000000, 1896.000000, 8539.000000, 7673.000000, 7865.000000
2129, 10703440.000000, 1807.750000, 7981.000000, 7875.000000, 7756.000000
2130, 10703600.000000, 1789.500000, 8182.000000, 8217.000000, 8204.000000
2131, 10703760.000000, 1819.500000, 8191.000000, 8252.000000, 8247.000000
2132, 10703920.000000, 1864.000000, 8200.000000, 8262.000000, 8264.000000
2133, 10704080.000000, 1894.500000, 8207.000000, 8270.000000, 8275.000000
2134, 10704240.000000, 1892.000000, 8221.000000, 8279.000000, 8289.000000
2135, 10704400.000000, 1851.750000, 8239.000000, 8288.000000, 8306.000000
2136, 10704560.000000, 1781.000000, 8256.000000, 8301.000000, 8325.000000
2137, 10704720.000000, 1691.750000, 8271.000000, 8317.000000, 8347.000000
2138, 10704880.000000, 1599.250000, 8280.000000, 8327.000000, 8359.000000
2139, 10705040.000000, 1509.250000, 8274.000000, 8322.000000, 8352.000000
2140, 10705200.000000, 1428.500000, 8256.000000, 8301.000000, 8325.000000
2141, 10705360.000000, 1361.000000, 8218.000000, 8253.000000, 8263.000000
2142, 10705520.000000, 1307.000000, 8176.000000, 8204.000000, 8197.000000
2143, 10705680.000000, 1265.750000, 8147.000000, 8182.000000, 8167.000000
2144, 10705840.000000, 1236.500000, 8141.000000, 8178.000000, 8161.000000
2145, 10706000.000000, 1216.250000, 8149.000000, 8178.000000, 8163.000000
2146, 10706160.000000, 1202.000000, 8155.000000, 8178.000000, 8165.000000
2147, 10706320.000000, 1196.500000, 8158.000000, 8178.000000, 8165.000000
2148, 10706480.000000, 1191.500000, 8158.000000, 8177.000000, 8166.000000
2149, 10706640.000000, 1184.750000, 8157.000000, 8178.000000, 8166.000000
2150, 10706800.000000, 1166.500000, 8154.000000, 8178.000000, 8164.000000
2151, 10706960.000000, 1140.000000, 8154.000000, 8177.000000, 8163.000000
2152, 10707120.000000, 1140.250000, 8152.000000, 8177.000000, 8160.000000
2153, 10707280.000000, 1277.500000, 8151.000000, 8179.000000, 8163.000000
2154, 10707440.000000, 1620.500000, 8152.000000, 8181.000000, 8166.000000
2155, 10707600.000000, 2114.500000, 8155.000000, 8181.000000, 8166.000000
2156, 10707760.000000, 2586.500000, 8166.000000, 8190.000000, 8186.000000
2157, 10707920.000000, 2905.250000, 8167.000000, 8194.000000, 8196.000000
2158, 10708080.000000, 3022.000000, 8173.000000, 8186.000000, 8188.000000
2159, 10708240.000000, 2974.500000, 8168.000000, 8184.000000, 8175.000000
2160, 10708400.000000, 2806.500000, 8162.000000, 8176.000000, 8161.000000
2161, 10708560.000000, 2581.500000, 8164.000000, 8187.000000, 8164.000000
2162, 10708720.000000, 2334.000000, 8313.000000, 8319.000000, 8371.000000
2163, 10708880.000000, 2084.000000, 8491.000000, 7698.000000, 7874.000000
2164, 10709040.000000, 1867.750000, 7983.000000, 7901.000000, 7787.000000
2165, 10709200.000000, 1728.250000, 8178.000000, 8218.000000, 8206.000000
2166, 10709360.000000, 1679.250000, 8186.000000, 8248.000000, 8243.000000
2167, 10709520.000000, 1703.250000, 8195.000000, 8257.000000, 8258.000000
2168, 10709680.000000, 1765.250000, 8203.000000, 8263.000000, 8269.000000
2169, 10709840.000000, 1829.000000, 8217.000000, 8271.000000, 8281.000000
2170, 10710000.000000, 1866.750000, 8235.000000, 8280.000000, 8298.000000
2171, 10710160.000000, 1861.250000, 8251.000000, 8295.000000, 8319.000000
2172, 10710320.000000, 1818.000000, 8269.000000, 8313.000000, 8345.000000
2173, 10710480.000000, 1743.500000, 8275.000000, 8324.000000, 8358.000000
2174, 10710640.000000, 1653.250000, 8268.000000, 8320.000000, 8350.000000
2175, 10710800.000000, 1559.000000, 8246.000000, 8290.000000, 8311.000000
2176, 10710960.000000, 1473.250000, 8210.000000, 8237.000000, 8244.000000
2177, 10711120.000000, 1398.500000, 8167.000000, 8189.000000, 8180.000000
2178, 10711280.000000, 1336.000000, 8139.000000, 8168.000000, 8150.000000
2179, 10711440.000000, 1285.250000, 8135.000000, 8165.000000, 8146.000000
2180, 10711600.000000, 1244.500000, 8144.000000, 8165.000000, 8150.000000
2181, 10711760.000000, 1215.000000, 8150.000000, 8167.000000, 8154.000000
2182, 10711920.000000, 1197.500000, 8150.000000, 8166.000000, 8153.000000
2183, 10712080.000000, 1186.000000, 8152.000000, 8167.000000, 8154.000000
2184, 10712240.000000, 1176.000000, 8151.000000, 8167.000000, 8153.000000
2185, 10712400.000000, 1161.000000, 8152.000000, 8167.000000, 8152.000000
2186, 10712560.000000, 1136.750000, 8151.000000, 8166.000000, 8150.000000
2187, 10712720.000000, 1131.000000, 8152.000000, 8167.000000, 8152.000000
2188, 10712880.000000, 1230.750000, 8150.000000, 8168.000000, 8153.000000
2189, 10713040.000000, 1528.750000, 8153.000000, 8170.000000, 8155.000000
2190, 10713200.000000, 1995.500000, 8155.000000, 8171.000000, 8156.000000
2191, 10713360.000000, 2476.500000, 8157.000000, 8170.000000, 8156.000000
2192, 10713520.000000, 2817.250000, 8162.000000, 8180.000000, 8175.000000
2193, 10713680.000000, 2969.750000, 8164.000000, 8185.000000, 8185.000000
2194, 10713840.000000, 2951.000000, 8171.000000, 8182.000000, 8185.000000
2195, 10714000.000000, 2804.000000, 8171.000000, 8179.000000, 8172.000000
2196, 10714160.000000, 2590.500000, 8161.000000, 8169.000000, 8152.000000
2197, 10714320.000000, 2343.250000, 8160.000000, 8172.000000, 8152.000000
2198, 10714480.000000, 2085.500000, 8223.000000, 8329.000000, 8339.000000
2199, 10714640.000000, 1852.750000, 8550.000000, 7714.000000, 7910.000000
2200, 10714800.000000, 1692.750000, 7966.000000, 7800.000000, 7687.000000
2201, 10714960.000000, 1628.000000, 8176.000000, 8204.000000, 8191.000000
2202, 10715120.000000, 1643.000000, 8186.000000, 8252.000000, 8251.000000
2203, 10715280.000000, 1703.000000, 8190.000000, 8267.000000, 8269.000000
2204, 10715440.000000, 1772.500000, 8201.000000, 8275.000000, 8282.000000
2205, 10715600.000000, 1821.750000, 8218.000000, 8281.000000, 8295.000000
2206, 10715760.000000, 1829.000000, 8232.000000, 8289.000000, 8307.000000
2207, 10715920.000000, 1798.750000, 8248.000000, 8304.000000, 8330.000000
2208, 10716080.000000, 1736.250000, 8266.000000, 8326.000000, 8360.000000
2209, 10716240.000000, 1653.000000, 8280.000000, 8341.000000, 8379.000000
2210, 10716400.000000, 1563.000000, 8272.000000, 8340.000000, 8374.000000
2211, 10716560.000000, 1474.750000, 8253.000000, 8317.000000, 8343.000000
2212, 10716720.000000, 1395.500000, 8219.000000, 8264.000000, 8277.000000
2213, 10716880.000000, 1329.500000, 8179.000000, 8209.000000, 8206.000000
2214, 10717040.000000, 1279.500000, 8148.000000, 8181.000000, 8165.000000
2215, 10717200.000000, 1238.500000, 8141.000000, 8173.000000, 8156.000000
2216, 10717360.000000, 1206.750000, 8145.000000, 8172.000000, 8156.000000
2217, 10717520.000000, 1184.250000, 8150.000000, 8174.000000, 8161.000000
2218, 10717680.000000, 1170.000000, 8152.000000, 8175.000000, 8162.000000
2219, 10717840.000000, 1162.750000, 8155.000000, 8175.000000, 8162.000000
2220, 10718000.000000, 1157.750000, 8156.000000, 8174.000000, 8161.000000
2221, 10718160.000000, 1147.000000, 8155.000000, 8171.000000, 8156.000000
2222, 10718320.000000, 1121.000000, 8153.000000, 8170.000000, 8155.000000
2223, 10718480.000000, 1114.250000, 8151.000000, 8173.000000, 8157.000000
2224, 10718640.000000, 1244.000000, 8154.000000, 8173.000000, 8157.000000
2225, 10718800.000000, 1607.500000, 8158.000000, 8173.000000, 8158.000000
2226, 10718960.000000, 2153.250000, 8158.000000, 8172.000000, 8157.000000
2227, 10719120.000000, 2689.500000, 8159.000000, 8174.000000, 8161.000000
2228, 10719280.000000, 3066.000000, 8168.000000, 8187.000000, 8186.000000
2229, 10719440.000000, 3224.750000, 8172.000000, 8191.000000, 8197.000000
2230, 10719600.000000, 3187.250000, 8179.000000, 8183.000000, 8185.000000
2231, 10719760.000000, 3023.000000, 8168.000000, 8176.000000, 8165.000000
2232, 10719920.000000, 2787.750000, 8162.000000, 8170.000000, 8153.000000
2233, 10720080.000000, 2529.500000, 8160.000000, 8191.000000, 8163.000000
2234, 10720240.000000, 2268.500000, 8342.000000, 8274.000000, 8335.000000
2235, 10720400.000000, 2030.750000, 8463.000000, 7535.000000, 7699.000000
2236, 10720560.000000, 1853.000000, 8008.000000, 7917.000000, 7802.000000
2237, 10720720.000000, 1763.000000, 8181.000000, 8238.000000, 8230.000000
2238, 10720880.000000, 1751.750000, 8186.000000, 8267.000000, 8264.000000
2239, 10721040.000000, 1788.000000, 8194.000000, 8277.000000, 8277.000000
2240, 10721200.000000, 1838.250000, 8207.000000, 8281.000000, 8286.000000
2241, 10721360.000000, 1871.250000, 8221.000000, 8287.000000, 8299.000000
2242, 10721520.000000, 1870.750000, 8237.000000, 8297.000000, 8316.000000
2243, 10721680.000000, 1826.750000, 8254.000000, 8313.000000, 8341.000000
2244, 10721840.000000, 1751.500000, 8273.000000, 8333.000000, 8368.000000
2245, 10722000.000000, 1657.000000, 8280.000000, 8341.000000, 8377.000000
2246, 10722160.000000, 1555.250000, 8269.000000, 8334.000000, 8366.000000
2247, 10722320.000000, 1456.750000, 8246.000000, 8304.000000, 8327.000000
2248, 10722480.000000, 1368.500000, 8206.000000, 8248.000000, 8256.000000
2249, 10722640.000000, 1293.000000, 8169.000000, 8198.000000, 8190.000000
2250, 10722800.000000, 1230.500000, 8147.000000, 8176.000000, 8159.000000
2251, 10722960.000000, 1179.500000, 8140.000000, 8172.000000, 8151.000000
2252, 10723120.000000, 1138.750000, 8146.000000, 8174.000000, 8157.000000
2253, 10723280.000000, 1108.750000, 8152.000000, 8176.000000, 8161.000000
2254, 10723440.000000, 1087.750000, 8158.000000, 8177.000000, 8164.000000
2255, 10723600.000000, 1072.500000, 8160.000000, 8175.000000, 8161.000000
2256, 10723760.000000, 1056.750000, 8159.000000, 8172.000000, 8157.000000
2257, 10723920.000000, 1035.000000, 8156.000000, 8172.000000, 8157.000000
2258, 10724080.000000, 1001.500000, 8155.000000, 8171.000000, 8154.000000
2259, 10724240.000000, 1000.000000, 8156.000000, 8170.000000, 8153.000000
2260, 10724400.000000, 1133.250000, 8157.000000, 8168.000000, 8150.000000
2261, 10724560.000000, 1481.000000, 8157.000000, 8168.000000, 8150.000000
2262, 10724720.000000, 1973.750000, 8157.000000, 8168.000000, 8150.000000
2263, 10724880.000000, 2441.250000, 8158.000000, 8172.000000, 8157.000000
2264, 10725040.000000, 2742.750000, 8167.000000, 8181.000000, 8174.000000
2265, 10725200.000000, 2853.500000, 8176.000000, 8183.000000, 8189.000000
2266, 10725360.000000, 2804.500000, 8179.000000, 8178.000000, 8175.000000
2267, 10725520.000000, 2642.000000, 8164.000000, 8168.000000, 8153.000000
2268, 10725680.000000, 2431.000000, 8165.000000, 8167.000000, 8152.000000
2269, 10725840.000000, 2206.250000, 8164.000000, 8227.000000, 8196.000000
2270, 10726000.000000, 1980.250000, 8501.000000, 8147.000000, 8278.000000
2271, 10726160.000000, 1776.000000, 8253.000000, 7624.000000, 7678.000000
2272, 10726320.000000, 1632.750000, 8074.000000, 8025.000000, 7938.000000
2273, 10726480.000000, 1570.250000, 8183.000000, 8232.000000, 8225.000000
2274, 10726640.000000, 1576.250000, 8190.000000, 8253.000000, 8247.000000
2275, 10726800.000000, 1621.250000, 8201.000000, 8261.000000, 8260.000000
2276, 10726960.000000, 1669.000000, 8213.000000, 8268.000000, 8273.000000
2277, 10727120.000000, 1693.500000, 8224.000000, 8275.000000, 8285.000000
2278, 10727280.000000, 1685.000000, 8241.000000, 8289.000000, 8307.000000
2279, 10727440.000000, 1650.750000, 8261.000000, 8308.000000, 8333.000000
2280, 10727600.000000, 1591.500000, 8277.000000, 8324.000000, 8354.000000
2281, 10727760.000000, 1514.500000, 8278.000000, 8326.000000, 8356.000000
2282, 10727920.000000, 1430.250000, 8263.000000, 8315.000000, 8341.000000
2283, 10728080.000000, 1344.750000, 8240.000000, 8279.000000, 8298.000000
2284, 10728240.000000, 1267.250000, 8199.000000, 8225.000000, 8227.000000
2285, 10728400.000000, 1200.000000, 8162.000000, 8183.000000, 8172.000000
2286, 10728560.000000, 1147.500000, 8143.000000, 8167.000000, 8148.000000
2287, 10728720.000000, 1109.750000, 8141.000000, 8165.000000, 8146.000000
2288, 10728880.000000, 1083.000000, 8146.000000, 8166.000000, 8149.000000
2289, 10729040.000000, 1066.750000, 8154.000000, 8167.000000, 8153.000000
2290, 10729200.000000, 1058.500000, 8158.000000, 8166.000000, 8153.000000
2291, 10729360.000000, 1056.750000, 8157.000000, 8164.000000, 8150.000000
2292, 10729520.000000, 1050.750000, 8151.000000, 8163.000000, 8147.000000
2293, 10729680.000000, 1039.250000, 8150.000000, 8163.000000, 8146.000000
2294, 10729840.000000, 1015.750000, 8152.000000, 8164.000000, 8147.000000
2295, 10730000.000000, 1009.750000, 8152.000000, 8163.000000, 8144.000000
2296, 10730160.000000, 1111.000000, 8150.000000, 8164.000000, 8145.000000
2297, 10730320.000000, 1400.000000, 8150.000000, 8165.000000, 8148.000000
2298, 10730480.000000, 1833.000000, 8151.000000, 8170.000000, 8154.000000
2299, 10730640.000000, 2254.250000, 8162.000000, 8178.000000, 8171.000000
2300, 10730800.000000, 2543.750000, 8170.000000, 8182.000000, 8188.000000
2301, 10730960.000000, 2664.750000, 8172.000000, 8177.000000, 8173.000000
2302, 10731120.000000, 2636.000000, 8159.000000, 8168.000000, 8153.000000
2303, 10731280.000000, 2509.000000, 8160.000000, 8167.000000, 8151.000000
2304, 10731440.000000, 2327.000000, 8166.000000, 8234.000000, 8208.000000
2305, 10731600.000000, 2126.250000, 8506.000000, 8138.000000, 8278.000000
2306, 10731760.000000, 1920.250000, 8190.000000, 7680.000000, 7712.000000
2307, 10731920.000000, 1736.250000, 8071.000000, 8035.000000, 7950.000000
2308, 10732080.000000, 1612.000000, 8178.000000, 8232.000000, 8224.000000
2309, 10732240.000000, 1568.000000, 8187.000000, 8254.000000, 8250.000000
2310, 10732400.000000, 1591.500000, 8194.000000, 8261.000000, 8261.000000
2311, 10732560.000000, 1651.500000, 8208.000000, 8268.000000, 8274.000000
2312, 10732720.000000, 1713.250000, 8218.000000, 8277.000000, 8289.000000
2313, 10732880.000000, 1751.750000, 8235.000000, 8292.000000, 8312.000000
2314, 10733040.000000, 1756.000000, 8259.000000, 8309.000000, 8337.000000
2315, 10733200.000000, 1727.250000, 8272.000000, 8327.000000, 8359.000000
2316, 10733360.000000, 1673.000000, 8271.000000, 8330.000000, 8360.000000
2317, 10733520.000000, 1606.750000, 8255.000000, 8319.000000, 8344.000000
2318, 10733680.000000, 1533.500000, 8228.000000, 8281.000000, 8296.000000
2319, 10733840.000000, 1460.000000, 8192.000000, 8228.000000, 8229.000000
2320, 10734000.000000, 1390.750000, 8155.000000, 8190.000000, 8177.000000
2321, 10734160.000000, 1331.750000, 8136.000000, 8176.000000, 8156.000000
2322, 10734320.000000, 1282.500000, 8135.000000, 8177.000000, 8158.000000
2323, 10734480.000000, 1245.000000, 8142.000000, 8180.000000, 8164.000000
2324, 10734640.000000, 1219.250000, 8152.000000, 8182.000000, 8169.000000
2325, 10734800.000000, 1200.500000, 8154.000000, 8180.000000, 8168.000000
2326, 10734960.000000, 1188.000000, 8154.000000, 8178.000000, 8166.000000
2327, 10735120.000000, 1177.750000, 8151.000000, 8179.000000, 8165.000000
2328, 10735280.000000, 1163.500000, 8149.000000, 8178.000000, 8163.000000
2329, 10735440.000000, 1145.000000, 8150.000000, 8177.000000, 8162.000000
2330, 10735600.000000, 1138.750000, 8151.000000, 8175.000000, 8159.000000
2331, 10735760.000000, 1231.750000, 8149.000000, 8175.000000, 8158.000000
2332, 10735920.000000, 1490.250000, 8150.000000, 8177.000000, 8162.000000
2333, 10736080.000000, 1894.500000, 8152.000000, 8180.000000, 8165.000000
2334, 10736240.000000, 2303.250000, 8162.000000, 8187.000000, 8182.000000
2335, 10736400.000000, 2599.250000, 8169.000000, 8192.000000, 8198.000000
2336, 10736560.000000, 2733.250000, 8172.000000, 8185.000000, 8185.000000
2337, 10736720.000000, 2724.000000, 8161.000000, 8176.000000, 8163.000000
2338, 10736880.000000, 2614.750000, 8158.000000, 8172.000000, 8155.000000
2339, 10737040.000000, 2449.500000, 8159.000000, 8201.000000, 8172.000000
2340, 10737200.000000, 2257.000000, 8387.000000, 8254.000000, 8339.000000
2341, 10737360.000000, 2052.250000, 8408.000000, 7599.000000, 7736.000000
2342, 10737520.000000, 1868.750000, 8020.000000, 7948.000000, 7841.000000
2343, 10737680.000000, 1739.250000, 8180.000000, 8231.000000, 8224.000000
2344, 10737840.000000, 1691.750000, 8189.000000, 8256.000000, 8255.000000
2345, 10738000.000000, 1709.750000, 8199.000000, 8264.000000, 8266.000000
2346, 10738160.000000, 1764.000000, 8208.000000, 8271.000000, 8277.000000
2347, 10738320.000000, 1825.250000, 8221.000000, 8280.000000, 8292.000000
2348, 10738480.000000, 1866.250000, 8238.000000, 8293.000000, 8313.000000
2349, 10738640.000000, 1876.750000, 8258.000000, 8310.000000, 8337.000000
2350, 10738800.000000, 1849.000000, 8275.000000, 8327.000000, 8361.000000
2351, 10738960.000000, 1794.250000, 8281.000000, 8335.000000, 8371.000000
2352, 10739120.000000, 1722.500000, 8268.000000, 8328.000000, 8358.000000
2353, 10739280.000000, 1644.000000, 8246.000000, 8295.000000, 8318.000000
2354, 10739440.000000, 1565.500000, 8206.000000, 8239.000000, 8245.000000
2355, 10739600.000000, 1496.750000, 8167.000000, 8192.000000, 8181.000000
2356, 10739760.000000, 1437.500000, 8143.000000, 8172.000000, 8153.000000
2357, 10739920.000000, 1389.750000, 8138.000000, 8170.000000, 8151.000000
2358, 10740080.000000, 1351.500000, 8144.000000, 8173.000000, 8156.000000
2359, 10740240.000000, 1321.500000, 8152.000000, 8175.000000, 8160.000000
2360, 10740400.000000, 1299.750000, 8156.000000, 8173.000000, 8160.000000
2361, 10740560.000000, 1286.000000, 8153.000000, 8174.000000, 8159.000000
2362, 10740720.000000, 1276.000000, 8152.000000, 8174.000000, 8159.000000
2363, 10740880.000000, 1262.250000, 8155.000000, 8172.000000, 8157.000000
2364, 10741040.000000, 1238.750000, 8154.000000, 8171.000000, 8155.000000
2365, 10741200.000000, 1227.750000, 8153.000000, 8169.000000, 8152.000000
2366, 10741360.000000, 1319.250000, 8150.000000, 8169.000000, 8150.000000
2367, 10741520.000000, 1595.000000, 8153.000000, 8169.000000, 8152.000000
2368, 10741680.000000, 2036.750000, 8154.000000, 8170.000000, 8154.000000
2369, 10741840.000000, 2487.250000, 8162.000000, 8175.000000, 8164.000000
2370, 10742000.000000, 2824.750000, 8163.000000, 8178.000000, 8170.000000
2371, 10742160.000000, 2985.000000, 8172.000000, 8182.000000, 8186.000000
2372, 10742320.000000, 2994.000000, 8173.000000, 8177.000000, 8172.000000
2373, 10742480.000000, 2886.500000, 8160.000000, 8167.000000, 8151.000000
2374, 10742640.000000, 2712.000000, 8162.000000, 8165.000000, 8148.000000
2375, 10742800.000000, 2511.250000, 8169.000000, 8248.000000, 8220.000000
2376, 10742960.000000, 2303.000000, 8529.000000, 8042.000000, 8196.000000
2377, 10743120.000000, 2110.250000, 8131.000000, 7640.000000, 7637.000000
2378, 10743280.000000, 1968.250000, 8110.000000, 8080.000000, 8015.000000
2379, 10743440.000000, 1905.500000, 8186.000000, 8237.000000, 8230.000000
2380, 10743600.000000, 1903.250000, 8191.000000, 8256.000000, 8251.000000
2381, 10743760.000000, 1938.500000, 8201.000000, 8263.000000, 8264.000000
2382, 10743920.000000, 1983.500000, 8211.000000, 8272.000000, 8278.000000
2383, 10744080.000000, 2019.750000, 8227.000000, 8282.000000, 8294.000000
2384, 10744240.000000, 2026.500000, 8245.000000, 8295.000000, 8315.000000
2385, 10744400.000000, 1998.250000, 8263.000000, 8313.000000, 8339.000000
2386, 10744560.000000, 1941.500000, 8275.000000, 8329.000000, 8361.000000
2387, 10744720.000000, 1863.250000, 8278.000000, 8333.000000, 8365.000000
2388, 10744880.000000, 1775.000000, 8265.000000, 8321.000000, 8347.000000
2389, 10745040.000000, 1685.250000, 8235.000000, 8279.000000, 8291.000000
2390, 10745200.000000, 1602.000000, 8193.000000, 8220.000000, 8218.000000
2391, 10745360.000000, 1529.500000, 8154.000000, 8183.000000, 8167.000000
2392, 10745520.000000, 1470.250000, 8137.000000, 8171.000000, 8148.000000
2393, 10745680.000000, 1426.000000, 8138.000000, 8169.000000, 8148.000000
2394, 10745840.000000, 1392.750000, 8147.000000, 8170.000000, 8153.000000
2395, 10746000.000000, 1368.000000, 8150.000000, 8171.000000, 8154.000000
2396, 10746160.000000, 1352.250000, 8152.000000, 8170.000000, 8153.000000
2397, 10746320.000000, 1338.500000, 8151.000000, 8171.000000, 8155.000000
2398, 10746480.000000, 1321.750000, 8152.000000, 8169.000000, 8152.000000
2399, 10746640.000000, 1298.750000, 8154.000000, 8168.000000, 8150.000000
2400, 10746800.000000, 1265.250000, 8153.000000, 8166.000000, 8147.000000
2401, 10746960.000000, 1267.250000, 8151.000000, 8166.000000, 8146.000000
2402, 10747120.000000, 1392.000000, 8151.000000, 8168.000000, 8148.000000
2403, 10747280.000000, 1723.500000, 8154.000000, 8170.000000, 8150.000000
2404, 10747440.000000, 2174.750000, 8156.000000, 8169.000000, 8150.000000
2405, 10747600.000000, 2600.250000, 8158.000000, 8168.000000, 8151.000000
2406, 10747760.000000, 2877.250000, 8166.000000, 8180.000000, 8174.000000
2407, 10747920.000000, 2990.000000, 8170.000000, 8186.000000, 8188.000000
2408, 10748080.000000, 2951.250000, 8177.000000, 8185.000000, 8184.000000
2409, 10748240.000000, 2816.500000, 8170.000000, 8174.000000, 8161.000000
2410, 10748400.000000, 2629.750000, 8163.000000, 8168.000000, 8150.000000
2411, 10748560.000000, 2423.000000, 8160.000000, 8174.000000, 8150.000000
2412, 10748720.000000, 2213.500000, 8270.000000, 8323.000000, 8352.000000
2413, 10748880.000000, 2027.250000, 8555.000000, 7676.000000, 7875.000000
2414, 10749040.000000, 1900.500000, 7977.000000, 7855.000000, 7737.000000
2415, 10749200.000000, 1846.750000, 8177.000000, 8210.000000, 8195.000000
2416, 10749360.000000, 1853.750000, 8184.000000, 8249.000000, 8241.000000
2417, 10749520.000000, 1885.500000, 8193.000000, 8262.000000, 8260.000000
2418, 10749680.000000, 1918.000000, 8205.000000, 8269.000000, 8271.000000
2419, 10749840.000000, 1929.500000, 8221.000000, 8275.000000, 8283.000000
2420, 10750000.000000, 1907.750000, 8237.000000, 8284.000000, 8299.000000
2421, 10750160.000000, 1854.250000, 8253.000000, 8297.000000, 8319.000000
2422, 10750320.000000, 1776.500000, 8272.000000, 8316.000000, 8346.000000
2423, 10750480.000000, 1690.500000, 8287.000000, 8326.000000, 8362.000000
2424, 10750640.000000, 1603.750000, 8280.000000, 8321.000000, 8351.000000
2425, 10750800.000000, 1522.500000, 8259.000000, 8298.000000, 8320.000000
2426, 10750960.000000, 1450.750000, 8221.000000, 8252.000000, 8262.000000
2427, 10751120.000000, 1388.500000, 8176.000000, 8203.000000, 8196.000000
2428, 10751280.000000, 1338.500000, 8149.000000, 8178.000000, 8159.000000
2429, 10751440.000000, 1298.500000, 8142.000000, 8169.000000, 8149.000000
2430, 10751600.000000, 1268.500000, 8142.000000, 8169.000000, 8149.000000
2431, 10751760.000000, 1247.250000, 8150.000000, 8171.000000, 8156.000000
2432, 10751920.000000, 1232.250000, 8155.000000, 8174.000000, 8161.000000
2433, 10752080.000000, 1222.000000, 8158.000000, 8174.000000, 8161.000000
2434, 10752240.000000, 1211.250000, 8159.000000, 8172.000000, 8159.000000
2435, 10752400.000000, 1193.750000, 8156.000000, 8170.000000, 8155.000000
2436, 10752560.000000, 1165.500000, 8154.000000, 8171.000000, 8155.000000
2437, 10752720.000000, 1134.750000, 8154.000000, 8172.000000, 8156.000000
2438, 10752880.000000, 1169.000000, 8155.000000, 8172.000000, 8155.000000
2439, 10753040.000000, 1351.250000, 8157.000000, 8173.000000, 8155.000000
2440, 10753200.000000, 1723.750000, 8157.000000, 8173.000000, 8157.000000
2441, 10753360.000000, 2161.000000, 8158.000000, 8176.000000, 8161.000000
2442, 10753520.000000, 2522.500000, 8165.000000, 8185.000000, 8180.000000
2443, 10753680.000000, 2722.500000, 8172.000000, 8190.000000, 8194.000000
2444, 10753840.000000, 2763.250000, 8178.000000, 8183.000000, 8183.000000
2445, 10754000.000000, 2677.250000, 8169.000000, 8176.000000, 8166.000000
2446, 10754160.000000, 2518.500000, 8162.000000, 8171.000000, 8156.000000
2447, 10754320.000000, 2337.000000, 8162.000000, 8186.000000, 8163.000000
2448, 10754480.000000, 2146.750000, 8316.000000, 8319.000000, 8371.000000
2449, 10754640.000000, 1966.500000, 8511.000000, 7713.000000, 7895.000000
2450, 10754800.000000, 1818.750000, 7990.000000, 7902.000000, 7791.000000
2451, 10754960.000000, 1738.000000, 8177.000000, 8214.000000, 8201.000000
2452, 10755120.000000, 1724.000000, 8189.000000, 8249.000000, 8246.000000
2453, 10755280.000000, 1753.000000, 8201.000000, 8261.000000, 8262.000000
2454, 10755440.000000, 1793.000000, 8212.000000, 8265.000000, 8271.000000
2455, 10755600.000000, 1822.250000, 8225.000000, 8272.000000, 8283.000000
2456, 10755760.000000, 1823.000000, 8242.000000, 8284.000000, 8304.000000
2457, 10755920.000000, 1794.250000, 8259.000000, 8300.000000, 8326.000000
2458, 10756080.000000, 1738.250000, 8284.000000, 8318.000000, 8354.000000
2459, 10756240.000000, 1666.250000, 8292.000000, 8327.000000, 8363.000000
2460, 10756400.000000, 1588.000000, 8281.000000, 8321.000000, 8353.000000
2461, 10756560.000000, 1509.750000, 8258.000000, 8297.000000, 8320.000000
2462, 10756720.000000, 1439.750000, 8217.000000, 8249.000000, 8257.000000
2463, 10756880.000000, 1379.750000, 8174.000000, 8203.000000, 8196.000000
2464, 10757040.000000, 1331.250000, 8148.000000, 8178.000000, 8160.000000
2465, 10757200.000000, 1296.750000, 8141.000000, 8173.000000, 8154.000000
2466, 10757360.000000, 1268.500000, 8143.000000, 8174.000000, 8157.000000
2467, 10757520.000000, 1245.750000, 8150.000000, 8177.000000, 8164.000000
2468, 10757680.000000, 1228.500000, 8158.000000, 8178.000000, 8167.000000
2469, 10757840.000000, 1216.250000, 8161.000000, 8176.000000, 8163.000000
2470, 10758000.000000, 1207.000000, 8161.000000, 8175.000000, 8162.000000
2471, 10758160.000000, 1193.000000, 8157.000000, 8175.000000, 8161.000000
2472, 10758320.000000, 1168.000000, 8156.000000, 8174.000000, 8159.000000
2473, 10758480.000000, 1137.000000, 8155.000000, 8173.000000, 8156.000000
2474, 10758640.000000, 1144.500000, 8156.000000, 8172.000000, 8155.000000
2475, 10758800.000000, 1294.000000, 8158.000000, 8173.000000, 8156.000000
2476, 10758960.000000, 1613.000000, 8157.000000, 8174.000000, 8158.000000
2477, 10759120.000000, 2021.250000, 8159.000000, 8175.000000, 8160.000000
2478, 10759280.000000, 2365.500000, 8162.000000, 8177.000000, 8162.000000
2479, 10759440.000000, 2574.000000, 8170.000000, 8184.000000, 8179.000000
2480, 10759600.000000, 2630.250000, 8174.000000, 8189.000000, 8194.000000
2481, 10759760.000000, 2569.500000, 8180.000000, 8183.000000, 8184.000000
2482, 10759920.000000, 2436.250000, 8170.000000, 8174.000000, 8163.000000
2483, 10760080.000000, 2270.500000, 8169.000000, 8170.000000, 8156.000000
2484, 10760240.000000, 2091.250000, 8167.000000, 8192.000000, 8165.000000
2485, 10760400.000000, 1910.000000, 8371.000000, 8280.000000, 8354.000000
2486, 10760560.000000, 1760.750000, 8465.000000, 7647.000000, 7806.000000
2487, 10760720.000000, 1676.750000, 8011.000000, 7931.000000, 7820.000000
2488, 10760880.000000, 1670.500000, 8184.000000, 8222.000000, 8212.000000
2489, 10761040.000000, 1710.500000, 8192.000000, 8250.000000, 8247.000000
2490, 10761200.000000, 1765.750000, 8198.000000, 8257.000000, 8258.000000
2491, 10761360.000000, 1806.750000, 8207.000000, 8266.000000, 8271.000000
2492, 10761520.000000, 1820.250000, 8221.000000, 8275.000000, 8287.000000
2493, 10761680.000000, 1799.250000, 8239.000000, 8285.000000, 8303.000000
2494, 10761840.000000, 1746.500000, 8261.000000, 8301.000000, 8328.000000
2495, 10762000.000000, 1674.250000, 8276.000000, 8319.000000, 8352.000000
2496, 10762160.000000, 1598.500000, 8288.000000, 8330.000000, 8367.000000
2497, 10762320.000000, 1523.500000, 8280.000000, 8325.000000, 8359.000000
2498, 10762480.000000, 1453.500000, 8255.000000, 8299.000000, 8322.000000
2499, 10762640.000000, 1396.000000, 8211.000000, 8244.000000, 8250.000000
2500, 10762800.000000, 1351.000000, 8165.000000, 8198.000000, 8187.000000
2501, 10762960.000000, 1320.750000, 8139.000000, 8177.000000, 8157.000000
2502, 10763120.000000, 1299.000000, 8133.000000, 8172.000000, 8150.000000
2503, 10763280.000000, 1280.250000, 8139.000000, 8173.000000, 8153.000000
2504, 10763440.000000, 1266.000000, 8145.000000, 8175.000000, 8157.000000
2505, 10763600.000000, 1256.250000, 8150.000000, 8177.000000, 8162.000000
2506, 10763760.000000, 1249.500000, 8153.000000, 8180.000000, 8167.000000
2507, 10763920.000000, 1240.750000, 8154.000000, 8182.000000, 8168.000000
2508, 10764080.000000, 1222.500000, 8153.000000, 8178.000000, 8163.000000
2509, 10764240.000000, 1192.000000, 8152.000000, 8177.000000, 8160.000000
2510, 10764400.000000, 1158.500000, 8150.000000, 8175.000000, 8160.000000
2511, 10764560.000000, 1221.000000, 8149.000000, 8176.000000, 8159.000000
2512, 10764720.000000, 1579.750000, 8151.000000, 8177.000000, 8161.000000
2513, 10764880.000000, 2067.250000, 8155.000000, 8176.000000, 8161.000000
2514, 10765040.000000, 2509.000000, 8155.000000, 8176.000000, 8159.000000
2515, 10765200.000000, 2763.000000, 8155.000000, 8175.000000, 8158.000000
2516, 10765360.000000, 2795.250000, 8163.000000, 8183.000000, 8177.000000
2517, 10765520.000000, 2687.250000, 8166.000000, 8190.000000, 8188.000000
2518, 10765680.000000, 2512.500000, 8175.000000, 8186.000000, 8188.000000
2519, 10765840.000000, 2344.750000, 8174.000000, 8178.000000, 8171.000000
2520, 10766000.000000, 2172.250000, 8162.000000, 8168.000000, 8153.000000
2521, 10766160.000000, 2015.750000, 8162.000000, 8170.000000, 8153.000000
2522, 10766320.000000, 1903.750000, 8193.000000, 8300.000000, 8292.000000
2523, 10766480.000000, 1862.500000, 8579.000000, 7887.000000, 8076.000000
2524, 10766640.000000, 1876.000000, 7991.000000, 7755.000000, 7674.000000
2525, 10766800.000000, 1914.000000, 8151.000000, 8159.000000, 8121.000000
2526, 10766960.000000, 1949.000000, 8181.000000, 8246.000000, 8240.000000
2527, 10767120.000000, 1965.750000, 8191.000000, 8261.000000, 8261.000000
2528, 10767280.000000, 1951.750000, 8205.000000, 8268.000000, 8272.000000
2529, 10767440.000000, 1904.500000, 8216.000000, 8274.000000, 8283.000000
2530, 10767600.000000, 1834.500000, 8231.000000, 8284.000000, 8301.000000
2531, 10767760.000000, 1756.000000, 8247.000000, 8299.000000, 8323.000000
2532, 10767920.000000, 1676.750000, 8269.000000, 8318.000000, 8352.000000
2533, 10768080.000000, 1603.250000, 8289.000000, 8332.000000, 8372.000000
2534, 10768240.000000, 1539.250000, 8291.000000, 8331.000000, 8370.000000
2535, 10768400.000000, 1484.250000, 8273.000000, 8314.000000, 8347.000000
2536, 10768560.000000, 1438.250000, 8236.000000, 8269.000000, 8289.000000
2537, 10768720.000000, 1401.000000, 8187.000000, 8215.000000, 8215.000000
2538, 10768880.000000, 1373.500000, 8148.000000, 8179.000000, 8163.000000
2539, 10769040.000000, 1352.250000, 8133.000000, 8167.000000, 8145.000000
2540, 10769200.000000, 1337.250000, 8133.000000, 8167.000000, 8147.000000
2541, 10769360.000000, 1326.000000, 8139.000000, 8170.000000, 8154.000000
2542, 10769520.000000, 1315.250000, 8145.000000, 8173.000000, 8159.000000
2543, 10769680.000000, 1300.000000, 8151.000000, 8173.000000, 8159.000000
2544, 10769840.000000, 1277.500000, 8153.000000, 8172.000000, 8159.000000
2545, 10770000.000000, 1243.000000, 8150.000000, 8170.000000, 8157.000000
2546, 10770160.000000, 1210.000000, 8149.000000, 8171.000000, 8156.000000
2547, 10770320.000000, 1263.500000, 8150.000000, 8171.000000, 8156.000000
2548, 10770480.000000, 1490.000000, 8153.000000, 8169.000000, 8154.000000
2549, 10770640.000000, 1900.500000, 8152.000000, 8169.000000, 8152.000000
2550, 10770800.000000, 2353.500000, 8152.000000, 8169.000000, 8152.000000
2551, 10770960.000000, 2719.500000, 8154.000000, 8171.000000, 8155.000000
2552, 10771120.000000, 2924.250000, 8158.000000, 8172.000000, 8159.000000
2553, 10771280.000000, 2978.500000, 8161.000000, 8172.000000, 8159.000000
2554, 10771440.000000, 2917.750000, 8160.000000, 8171.000000, 8157.000000
2555, 10771600.000000, 2783.750000, 8165.000000, 8177.000000, 8170.000000
2556, 10771760.000000, 2624.500000, 8167.000000, 8184.000000, 8181.000000
2557, 10771920.000000, 2456.750000, 8179.000000, 8188.000000, 8198.000000
2558, 10772080.000000, 2284.250000, 8177.000000, 8182.000000, 8181.000000
2559, 10772240.000000, 2132.000000, 8167.000000, 8173.000000, 8160.000000
2560, 10772400.000000, 2035.250000, 8168.000000, 8171.000000, 8160.000000
2561, 10772560.000000, 2001.000000, 8172.000000, 8250.000000, 8228.000000
2562, 10772720.000000, 2012.000000, 8535.000000, 8075.000000, 8231.000000
2563, 10772880.000000, 2037.750000, 8190.000000, 7653.000000, 7675.000000
2564, 10773040.000000, 2057.000000, 8101.000000, 8067.000000, 7996.000000
2565, 10773200.000000, 2051.750000, 8180.000000, 8238.000000, 8231.000000
2566, 10773360.000000, 2016.750000, 8189.000000, 8258.000000, 8257.000000
2567, 10773520.000000, 1950.000000, 8199.000000, 8266.000000, 8268.000000
2568, 10773680.000000, 1865.750000, 8213.000000, 8270.000000, 8277.000000
2569, 10773840.000000, 1774.750000, 8227.000000, 8276.000000, 8290.000000
2570, 10774000.000000, 1684.000000, 8243.000000, 8288.000000, 8309.000000
2571, 10774160.000000, 1597.750000, 8261.000000, 8306.000000, 8333.000000
2572, 10774320.000000, 1520.250000, 8285.000000, 8323.000000, 8358.000000
2573, 10774480.000000, 1457.500000, 8295.000000, 8325.000000, 8361.000000
2574, 10774640.000000, 1407.500000, 8282.000000, 8314.000000, 8347.000000
2575, 10774800.000000, 1366.500000, 8254.000000, 8279.000000, 8303.000000
2576, 10774960.000000, 1334.000000, 8204.000000, 8229.000000, 8234.000000
2577, 10775120.000000, 1306.500000, 8161.000000, 8188.000000, 8175.000000
2578, 10775280.000000, 1285.000000, 8136.000000, 8169.000000, 8145.000000
2579, 10775440.000000, 1264.250000, 8136.000000, 8166.000000, 8142.000000
2580, 10775600.000000, 1248.500000, 8139.000000, 8168.000000, 8148.000000
2581, 10775760.000000, 1234.500000, 8146.000000, 8170.000000, 8153.000000
2582, 10775920.000000, 1217.750000, 8153.000000, 8172.000000, 8157.000000
2583, 10776080.000000, 1194.000000, 8158.000000, 8172.000000, 8157.000000
2584, 10776240.000000, 1158.250000, 8157.000000, 8173.000000, 8157.000000
2585, 10776400.000000, 1112.500000, 8155.000000, 8174.000000, 8159.000000
2586, 10776560.000000, 1110.000000, 8154.000000, 8175.000000, 8159.000000
2587, 10776720.000000, 1271.750000, 8155.000000, 8175.000000, 8158.000000
2588, 10776880.000000, 1637.500000, 8156.000000, 8174.000000, 8157.000000
2589, 10777040.000000, 2125.750000, 8156.000000, 8174.000000, 8157.000000
2590, 10777200.000000, 2568.250000, 8156.000000, 8176.000000, 8159.000000
2591, 10777360.000000, 2874.250000, 8156.000000, 8176.000000, 8161.000000
2592, 10777520.000000, 3005.500000, 8160.000000, 8178.000000, 8162.000000
2593, 10777680.000000, 2989.000000, 8163.000000, 8178.000000, 8164.000000
2594, 10777840.000000, 2873.000000, 8169.000000, 8186.000000, 8180.000000
2595, 10778000.000000, 2712.250000, 8174.000000, 8192.000000, 8195.000000
2596, 10778160.000000, 2540.500000, 8179.000000, 8189.000000, 8189.000000
2597, 10778320.000000, 2364.000000, 8176.000000, 8181.000000, 8172.000000
2598, 10778480.000000, 2194.000000, 8168.000000, 8174.000000, 8159.000000
2599, 10778640.000000, 2063.250000, 8170.000000, 8179.000000, 8160.000000
2600, 10778800.000000, 2001.000000, 8267.000000, 8331.000000, 8360.000000
2601, 10778960.000000, 1993.250000, 8556.000000, 7754.000000, 7952.000000
2602, 10779120.000000, 2012.750000, 7977.000000, 7862.000000, 7752.000000
2603, 10779280.000000, 2033.500000, 8177.000000, 8203.000000, 8184.000000
2604, 10779440.000000, 2037.000000, 8189.000000, 8248.000000, 8243.000000
2605, 10779600.000000, 2010.750000, 8198.000000, 8261.000000, 8262.000000
2606, 10779760.000000, 1952.250000, 8206.000000, 8269.000000, 8275.000000
2607, 10779920.000000, 1871.000000, 8223.000000, 8276.000000, 8288.000000
2608, 10780080.000000, 1776.750000, 8240.000000, 8284.000000, 8303.000000
2609, 10780240.000000, 1681.500000, 8258.000000, 8300.000000, 8327.000000
2610, 10780400.000000, 1591.500000, 8275.000000, 8321.000000, 8355.000000
2611, 10780560.000000, 1509.250000, 8296.000000, 8335.000000, 8377.000000
2612, 10780720.000000, 1437.500000, 8298.000000, 8332.000000, 8372.000000
2613, 10780880.000000, 1380.000000, 8278.000000, 8311.000000, 8343.000000
2614, 10781040.000000, 1332.500000, 8235.000000, 8261.000000, 8277.000000
2615, 10781200.000000, 1297.000000, 8181.000000, 8209.000000, 8205.000000
2616, 10781360.000000, 1269.500000, 8144.000000, 8181.000000, 8164.000000
2617, 10781520.000000, 1244.750000, 8137.000000, 8171.000000, 8150.000000
2618, 10781680.000000, 1223.750000, 8140.000000, 8170.000000, 8149.000000
2619, 10781840.000000, 1206.250000, 8142.000000, 8171.000000, 8153.000000
2620, 10782000.000000, 1190.750000, 8148.000000, 8175.000000, 8159.000000
2621, 10782160.000000, 1169.250000, 8156.000000, 8176.000000, 8165.000000
2622, 10782320.000000, 1138.500000, 8158.000000, 8175.000000, 8162.000000
2623, 10782480.000000, 1098.500000, 8160.000000, 8172.000000, 8158.000000
2624, 10782640.000000, 1054.750000, 8155.000000, 8172.000000, 8155.000000
2625, 10782800.000000, 1079.000000, 8155.000000, 8171.000000, 8154.000000
2626, 10782960.000000, 1263.750000, 8156.000000, 8172.000000, 8157.000000
2627, 10783120.000000, 1658.500000, 8158.000000, 8173.000000, 8158.000000
2628, 10783280.000000, 2143.000000, 8160.000000, 8173.000000, 8157.000000
2629, 10783440.000000, 2570.500000, 8159.000000, 8174.000000, 8159.000000
2630, 10783600.000000, 2838.500000, 8159.000000, 8176.000000, 8161.000000
2631, 10783760.000000, 2936.750000, 8163.000000, 8177.000000, 8165.000000
2632, 10783920.000000, 2887.000000, 8165.000000, 8177.000000, 8164.000000
2633, 10784080.000000, 2750.500000, 8175.000000, 8186.000000, 8184.000000
2634, 10784240.000000, 2578.000000, 8176.000000, 8191.000000, 8197.000000
2635, 10784400.000000, 2394.000000, 8180.000000, 8187.000000, 8188.000000
2636, 10784560.000000, 2203.000000, 8172.000000, 8180.000000, 8170.000000
2637, 10784720.000000, 2027.750000, 8170.000000, 8175.000000, 8160.000000
2638, 10784880.000000, 1903.500000, 8170.000000, 8185.000000, 8164.000000
2639, 10785040.000000, 1847.500000, 8309.000000, 8312.000000, 8359.000000
2640, 10785200.000000, 1847.750000, 8519.000000, 7611.000000, 7798.000000
2641, 10785360.000000, 1874.000000, 7991.000000, 7880.000000, 7761.000000
2642, 10785520.000000, 1899.000000, 8185.000000, 8227.000000, 8220.000000
2643, 10785680.000000, 1902.750000, 8191.000000, 8260.000000, 8257.000000
2644, 10785840.000000, 1876.250000, 8199.000000, 8270.000000, 8272.000000
2645, 10786000.000000, 1815.750000, 8207.000000, 8276.000000, 8283.000000
2646, 10786160.000000, 1734.750000, 8223.000000, 8284.000000, 8298.000000
2647, 10786320.000000, 1642.750000, 8240.000000, 8294.000000, 8315.000000
2648, 10786480.000000, 1550.250000, 8261.000000, 8308.000000, 8337.000000
2649, 10786640.000000, 1463.000000, 8282.000000, 8327.000000, 8366.000000
2650, 10786800.000000, 1388.000000, 8299.000000, 8342.000000, 8386.000000
2651, 10786960.000000, 1325.500000, 8299.000000, 8340.000000, 8384.000000
2652, 10787120.000000, 1276.250000, 8281.000000, 8314.000000, 8350.000000
2653, 10787280.000000, 1239.000000, 8234.000000, 8259.000000, 8276.000000
2654, 10787440.000000, 1209.750000, 8179.000000, 8204.000000, 8199.000000
2655, 10787600.000000, 1185.750000, 8143.000000, 8177.000000, 8158.000000
2656, 10787760.000000, 1165.750000, 8132.000000, 8169.000000, 8146.000000
2657, 10787920.000000, 1150.500000, 8140.000000, 8169.000000, 8148.000000
2658, 10788080.000000, 1138.750000, 8145.000000, 8170.000000, 8152.000000
2659, 10788240.000000, 1126.500000, 8151.000000, 8170.000000, 8154.000000
2660, 10788400.000000, 1110.750000, 8153.000000, 8172.000000, 8157.000000
2661, 10788560.000000, 1089.000000, 8153.000000, 8172.000000, 8157.000000
2662, 10788720.000000, 1053.000000, 8158.000000, 8172.000000, 8157.000000
2663, 10788880.000000, 1018.750000, 8156.000000, 8169.000000, 8152.000000
2664, 10789040.000000, 1057.500000, 8154.000000, 8168.000000, 8150.000000
2665, 10789200.000000, 1287.750000, 8155.000000, 8170.000000, 8153.000000
2666, 10789360.000000, 1733.750000, 8155.000000, 8172.000000, 8155.000000
2667, 10789520.000000, 2274.250000, 8157.000000, 8172.000000, 8154.000000
2668, 10789680.000000, 2737.750000, 8160.000000, 8170.000000, 8154.000000
2669, 10789840.000000, 3021.500000, 8158.000000, 8170.000000, 8153.000000
2670, 10790000.000000, 3105.000000, 8161.000000, 8172.000000, 8157.000000
2671, 10790160.000000, 3039.750000, 8163.000000, 8177.000000, 8163.000000
2672, 10790320.000000, 2883.500000, 8173.000000, 8186.000000, 8181.000000
2673, 10790480.000000, 2697.000000, 8179.000000, 8188.000000, 8194.000000
2674, 10790640.000000, 2508.000000, 8180.000000, 8184.000000, 8183.000000
2675, 10790800.000000, 2314.000000, 8170.000000, 8175.000000, 8162.000000
2676, 10790960.000000, 2133.750000, 8164.000000, 8172.000000, 8155.000000
2677, 10791120.000000, 1999.250000, 8166.000000, 8199.000000, 8171.000000
2678, 10791280.000000, 1927.750000, 8389.000000, 8245.000000, 8325.000000
2679, 10791440.000000, 1912.000000, 8456.000000, 7559.000000, 7710.000000
2680, 10791600.000000, 1928.000000, 8027.000000, 7941.000000, 7832.000000
2681, 10791760.000000, 1948.250000, 8182.000000, 8235.000000, 8226.000000
2682, 10791920.000000, 1950.750000, 8191.000000, 8261.000000, 8256.000000
2683, 10792080.000000, 1920.250000, 8201.000000, 8268.000000, 8269.000000
2684, 10792240.000000, 1858.500000, 8211.000000, 8273.000000, 8279.000000
2685, 10792400.000000, 1771.500000, 8223.000000, 8281.000000, 8293.000000
2686, 10792560.000000, 1672.250000, 8240.000000, 8292.000000, 8311.000000
2687, 10792720.000000, 1571.250000, 8264.000000, 8306.000000, 8333.000000
2688, 10792880.000000, 1477.000000, 8286.000000, 8322.000000, 8358.000000
2689, 10793040.000000, 1398.000000, 8302.000000, 8332.000000, 8374.000000
2690, 10793200.000000, 1333.000000, 8296.000000, 8327.000000, 8365.000000
2691, 10793360.000000, 1280.750000, 8275.000000, 8300.000000, 8330.000000
2692, 10793520.000000, 1243.250000, 8227.000000, 8247.000000, 8259.000000
2693, 10793680.000000, 1215.750000, 8174.000000, 8195.000000, 8186.000000
2694, 10793840.000000, 1195.000000, 8142.000000, 8171.000000, 8151.000000
2695, 10794000.000000, 1177.250000, 8134.000000, 8167.000000, 8144.000000
2696, 10794160.000000, 1161.250000, 8140.000000, 8168.000000, 8147.000000
2697, 10794320.000000, 1149.750000, 8148.000000, 8169.000000, 8151.000000
2698, 10794480.000000, 1136.250000, 8153.000000, 8168.000000, 8153.000000
2699, 10794640.000000, 1121.250000, 8154.000000, 8168.000000, 8154.000000
2700, 10794800.000000, 1100.500000, 8153.000000, 8170.000000, 8155.000000
2701, 10794960.000000, 1068.000000, 8154.000000, 8169.000000, 8153.000000
2702, 10795120.000000, 1033.750000, 8153.000000, 8166.000000, 8147.000000
2703, 10795280.000000, 1061.000000, 8153.000000, 8165.000000, 8146.000000
2704, 10795440.000000, 1270.250000, 8152.000000, 8165.000000, 8144.000000
2705, 10795600.000000, 1697.750000, 8152.000000, 8167.000000, 8148.000000
2706, 10795760.000000, 2238.500000, 8156.000000, 8168.000000, 8151.000000
2707, 10795920.000000, 2712.750000, 8160.000000, 8168.000000, 8150.000000
2708, 10796080.000000, 3014.000000, 8159.000000, 8168.000000, 8149.000000
2709, 10796240.000000, 3110.750000, 8161.000000, 8171.000000, 8154.000000
2710, 10796400.000000, 3041.000000, 8161.000000, 8173.000000, 8158.000000
2711, 10796560.000000, 2878.500000, 8169.000000, 8183.000000, 8177.000000
2712, 10796720.000000, 2678.250000, 8176.000000, 8187.000000, 8191.000000
2713, 10796880.000000, 2471.000000, 8180.000000, 8181.000000, 8180.000000
2714, 10797040.000000, 2263.500000, 8166.000000, 8171.000000, 8157.000000
2715, 10797200.000000, 2075.250000, 8165.000000, 8169.000000, 8154.000000
2716, 10797360.000000, 1936.750000, 8165.000000, 8192.000000, 8167.000000
2717, 10797520.000000, 1869.250000, 8364.000000, 8285.000000, 8357.000000
2718, 10797680.000000, 1863.000000, 8470.000000, 7657.000000, 7817.000000
2719, 10797840.000000, 1886.000000, 8009.000000, 7927.000000, 7816.000000
2720, 10798000.000000, 1914.500000, 8179.000000, 8222.000000, 8211.000000
2721, 10798160.000000, 1921.750000, 8188.000000, 8252.000000, 8247.000000
2722, 10798320.000000, 1895.250000, 8201.000000, 8259.000000, 8260.000000
2723, 10798480.000000, 1832.000000, 8211.000000, 8265.000000, 8271.000000
2724, 10798640.000000, 1745.250000, 8222.000000, 8272.000000, 8283.000000
2725, 10798800.000000, 1646.000000, 8240.000000, 8283.000000, 8302.000000
2726, 10798960.000000, 1549.250000, 8259.000000, 8299.000000, 8325.000000
2727, 10799120.000000, 1461.000000, 8285.000000, 8317.000000, 8354.000000
2728, 10799280.000000, 1384.250000, 8297.000000, 8326.000000, 8367.000000
2729, 10799440.000000, 1321.750000, 8292.000000, 8322.000000, 8360.000000
2730, 10799600.000000, 1272.500000, 8270.000000, 8298.000000, 8329.000000
2731, 10799760.000000, 1236.750000, 8225.000000, 8248.000000, 8261.000000
2732, 10799920.000000, 1207.750000, 8176.000000, 8197.000000, 8190.000000
2733, 10800080.000000, 1186.000000, 8144.000000, 8172.000000, 8155.000000
2734, 10800240.000000, 1166.750000, 8133.000000, 8166.000000, 8146.000000
2735, 10800400.000000, 1152.000000, 8138.000000, 8169.000000, 8152.000000
2736, 10800560.000000, 1143.000000, 8146.000000, 8172.000000, 8157.000000
2737, 10800720.000000, 1133.000000, 8152.000000, 8172.000000, 8159.000000
2738, 10800880.000000, 1121.250000, 8154.000000, 8170.000000, 8158.000000
2739, 10801040.000000, 1101.250000, 8154.000000, 8171.000000, 8159.000000
2740, 10801200.000000, 1069.750000, 8154.000000, 8172.000000, 8160.000000
2741, 10801360.000000, 1028.250000, 8153.000000, 8171.000000, 8158.000000
2742, 10801520.000000, 1023.250000, 8156.000000, 8169.000000, 8156.000000
2743, 10801680.000000, 1145.500000, 8154.000000, 8168.000000, 8152.000000
2744, 10801840.000000, 1494.500000, 8153.000000, 8170.000000, 8155.000000
2745, 10802000.000000, 2000.500000, 8155.000000, 8172.000000, 8157.000000
2746, 10802160.000000, 2506.500000, 8159.000000, 8174.000000, 8161.000000
2747, 10802320.000000, 2854.500000, 8160.000000, 8173.000000, 8159.000000
2748, 10802480.000000, 3001.000000, 8163.000000, 8173.000000, 8161.000000
2749, 10802640.000000, 2967.500000, 8166.000000, 8180.000000, 8172.000000
2750, 10802800.000000, 2814.500000, 8170.000000, 8187.000000, 8187.000000
2751, 10802960.000000, 2609.000000, 8180.000000, 8190.000000, 8197.000000
2752, 10803120.000000, 2386.500000, 8180.000000, 8182.000000, 8179.000000
2753, 10803280.000000, 2161.750000, 8166.000000, 8172.000000, 8158.000000
2754, 10803440.000000, 1952.500000, 8166.000000, 8173.000000, 8159.000000
2755, 10803600.000000, 1798.750000, 8178.000000, 8267.000000, 8247.000000
2756, 10803760.000000, 1724.750000, 8544.000000, 8028.000000, 8190.000000
2757, 10803920.000000, 1723.750000, 8114.000000, 7673.000000, 7658.000000
2758, 10804080.000000, 1761.250000, 8122.000000, 8099.000000, 8038.000000
2759, 10804240.000000, 1806.500000, 8184.000000, 8245.000000, 8239.000000
2760, 10804400.000000, 1831.500000, 8194.000000, 8264.000000, 8264.000000
2761, 10804560.000000, 1822.250000, 8204.000000, 8270.000000, 8273.000000
2762, 10804720.000000, 1773.250000, 8220.000000, 8276.000000, 8286.000000
2763, 10804880.000000, 1695.000000, 8232.000000, 8284.000000, 8300.000000
2764, 10805040.000000, 1600.750000, 8249.000000, 8297.000000, 8322.000000
2765, 10805200.000000, 1503.750000, 8271.000000, 8317.000000, 8351.000000
2766, 10805360.000000, 1412.750000, 8294.000000, 8334.000000, 8375.000000
2767, 10805520.000000, 1330.750000, 8303.000000, 8337.000000, 8380.000000
2768, 10805680.000000, 1265.000000, 8290.000000, 8325.000000, 8363.000000
2769, 10805840.000000, 1215.000000, 8257.000000, 8285.000000, 8311.000000
2770, 10806000.000000, 1179.250000, 8206.000000, 8229.000000, 8235.000000
2771, 10806160.000000, 1152.000000, 8162.000000, 8188.000000, 8175.000000
2772, 10806320.000000, 1133.750000, 8142.000000, 8170.000000, 8150.000000
2773, 10806480.000000, 1118.750000, 8138.000000, 8166.000000, 8145.000000
2774, 10806640.000000, 1108.750000, 8143.000000, 8170.000000, 8151.000000
2775, 10806800.000000, 1103.500000, 8148.000000, 8173.000000, 8157.000000
2776, 10806960.000000, 1097.750000, 8157.000000, 8173.000000, 8159.000000
2777, 10807120.000000, 1089.000000, 8161.000000, 8171.000000, 8158.000000
2778, 10807280.000000, 1073.250000, 8158.000000, 8170.000000, 8155.000000
2779, 10807440.000000, 1043.500000, 8156.000000, 8170.000000, 8155.000000
2780, 10807600.000000, 1012.000000, 8156.000000, 8171.000000, 8156.000000
2781, 10807760.000000, 1039.500000, 8157.000000, 8169.000000, 8153.000000
2782, 10807920.000000, 1254.000000, 8158.000000, 8169.000000, 8152.000000
2783, 10808080.000000, 1687.750000, 8155.000000, 8169.000000, 8150.000000
2784, 10808240.000000, 2242.250000, 8157.000000, 8171.000000, 8155.000000
2785, 10808400.000000, 2723.750000, 8158.000000, 8173.000000, 8158.000000
2786, 10808560.000000, 3024.500000, 8162.000000, 8174.000000, 8161.000000
2787, 10808720.000000, 3106.750000, 8164.000000, 8172.000000, 8157.000000
2788, 10808880.000000, 3023.750000, 8164.000000, 8175.000000, 8162.000000
2789, 10809040.000000, 2841.000000, 8169.000000, 8185.000000, 8181.000000
2790, 10809200.000000, 2623.250000, 8180.000000, 8191.000000, 8200.000000
2791, 10809360.000000, 2398.250000, 8182.000000, 8185.000000, 8185.000000
2792, 10809520.000000, 2173.000000, 8172.000000, 8173.000000, 8161.000000
2793, 10809680.000000, 1974.250000, 8169.000000, 8170.000000, 8156.000000
2794, 10809840.000000, 1834.750000, 8168.000000, 8222.000000, 8195.000000
2795, 10810000.000000, 1777.250000, 8463.000000, 8171.000000, 8289.000000
2796, 10810160.000000, 1779.750000, 8337.000000, 7591.000000, 7683.000000
2797, 10810320.000000, 1817.500000, 8064.000000, 8003.000000, 7911.000000
2798, 10810480.000000, 1857.500000, 8183.000000, 8238.000000, 8231.000000
2799, 10810640.000000, 1876.500000, 8189.000000, 8262.000000, 8259.000000
2800, 10810800.000000, 1854.750000, 8199.000000, 8271.000000, 8273.000000
2801, 10810960.000000, 1794.000000, 8215.000000, 8277.000000, 8287.000000
2802, 10811120.000000, 1707.250000, 8226.000000, 8283.000000, 8297.000000
2803, 10811280.000000, 1608.750000, 8242.000000, 8294.000000, 8316.000000
2804, 10811440.000000, 1509.500000, 8262.000000, 8311.000000, 8341.000000
2805, 10811600.000000, 1419.750000, 8286.000000, 8331.000000, 8369.000000
2806, 10811760.000000, 1344.000000, 8300.000000, 8338.000000, 8381.000000
2807, 10811920.000000, 1281.750000, 8294.000000, 8330.000000, 8369.000000
2808, 10812080.000000, 1235.000000, 8266.000000, 8298.000000, 8328.000000
2809, 10812240.000000, 1202.500000, 8216.000000, 8242.000000, 8253.000000
2810, 10812400.000000, 1179.250000, 8169.000000, 8194.000000, 8186.000000
2811, 10812560.000000, 1161.500000, 8142.000000, 8172.000000, 8154.000000
2812, 10812720.000000, 1147.500000, 8136.000000, 8164.000000, 8142.000000
2813, 10812880.000000, 1135.250000, 8138.000000, 8165.000000, 8146.000000
2814, 10813040.000000, 1127.750000, 8143.000000, 8168.000000, 8151.000000
2815, 10813200.000000, 1122.250000, 8151.000000, 8169.000000, 8155.000000
2816, 10813360.000000, 1113.750000, 8155.000000, 8169.000000, 8156.000000
2817, 10813520.000000, 1099.500000, 8156.000000, 8166.000000, 8151.000000
2818, 10813680.000000, 1072.000000, 8154.000000, 8165.000000, 8149.000000
2819, 10813840.000000, 1033.750000, 8151.000000, 8166.000000, 8150.000000
2820, 10814000.000000, 1034.250000, 8152.000000, 8168.000000, 8151.000000
2821, 10814160.000000, 1184.750000, 8155.000000, 8167.000000, 8150.000000
2822, 10814320.000000, 1578.250000, 8154.000000, 8167.000000, 8149.000000
2823, 10814480.000000, 2135.500000, 8156.000000, 8166.000000, 8151.000000
2824, 10814640.000000, 2678.750000, 8154.000000, 8168.000000, 8152.000000
2825, 10814800.000000, 3048.250000, 8158.000000, 8170.000000, 8155.000000
2826, 10814960.000000, 3202.000000, 8163.000000, 8170.000000, 8156.000000
2827, 10815120.000000, 3156.500000, 8163.000000, 8170.000000, 8154.000000
2828, 10815280.000000, 2990.250000, 8168.000000, 8176.000000, 8169.000000
2829, 10815440.000000, 2766.750000, 8168.000000, 8184.000000, 8181.000000
2830, 10815600.000000, 2532.500000, 8178.000000, 8187.000000, 8191.000000
2831, 10815760.000000, 2300.250000, 8182.000000, 8179.000000, 8176.000000
2832, 10815920.000000, 2082.500000, 8168.000000, 8169.000000, 8154.000000
2833, 10816080.000000, 1920.250000, 8168.000000, 8168.000000, 8153.000000
2834, 10816240.000000, 1833.500000, 8182.000000, 8270.000000, 8251.000000
2835, 10816400.000000, 1818.500000, 8559.000000, 7990.000000, 8160.000000
2836, 10816560.000000, 1846.250000, 8084.000000, 7680.000000, 7647.000000
2837, 10816720.000000, 1884.500000, 8132.000000, 8116.000000, 8061.000000
2838, 10816880.000000, 1906.250000, 8185.000000, 8245.000000, 8238.000000
2839, 10817040.000000, 1894.250000, 8194.000000, 8264.000000, 8264.000000
2840, 10817200.000000, 1843.500000, 8201.000000, 8272.000000, 8275.000000
2841, 10817360.000000, 1759.500000, 8218.000000, 8279.000000, 8287.000000
2842, 10817520.000000, 1660.250000, 8233.000000, 8285.000000, 8301.000000
2843, 10817680.000000, 1559.250000, 8247.000000, 8298.000000, 8320.000000
2844, 10817840.000000, 1464.250000, 8270.000000, 8316.000000, 8347.000000
2845, 10818000.000000, 1380.750000, 8291.000000, 8332.000000, 8369.000000
2846, 10818160.000000, 1313.250000, 8300.000000, 8334.000000, 8373.000000
2847, 10818320.000000, 1263.000000, 8289.000000, 8323.000000, 8359.000000
2848, 10818480.000000, 1227.250000, 8257.000000, 8286.000000, 8310.000000
2849, 10818640.000000, 1199.750000, 8205.000000, 8231.000000, 8235.000000
2850, 10818800.000000, 1180.750000, 8162.000000, 8191.000000, 8178.000000
2851, 10818960.000000, 1166.500000, 8142.000000, 8173.000000, 8153.000000
2852, 10819120.000000, 1154.000000, 8138.000000, 8170.000000, 8149.000000
2853, 10819280.000000, 1145.250000, 8144.000000, 8172.000000, 8155.000000
2854, 10819440.000000, 1138.750000, 8150.000000, 8175.000000, 8160.000000
2855, 10819600.000000, 1130.750000, 8155.000000, 8176.000000, 8163.000000
2856, 10819760.000000, 1116.750000, 8159.000000, 8175.000000, 8162.000000
2857, 10819920.000000, 1094.500000, 8157.000000, 8175.000000, 8161.000000
2858, 10820080.000000, 1064.750000, 8157.000000, 8177.000000, 8163.000000
2859, 10820240.000000, 1021.250000, 8153.000000, 8180.000000, 8165.000000
2860, 10820400.000000, 1021.750000, 8155.000000, 8185.000000, 8168.000000
2861, 10820560.000000, 1183.250000, 8159.000000, 8186.000000, 8171.000000
2862, 10820720.000000, 1592.500000, 8158.000000, 8186.000000, 8169.000000
2863, 10820880.000000, 2157.500000, 8158.000000, 8188.000000, 8171.000000
2864, 10821040.000000, 2694.750000, 8158.000000, 8190.000000, 8173.000000
2865, 10821200.000000, 3050.750000, 8160.000000, 8191.000000, 8175.000000
2866, 10821360.000000, 3187.750000, 8168.000000, 8196.000000, 8187.000000
2867, 10821520.000000, 3129.000000, 8171.000000, 8198.000000, 8195.000000
2868, 10821680.000000, 2953.750000, 8175.000000, 8196.000000, 8196.000000
2869, 10821840.000000, 2725.000000, 8175.000000, 8193.000000, 8187.000000
2870, 10822000.000000, 2485.750000, 8165.000000, 8185.000000, 8170.000000
2871, 10822160.000000, 2250.000000, 8169.000000, 8184.000000, 8168.000000
2872, 10822320.000000, 2032.250000, 8216.000000, 8317.000000, 8322.000000
2873, 10822480.000000, 1874.250000, 8588.000000, 7918.000000, 8115.000000
2874, 10822640.000000, 1798.250000, 7979.000000, 7829.000000, 7746.000000
2875, 10822800.000000, 1798.000000, 8154.000000, 8165.000000, 8125.000000
2876, 10822960.000000, 1837.250000, 8189.000000, 8241.000000, 8236.000000
2877, 10823120.000000, 1883.750000, 8194.000000, 8253.000000, 8250.000000
2878, 10823280.000000, 1908.000000, 8204.000000, 8257.000000, 8260.000000
2879, 10823440.000000, 1898.250000, 8217.000000, 8261.000000, 8269.000000
2880, 10823600.000000, 1848.250000, 8235.000000, 8269.000000, 8285.000000
2881, 10823760.000000, 1772.250000, 8255.000000, 8282.000000, 8305.000000
2882, 10823920.000000, 1680.500000, 8274.000000, 8297.000000, 8327.000000
2883, 10824080.000000, 1582.250000, 8294.000000, 8313.000000, 8350.000000
2884, 10824240.000000, 1491.500000, 8296.000000, 8316.000000, 8354.000000
2885, 10824400.000000, 1408.500000, 8281.000000, 8301.000000, 8333.000000
2886, 10824560.000000, 1341.000000, 8245.000000, 8255.000000, 8273.000000
2887, 10824720.000000, 1291.000000, 8193.000000, 8202.000000, 8202.000000
2888, 10824880.000000, 1255.250000, 8150.000000, 8169.000000, 8154.000000
2889, 10825040.000000, 1229.250000, 8136.000000, 8159.000000, 8139.000000
2890, 10825200.000000, 1214.000000, 8136.000000, 8159.000000, 8139.000000
2891, 10825360.000000, 1206.500000, 8144.000000, 8160.000000, 8143.000000
2892, 10825520.000000, 1202.250000, 8150.000000, 8161.000000, 8146.000000
2893, 10825680.000000, 1197.500000, 8152.000000, 8163.000000, 8150.000000
2894, 10825840.000000, 1190.000000, 8155.000000, 8167.000000, 8154.000000
2895, 10826000.000000, 1176.000000, 8156.000000, 8166.000000, 8153.000000
2896, 10826160.000000, 1151.000000, 8157.000000, 8164.000000, 8150.000000
2897, 10826320.000000, 1115.500000, 8153.000000, 8163.000000, 8146.000000
2898, 10826480.000000, 1100.750000, 8154.000000, 8164.000000, 8148.000000
2899, 10826640.000000, 1210.750000, 8153.000000, 8168.000000, 8151.000000
2900, 10826800.000000, 1525.750000, 8156.000000, 8168.000000, 8153.000000
2901, 10826960.000000, 2018.750000, 8160.000000, 8168.000000, 8152.000000
2902, 10827120.000000, 2516.750000, 8159.000000, 8168.000000, 8153.000000
2903, 10827280.000000, 2878.000000, 8161.000000, 8172.000000, 8159.000000
2904, 10827440.000000, 3031.750000, 8169.000000, 8183.000000, 8181.000000
2905, 10827600.000000, 3003.250000, 8177.000000, 8189.000000, 8198.000000
2906, 10827760.000000, 2851.500000, 8180.000000, 8180.000000, 8181.000000
2907, 10827920.000000, 2633.750000, 8172.000000, 8171.000000, 8161.000000
2908, 10828080.000000, 2393.500000, 8164.000000, 8168.000000, 8153.000000
2909, 10828240.000000, 2148.750000, 8166.000000, 8193.000000, 8169.000000
2910, 10828400.000000, 1920.250000, 8368.000000, 8265.000000, 8339.000000
2911, 10828560.000000, 1749.500000, 8457.000000, 7580.000000, 7736.000000
2912, 10828720.000000, 1672.250000, 8013.000000, 7920.000000, 7806.000000
2913, 10828880.000000, 1673.500000, 8183.000000, 8230.000000, 8223.000000
2914, 10829040.000000, 1721.000000, 8188.000000, 8260.000000, 8257.000000
2915, 10829200.000000, 1779.250000, 8200.000000, 8269.000000, 8271.000000
2916, 10829360.000000, 1817.000000, 8210.000000, 8274.000000, 8281.000000
2917, 10829520.000000, 1816.250000, 8222.000000, 8280.000000, 8291.000000
2918, 10829680.000000, 1771.000000, 8239.000000, 8290.000000, 8310.000000
2919, 10829840.000000, 1692.000000, 8258.000000, 8307.000000, 8334.000000
2920, 10830000.000000, 1597.750000, 8282.000000, 8327.000000, 8364.000000
2921, 10830160.000000, 1499.750000, 8298.000000, 8337.000000, 8377.000000
2922, 10830320.000000, 1410.500000, 8293.000000, 8334.000000, 8374.000000
2923, 10830480.000000, 1330.750000, 8270.000000, 8306.000000, 8337.000000
2924, 10830640.000000, 1265.750000, 8225.000000, 8252.000000, 8265.000000
2925, 10830800.000000, 1218.000000, 8175.000000, 8197.000000, 8189.000000
2926, 10830960.000000, 1184.750000, 8145.000000, 8170.000000, 8150.000000
2927, 10831120.000000, 1161.500000, 8135.000000, 8162.000000, 8139.000000
2928, 10831280.000000, 1148.250000, 8137.000000, 8163.000000, 8142.000000
2929, 10831440.000000, 1141.750000, 8144.000000, 8167.000000, 8150.000000
2930, 10831600.000000, 1141.000000, 8152.000000, 8168.000000, 8151.000000
2931, 10831760.000000, 1140.750000, 8158.000000, 8167.000000, 8152.000000
2932, 10831920.000000, 1134.000000, 8156.000000, 8166.000000, 8151.000000
2933, 10832080.000000, 1118.500000, 8155.000000, 8166.000000, 8151.000000
2934, 10832240.000000, 1086.750000, 8154.000000, 8167.000000, 8151.000000
2935, 10832400.000000, 1055.250000, 8154.000000, 8165.000000, 8147.000000
2936, 10832560.000000, 1103.750000, 8155.000000, 8163.000000, 8146.000000
2937, 10832720.000000, 1358.000000, 8155.000000, 8163.000000, 8146.000000
2938, 10832880.000000, 1842.250000, 8155.000000, 8165.000000, 8148.000000
2939, 10833040.000000, 2421.750000, 8156.000000, 8167.000000, 8152.000000
2940, 10833200.000000, 2907.000000, 8159.000000, 8168.000000, 8153.000000
2941, 10833360.000000, 3182.250000, 8167.000000, 8175.000000, 8168.000000
2942, 10833520.000000, 3237.500000, 8168.000000, 8182.000000, 8179.000000
2943, 10833680.000000, 3131.000000, 8175.000000, 8185.000000, 8191.000000
2944, 10833840.000000, 2927.250000, 8176.000000, 8182.000000, 8179.000000
2945, 10834000.000000, 2694.000000, 8165.000000, 8172.000000, 8157.000000
2946, 10834160.000000, 2456.500000, 8167.000000, 8169.000000, 8152.000000
2947, 10834320.000000, 2226.000000, 8174.000000, 8265.000000, 8242.000000
2948, 10834480.000000, 2024.000000, 8533.000000, 7996.000000, 8158.000000
2949, 10834640.000000, 1888.750000, 8115.000000, 7632.000000, 7614.000000
2950, 10834800.000000, 1837.250000, 8129.000000, 8107.000000, 8054.000000
2951, 10834960.000000, 1846.500000, 8184.000000, 8245.000000, 8239.000000
2952, 10835120.000000, 1886.750000, 8191.000000, 8263.000000, 8260.000000
2953, 10835280.000000, 1923.500000, 8199.000000, 8271.000000, 8275.000000
2954, 10835440.000000, 1937.000000, 8212.000000, 8279.000000, 8289.000000
2955, 10835600.000000, 1911.000000, 8228.000000, 8287.000000, 8302.000000
2956, 10835760.000000, 1845.000000, 8246.000000, 8298.000000, 8321.000000
2957, 10835920.000000, 1753.750000, 8265.000000, 8315.000000, 8347.000000
2958, 10836080.000000, 1650.500000, 8288.000000, 8335.000000, 8376.000000
2959, 10836240.000000, 1547.000000, 8296.000000, 8342.000000, 8384.000000
2960, 10836400.000000, 1450.250000, 8287.000000, 8330.000000, 8368.000000
2961, 10836560.000000, 1370.000000, 8255.000000, 8288.000000, 8313.000000
2962, 10836720.000000, 1307.500000, 8202.000000, 8228.000000, 8234.000000
2963, 10836880.000000, 1263.500000, 8156.000000, 8187.000000, 8176.000000
2964, 10837040.000000, 1234.500000, 8134.000000, 8171.000000, 8150.000000
2965, 10837200.000000, 1214.250000, 8134.000000, 8167.000000, 8146.000000
2966, 10837360.000000, 1200.250000, 8140.000000, 8168.000000, 8149.000000
2967, 10837520.000000, 1191.500000, 8145.000000, 8169.000000, 8153.000000
2968, 10837680.000000, 1189.000000, 8149.000000, 8173.000000, 8158.000000
2969, 10837840.000000, 1189.750000, 8151.000000, 8175.000000, 8161.000000
2970, 10838000.000000, 1184.000000, 8154.000000, 8177.000000, 8163.000000
2971, 10838160.000000, 1165.000000, 8155.000000, 8178.000000, 8163.000000
2972, 10838320.000000, 1131.500000, 8154.000000, 8181.000000, 8167.000000
2973, 10838480.000000, 1114.000000, 8153.000000, 8185.000000, 8170.000000
2974, 10838640.000000, 1223.250000, 8154.000000, 8189.000000, 8173.000000
2975, 10838800.000000, 1544.250000, 8156.000000, 8189.000000, 8172.000000
2976, 10838960.000000, 2072.000000, 8159.000000, 8188.000000, 8173.000000
2977, 10839120.000000, 2624.000000, 8156.000000, 8189.000000, 8174.000000
2978, 10839280.000000, 3042.500000, 8157.000000, 8192.000000, 8178.000000
2979, 10839440.000000, 3238.000000, 8164.000000, 8201.000000, 8194.000000
2980, 10839600.000000, 3240.250000, 8167.000000, 8204.000000, 8201.000000
2981, 10839760.000000, 3101.000000, 8176.000000, 8202.000000, 8206.000000
2982, 10839920.000000, 2893.250000, 8172.000000, 8197.000000, 8191.000000
2983, 10840080.000000, 2667.000000, 8158.000000, 8189.000000, 8172.000000
2984, 10840240.000000, 2437.750000, 8163.000000, 8189.000000, 8173.000000
2985, 10840400.000000, 2219.750000, 8179.000000, 8303.000000, 8284.000000
2986, 10840560.000000, 2037.750000, 8572.000000, 7925.000000, 8107.000000
2987, 10840720.000000, 1928.750000, 8017.000000, 7720.000000, 7651.000000
2988, 10840880.000000, 1893.000000, 8141.000000, 8165.000000, 8124.000000
2989, 10841040.000000, 1908.500000, 8176.000000, 8262.000000, 8253.000000
2990, 10841200.000000, 1942.750000, 8185.000000, 8276.000000, 8271.000000
2991, 10841360.000000, 1963.500000, 8195.000000, 8280.000000, 8281.000000
2992, 10841520.000000, 1951.750000, 8206.000000, 8285.000000, 8293.000000
2993, 10841680.000000, 1900.750000, 8221.000000, 8294.000000, 8308.000000
2994, 10841840.000000, 1820.750000, 8238.000000, 8305.000000, 8325.000000
2995, 10842000.000000, 1723.000000, 8262.000000, 8319.000000, 8349.000000
2996, 10842160.000000, 1623.000000, 8281.000000, 8332.000000, 8368.000000
2997, 10842320.000000, 1528.250000, 8286.000000, 8333.000000, 8371.000000
2998, 10842480.000000, 1444.750000, 8273.000000, 8322.000000, 8355.000000
2999, 10842640.000000, 1373.750000, 8241.000000, 8282.000000, 8302.000000
3000, 10842800.000000, 1318.000000, 8193.000000, 8226.000000, 8228.000000
3001, 10842960.000000, 1278.000000, 8150.000000, 8185.000000, 8172.000000
3002, 10843120.000000, 1253.000000, 8128.000000, 8170.000000, 8149.000000
3003, 10843280.000000, 1238.750000, 8127.000000, 8169.000000, 8147.000000
3004, 10843440.000000, 1229.750000, 8134.000000, 8172.000000, 8153.000000
3005, 10843600.000000, 1224.250000, 8141.000000, 8171.000000, 8154.000000
3006, 10843760.000000, 1218.250000, 8146.000000, 8170.000000, 8155.000000
3007, 10843920.000000, 1212.000000, 8146.000000, 8171.000000, 8156.000000
3008, 10844080.000000, 1197.750000, 8146.000000, 8172.000000, 8157.000000
3009, 10844240.000000, 1172.500000, 8145.000000, 8172.000000, 8156.000000
3010, 10844400.000000, 1135.000000, 8147.000000, 8170.000000, 8153.000000
3011, 10844560.000000, 1110.750000, 8146.000000, 8170.000000, 8153.000000
3012, 10844720.000000, 1185.500000, 8148.000000, 8172.000000, 8156.000000
3013, 10844880.000000, 1466.750000, 8148.000000, 8175.000000, 8159.000000
3014, 10845040.000000, 1956.000000, 8151.000000, 8176.000000, 8160.000000
3015, 10845200.000000, 2503.250000, 8153.000000, 8176.000000, 8159.000000
3016, 10845360.000000, 2932.750000, 8159.000000, 8181.000000, 8170.000000
3017, 10845520.000000, 3152.750000, 8160.000000, 8185.000000, 8177.000000
3018, 10845680.000000, 3172.250000, 8170.000000, 8189.000000, 8193.000000
3019, 10845840.000000, 3040.750000, 8173.000000, 8186.000000, 8181.000000
3020, 10846000.000000, 2836.250000, 8162.000000, 8176.000000, 8161.000000
3021, 10846160.000000, 2604.500000, 8163.000000, 8174.000000, 8158.000000
3022, 10846320.000000, 2367.750000, 8173.000000, 8264.000000, 8243.000000
3023, 10846480.000000, 2140.750000, 8555.000000, 8077.000000, 8240.000000
3024, 10846640.000000, 1961.250000, 8093.000000, 7735.000000, 7720.000000
3025, 10846800.000000, 1849.250000, 8103.000000, 8087.000000, 8015.000000
3026, 10846960.000000, 1839.750000, 8179.000000, 8240.000000, 8231.000000
3027, 10847120.000000, 1879.500000, 8189.000000, 8258.000000, 8257.000000
3028, 10847280.000000, 1923.000000, 8196.000000, 8266.000000, 8266.000000
3029, 10847440.000000, 1929.500000, 8211.000000, 8271.000000, 8277.000000
3030, 10847600.000000, 1880.000000, 8228.000000, 8279.000000, 8292.000000
3031, 10847760.000000, 1787.000000, 8246.000000, 8289.000000, 8310.000000
3032, 10847920.000000, 1659.000000, 8265.000000, 8304.000000, 8332.000000
3033, 10848080.000000, 1546.250000, 8288.000000, 8321.000000, 8356.000000
3034, 10848240.000000, 1464.500000, 8295.000000, 8324.000000, 8360.000000
3035, 10848400.000000, 1395.750000, 8281.000000, 8311.000000, 8341.000000
3036, 10848560.000000, 1341.750000, 8251.000000, 8276.000000, 8296.000000
3037, 10848720.000000, 1304.250000, 8201.000000, 8227.000000, 8230.000000
3038, 10848880.000000, 1279.250000, 8158.000000, 8189.000000, 8176.000000
3039, 10849040.000000, 1262.750000, 8139.000000, 8173.000000, 8153.000000
3040, 10849200.000000, 1252.000000, 8138.000000, 8169.000000, 8148.000000
3041, 10849360.000000, 1244.500000, 8142.000000, 8170.000000, 8152.000000
3042, 10849520.000000, 1240.500000, 8149.000000, 8172.000000, 8157.000000
3043, 10849680.000000, 1232.750000, 8155.000000, 8173.000000, 8162.000000
3044, 10849840.000000, 1218.750000, 8157.000000, 8172.000000, 8160.000000
3045, 10850000.000000, 1192.500000, 8157.000000, 8171.000000, 8157.000000
3046, 10850160.000000, 1153.250000, 8154.000000, 8170.000000, 8154.000000
3047, 10850320.000000, 1133.000000, 8152.000000, 8170.000000, 8153.000000
3048, 10850480.000000, 1215.000000, 8152.000000, 8170.000000, 8155.000000
3049, 10850640.000000, 1496.500000, 8155.000000, 8169.000000, 8154.000000
3050, 10850800.000000, 1963.500000, 8157.000000, 8167.000000, 8151.000000
3051, 10850960.000000, 2468.750000, 8157.000000, 8167.000000, 8151.000000
3052, 10851120.000000, 2851.000000, 8159.000000, 8171.000000, 8158.000000
3053, 10851280.000000, 3034.250000, 8167.000000, 8180.000000, 8177.000000
3054, 10851440.000000, 3024.500000, 8175.000000, 8183.000000, 8191.000000
3055, 10851600.000000, 2883.250000, 8180.000000, 8172.000000, 8175.000000
3056, 10851760.000000, 2668.750000, 8167.000000, 8160.000000, 8149.000000
3057, 10851920.000000, 2426.250000, 8163.000000, 8157.000000, 8143.000000
3058, 10852080.000000, 2177.000000, 8163.000000, 8183.000000, 8159.000000
3059, 10852240.000000, 1942.000000, 8377.000000, 8259.000000, 8337.000000
3060, 10852400.000000, 1766.750000, 8441.000000, 7618.000000, 7767.000000
3061, 10852560.000000, 1684.500000, 8010.000000, 7918.000000, 7808.000000
3062, 10852720.000000, 1689.000000, 8182.000000, 8209.000000, 8202.000000
3063, 10852880.000000, 1741.250000, 8190.000000, 8236.000000, 8234.000000
3064, 10853040.000000, 1803.000000, 8201.000000, 8240.000000, 8243.000000
3065, 10853200.000000, 1840.250000, 8210.000000, 8241.000000, 8248.000000
3066, 10853360.000000, 1836.250000, 8224.000000, 8245.000000, 8259.000000
3067, 10853520.000000, 1786.250000, 8240.000000, 8253.000000, 8274.000000
3068, 10853680.000000, 1707.750000, 8261.000000, 8269.000000, 8298.000000
3069, 10853840.000000, 1613.250000, 8282.000000, 8290.000000, 8325.000000
3070, 10854000.000000, 1514.000000, 8297.000000, 8299.000000, 8338.000000
3071, 10854160.000000, 1419.000000, 8289.000000, 8294.000000, 8330.000000
3072, 10854320.000000, 1334.750000, 8265.000000, 8268.000000, 8296.000000
3073, 10854480.000000, 1269.750000, 8220.000000, 8219.000000, 8231.000000
3074, 10854640.000000, 1225.500000, 8175.000000, 8169.000000, 8165.000000
3075, 10854800.000000, 1198.000000, 8144.000000, 8144.000000, 8127.000000
3076, 10854960.000000, 1178.000000, 8135.000000, 8138.000000, 8119.000000
3077, 10855120.000000, 1165.250000, 8140.000000, 8142.000000, 8125.000000
3078, 10855280.000000, 1161.250000, 8147.000000, 8146.000000, 8133.000000
3079, 10855440.000000, 1160.750000, 8154.000000, 8148.000000, 8136.000000
3080, 10855600.000000, 1154.750000, 8157.000000, 8146.000000, 8134.000000
3081, 10855760.000000, 1135.000000, 8156.000000, 8147.000000, 8136.000000
3082, 10855920.000000, 1099.250000, 8155.000000, 8148.000000, 8135.000000
3083, 10856080.000000, 1067.250000, 8154.000000, 8149.000000, 8137.000000
3084, 10856240.000000, 1117.000000, 8155.000000, 8149.000000, 8134.000000
3085, 10856400.000000, 1357.500000, 8156.000000, 8148.000000, 8133.000000
3086, 10856560.000000, 1812.750000, 8155.000000, 8149.000000, 8134.000000
3087, 10856720.000000, 2355.500000, 8155.000000, 8152.000000, 8137.000000
3088, 10856880.000000, 2803.250000, 8158.000000, 8154.000000, 8141.000000
3089, 10857040.000000, 3052.750000, 8162.000000, 8155.000000, 8142.000000
3090, 10857200.000000, 3096.250000, 8172.000000, 8165.000000, 8163.000000
3091, 10857360.000000, 2976.000000, 8174.000000, 8171.000000, 8176.000000
3092, 10857520.000000, 2771.500000, 8178.000000, 8166.000000, 8168.000000
3093, 10857680.000000, 2535.750000, 8172.000000, 8160.000000, 8152.000000
3094, 10857840.000000, 2289.000000, 8167.000000, 8154.000000, 8139.000000
3095, 10858000.000000, 2046.750000, 8169.000000, 8159.000000, 8141.000000
3096, 10858160.000000, 1844.000000, 8268.000000, 8312.000000, 8340.000000
3097, 10858320.000000, 1720.750000, 8551.000000, 7653.000000, 7853.000000
3098, 10858480.000000, 1688.250000, 7976.000000, 7828.000000, 7711.000000
3099, 10858640.000000, 1717.000000, 8182.000000, 8200.000000, 8187.000000
3100, 10858800.000000, 1770.500000, 8192.000000, 8240.000000, 8237.000000
3101, 10858960.000000, 1814.750000, 8197.000000, 8251.000000, 8251.000000
3102, 10859120.000000, 1826.500000, 8206.000000, 8261.000000, 8267.000000
3103, 10859280.000000, 1799.250000, 8220.000000, 8268.000000, 8278.000000
3104, 10859440.000000, 1729.750000, 8239.000000, 8274.000000, 8292.000000
3105, 10859600.000000, 1637.250000, 8256.000000, 8284.000000, 8310.000000
3106, 10859760.000000, 1538.000000, 8274.000000, 8336.000000, 8368.000000
3107, 10859920.000000, 1443.000000, 8294.000000, 8353.000000, 8392.000000
3108, 10860080.000000, 1357.250000, 8294.000000, 8348.000000, 8385.000000
3109, 10860240.000000, 1282.500000, 8276.000000, 8322.000000, 8351.000000
3110, 10860400.000000, 1221.750000, 8236.000000, 8267.000000, 8283.000000
3111, 10860560.000000, 1174.250000, 8183.000000, 8207.000000, 8204.000000
3112, 10860720.000000, 1142.750000, 8147.000000, 8176.000000, 8159.000000
3113, 10860880.000000, 1126.000000, 8134.000000, 8165.000000, 8142.000000
3114, 10861040.000000, 1118.500000, 8138.000000, 8162.000000, 8141.000000
3115, 10861200.000000, 1117.000000, 8144.000000, 8162.000000, 8145.000000
3116, 10861360.000000, 1117.000000, 8149.000000, 8163.000000, 8148.000000
3117, 10861520.000000, 1112.000000, 8152.000000, 8164.000000, 8151.000000
3118, 10861680.000000, 1097.750000, 8154.000000, 8164.000000, 8150.000000
3119, 10861840.000000, 1072.500000, 8155.000000, 8162.000000, 8147.000000
3120, 10862000.000000, 1040.500000, 8152.000000, 8161.000000, 8142.000000
3121, 10862160.000000, 1079.000000, 8149.000000, 8161.000000, 8142.000000
3122, 10862320.000000, 1294.500000, 8149.000000, 8162.000000, 8143.000000
3123, 10862480.000000, 1757.750000, 8153.000000, 8163.000000, 8146.000000
3124, 10862640.000000, 2329.250000, 8156.000000, 8163.000000, 8146.000000
3125, 10862800.000000, 2824.500000, 8155.000000, 8163.000000, 8144.000000
3126, 10862960.000000, 3109.750000, 8157.000000, 8166.000000, 8150.000000
3127, 10863120.000000, 3185.000000, 8162.000000, 8177.000000, 8170.000000
3128, 10863280.000000, 3082.750000, 8171.000000, 8183.000000, 8188.000000
3129, 10863440.000000, 2886.500000, 8178.000000, 8176.000000, 8174.000000
3130, 10863600.000000, 2655.500000, 8163.000000, 8165.000000, 8149.000000
3131, 10863760.000000, 2420.500000, 8159.000000, 8163.000000, 8142.000000
3132, 10863920.000000, 2187.000000, 8157.000000, 8203.000000, 8169.000000
3133, 10864080.000000, 1977.500000, 8414.000000, 8210.000000, 8301.000000
3134, 10864240.000000, 1837.750000, 8401.000000, 7553.000000, 7679.000000
3135, 10864400.000000, 1776.500000, 8038.000000, 7967.000000, 7862.000000
3136, 10864560.000000, 1782.500000, 8177.000000, 8234.000000, 8223.000000
3137, 10864720.000000, 1820.250000, 8183.000000, 8262.000000, 8257.000000
3138, 10864880.000000, 1859.000000, 8194.000000, 8271.000000, 8268.000000
3139, 10865040.000000, 1868.000000, 8207.000000, 8275.000000, 8278.000000
3140, 10865200.000000, 1838.000000, 8221.000000, 8280.000000, 8290.000000
3141, 10865360.000000, 1767.250000, 8237.000000, 8290.000000, 8307.000000
3142, 10865520.000000, 1674.000000, 8257.000000, 8306.000000, 8332.000000
3143, 10865680.000000, 1572.000000, 8281.000000, 8326.000000, 8360.000000
3144, 10865840.000000, 1476.250000, 8294.000000, 8331.000000, 8368.000000
3145, 10866000.000000, 1390.000000, 8284.000000, 8324.000000, 8358.000000
3146, 10866160.000000, 1315.000000, 8259.000000, 8295.000000, 8319.000000
3147, 10866320.000000, 1256.000000, 8213.000000, 8242.000000, 8249.000000
3148, 10866480.000000, 1211.000000, 8168.000000, 8194.000000, 8185.000000
3149, 10866640.000000, 1178.750000, 8140.000000, 8170.000000, 8149.000000
3150, 10866800.000000, 1158.750000, 8133.000000, 8164.000000, 8140.000000
3151, 10866960.000000, 1145.750000, 8136.000000, 8166.000000, 8144.000000
3152, 10867120.000000, 1133.000000, 8143.000000, 8168.000000, 8149.000000
3153, 10867280.000000, 1125.000000, 8150.000000, 8169.000000, 8152.000000
3154, 10867440.000000, 1115.000000, 8154.000000, 8168.000000, 8152.000000
3155, 10867600.000000, 1097.750000, 8154.000000, 8166.000000, 8150.000000
3156, 10867760.000000, 1069.500000, 8152.000000, 8166.000000, 8149.000000
3157, 10867920.000000, 1039.250000, 8150.000000, 8167.000000, 8150.000000
3158, 10868080.000000, 1090.250000, 8153.000000, 8168.000000, 8151.000000
3159, 10868240.000000, 1324.750000, 8154.000000, 8167.000000, 8149.000000
3160, 10868400.000000, 1786.750000, 8155.000000, 8166.000000, 8149.000000
3161, 10868560.000000, 2333.000000, 8154.000000, 8166.000000, 8148.000000
3162, 10868720.000000, 2792.250000, 8157.000000, 8170.000000, 8156.000000
3163, 10868880.000000, 3041.000000, 8165.000000, 8178.000000, 8171.000000
3164, 10869040.000000, 3088.250000, 8176.000000, 8182.000000, 8188.000000
3165, 10869200.000000, 2978.500000, 8178.000000, 8176.000000, 8174.000000
3166, 10869360.000000, 2782.250000, 8162.000000, 8168.000000, 8153.000000
3167, 10869520.000000, 2561.250000, 8163.000000, 8166.000000, 8150.000000
3168, 10869680.000000, 2333.000000, 8161.000000, 8205.000000, 8174.000000
3169, 10869840.000000, 2108.250000, 8445.000000, 8235.000000, 8339.000000
3170, 10870000.000000, 1919.500000, 8383.000000, 7659.000000, 7775.000000
3171, 10870160.000000, 1806.250000, 8035.000000, 7968.000000, 7867.000000
3172, 10870320.000000, 1770.500000, 8180.000000, 8218.000000, 8207.000000
3173, 10870480.000000, 1791.000000, 8190.000000, 8241.000000, 8235.000000
3174, 10870640.000000, 1834.500000, 8200.000000, 8248.000000, 8248.000000
3175, 10870800.000000, 1869.500000, 8208.000000, 8254.000000, 8258.000000
3176, 10870960.000000, 1872.750000, 8223.000000, 8261.000000, 8271.000000
3177, 10871120.000000, 1837.000000, 8242.000000, 8274.000000, 8292.000000
3178, 10871280.000000, 1766.250000, 8263.000000, 8288.000000, 8314.000000
3179, 10871440.000000, 1674.500000, 8286.000000, 8305.000000, 8339.000000
3180, 10871600.000000, 1580.250000, 8297.000000, 8310.000000, 8347.000000
3181, 10871760.000000, 1491.500000, 8287.000000, 8304.000000, 8338.000000
3182, 10871920.000000, 1411.500000, 8262.000000, 8280.000000, 8302.000000
3183, 10872080.000000, 1343.250000, 8218.000000, 8233.000000, 8241.000000
3184, 10872240.000000, 1289.000000, 8170.000000, 8188.000000, 8179.000000
3185, 10872400.000000, 1246.500000, 8142.000000, 8167.000000, 8149.000000
3186, 10872560.000000, 1219.000000, 8135.000000, 8164.000000, 8145.000000
3187, 10872720.000000, 1202.750000, 8142.000000, 8167.000000, 8151.000000
3188, 10872880.000000, 1192.000000, 8149.000000, 8170.000000, 8155.000000
3189, 10873040.000000, 1184.250000, 8156.000000, 8170.000000, 8159.000000
3190, 10873200.000000, 1175.000000, 8158.000000, 8168.000000, 8157.000000
3191, 10873360.000000, 1162.250000, 8157.000000, 8169.000000, 8159.000000
3192, 10873520.000000, 1142.250000, 8155.000000, 8168.000000, 8155.000000
3193, 10873680.000000, 1118.250000, 8154.000000, 8167.000000, 8153.000000
3194, 10873840.000000, 1127.500000, 8155.000000, 8166.000000, 8151.000000
3195, 10874000.000000, 1282.250000, 8153.000000, 8166.000000, 8151.000000
3196, 10874160.000000, 1632.750000, 8154.000000, 8167.000000, 8153.000000
3197, 10874320.000000, 2116.500000, 8158.000000, 8171.000000, 8160.000000
3198, 10874480.000000, 2565.250000, 8165.000000, 8179.000000, 8176.000000
3199, 10874640.000000, 2860.250000, 8174.000000, 8183.000000, 8192.000000
3200, 10874800.000000, 2954.000000, 8174.000000, 8177.000000, 8178.000000
3201, 10874960.000000, 2888.000000, 8161.000000, 8168.000000, 8155.000000
3202, 10875120.000000, 2722.250000, 8162.000000, 8167.000000, 8154.000000
3203, 10875280.000000, 2508.500000, 8162.000000, 8224.000000, 8197.000000
3204, 10875440.000000, 2276.000000, 8485.000000, 8188.000000, 8314.000000
3205, 10875600.000000, 2038.500000, 8305.000000, 7665.000000, 7749.000000
3206, 10875760.000000, 1838.500000, 8052.000000, 8005.000000, 7911.000000
3207, 10875920.000000, 1709.250000, 8176.000000, 8229.000000, 8220.000000
3208, 10876080.000000, 1675.500000, 8186.000000, 8251.000000, 8248.000000
3209, 10876240.000000, 1705.250000, 8195.000000, 8257.000000, 8258.000000
3210, 10876400.000000, 1764.750000, 8206.000000, 8262.000000, 8268.000000
3211, 10876560.000000, 1817.000000, 8220.000000, 8272.000000, 8284.000000
3212, 10876720.000000, 1838.000000, 8239.000000, 8285.000000, 8305.000000
3213, 10876880.000000, 1815.000000, 8261.000000, 8301.000000, 8328.000000
3214, 10877040.000000, 1750.500000, 8285.000000, 8317.000000, 8352.000000
3215, 10877200.000000, 1666.500000, 8293.000000, 8322.000000, 8360.000000
3216, 10877360.000000, 1570.500000, 8284.000000, 8314.000000, 8348.000000
3217, 10877520.000000, 1479.500000, 8256.000000, 8286.000000, 8308.000000
3218, 10877680.000000, 1397.750000, 8210.000000, 8236.000000, 8243.000000
3219, 10877840.000000, 1331.250000, 8161.000000, 8191.000000, 8178.000000
3220, 10878000.000000, 1280.250000, 8137.000000, 8172.000000, 8151.000000
3221, 10878160.000000, 1245.000000, 8133.000000, 8169.000000, 8149.000000
3222, 10878320.000000, 1219.250000, 8139.000000, 8171.000000, 8155.000000
3223, 10878480.000000, 1204.250000, 8147.000000, 8173.000000, 8158.000000
3224, 10878640.000000, 1195.750000, 8152.000000, 8173.000000, 8160.000000
3225, 10878800.000000, 1189.000000, 8156.000000, 8173.000000, 8162.000000
3226, 10878960.000000, 1175.750000, 8153.000000, 8173.000000, 8160.000000
3227, 10879120.000000, 1153.250000, 8153.000000, 8172.000000, 8159.000000
3228, 10879280.000000, 1128.750000, 8153.000000, 8172.000000, 8157.000000
3229, 10879440.000000, 1151.750000, 8153.000000, 8171.000000, 8154.000000
3230, 10879600.000000, 1336.250000, 8152.000000, 8171.000000, 8154.000000
3231, 10879760.000000, 1717.250000, 8153.000000, 8173.000000, 8158.000000
3232, 10879920.000000, 2219.000000, 8154.000000, 8173.000000, 8159.000000
3233, 10880080.000000, 2664.750000, 8160.000000, 8179.000000, 8167.000000
3234, 10880240.000000, 2943.000000, 8164.000000, 8183.000000, 8176.000000
3235, 10880400.000000, 3015.500000, 8171.000000, 8187.000000, 8194.000000
3236, 10880560.000000, 2934.250000, 8172.000000, 8183.000000, 8179.000000
3237, 10880720.000000, 2759.250000, 8162.000000, 8175.000000, 8160.000000
3238, 10880880.000000, 2545.000000, 8164.000000, 8173.000000, 8156.000000
3239, 10881040.000000, 2321.250000, 8167.000000, 8257.000000, 8230.000000
3240, 10881200.000000, 2097.750000, 8537.000000, 8066.000000, 8221.000000
3241, 10881360.000000, 1908.250000, 8165.000000, 7662.000000, 7673.000000
3242, 10881520.000000, 1790.250000, 8098.000000, 8075.000000, 8000.000000
3243, 10881680.000000, 1759.000000, 8181.000000, 8243.000000, 8233.000000
3244, 10881840.000000, 1786.000000, 8189.000000, 8261.000000, 8256.000000
3245, 10882000.000000, 1834.750000, 8196.000000, 8269.000000, 8269.000000
3246, 10882160.000000, 1871.500000, 8209.000000, 8275.000000, 8281.000000
3247, 10882320.000000, 1878.000000, 8227.000000, 8284.000000, 8298.000000
3248, 10882480.000000, 1842.750000, 8246.000000, 8296.000000, 8317.000000
3249, 10882640.000000, 1774.500000, 8266.000000, 8313.000000, 8343.000000
3250, 10882800.000000, 1684.500000, 8289.000000, 8331.000000, 8369.000000
3251, 10882960.000000, 1590.750000, 8297.000000, 8337.000000, 8378.000000
3252, 10883120.000000, 1503.250000, 8287.000000, 8327.000000, 8365.000000
3253, 10883280.000000, 1429.000000, 8256.000000, 8289.000000, 8313.000000
3254, 10883440.000000, 1366.500000, 8205.000000, 8231.000000, 8237.000000
3255, 10883600.000000, 1319.000000, 8156.000000, 8188.000000, 8175.000000
3256, 10883760.000000, 1284.000000, 8135.000000, 8171.000000, 8152.000000
3257, 10883920.000000, 1260.000000, 8133.000000, 8170.000000, 8150.000000
3258, 10884080.000000, 1242.500000, 8140.000000, 8171.000000, 8152.000000
3259, 10884240.000000, 1234.500000, 8147.000000, 8173.000000, 8158.000000
3260, 10884400.000000, 1229.500000, 8151.000000, 8174.000000, 8160.000000
3261, 10884560.000000, 1224.000000, 8152.000000, 8175.000000, 8162.000000
3262, 10884720.000000, 1207.250000, 8157.000000, 8175.000000, 8163.000000
3263, 10884880.000000, 1179.000000, 8157.000000, 8174.000000, 8160.000000
3264, 10885040.000000, 1160.250000, 8154.000000, 8173.000000, 8157.000000
3265, 10885200.000000, 1242.250000, 8152.000000, 8172.000000, 8155.000000
3266, 10885360.000000, 1518.750000, 8152.000000, 8173.000000, 8156.000000
3267, 10885520.000000, 2004.750000, 8155.000000, 8175.000000, 8158.000000
3268, 10885680.000000, 2543.000000, 8158.000000, 8175.000000, 8158.000000
3269, 10885840.000000, 2965.500000, 8157.000000, 8176.000000, 8160.000000
3270, 10886000.000000, 3175.750000, 8165.000000, 8183.000000, 8178.000000
3271, 10886160.000000, 3191.000000, 8166.000000, 8191.000000, 8191.000000
3272, 10886320.000000, 3060.500000, 8173.000000, 8189.000000, 8193.000000
3273, 10886480.000000, 2868.500000, 8174.000000, 8183.000000, 8178.000000
3274, 10886640.000000, 2662.750000, 8162.000000, 8174.000000, 8159.000000
3275, 10886800.000000, 2452.000000, 8161.000000, 8174.000000, 8157.000000
3276, 10886960.000000, 2245.000000, 8177.000000, 8293.000000, 8276.000000
3277, 10887120.000000, 2065.750000, 8569.000000, 7901.000000, 8085.000000
3278, 10887280.000000, 1958.500000, 8044.000000, 7689.000000, 7630.000000
3279, 10887440.000000, 1921.750000, 8142.000000, 8155.000000, 8115.000000
3280, 10887600.000000, 1932.750000, 8178.000000, 8256.000000, 8252.000000
3281, 10887760.000000, 1960.250000, 8185.000000, 8273.000000, 8273.000000
3282, 10887920.000000, 1974.750000, 8197.000000, 8280.000000, 8284.000000
3283, 10888080.000000, 1955.250000, 8210.000000, 8284.000000, 8293.000000
3284, 10888240.000000, 1901.000000, 8224.000000, 8291.000000, 8307.000000
3285, 10888400.000000, 1817.750000, 8241.000000, 8303.000000, 8325.000000
3286, 10888560.000000, 1721.000000, 8265.000000, 8321.000000, 8353.000000
3287, 10888720.000000, 1622.250000, 8288.000000, 8336.000000, 8375.000000
3288, 10888880.000000, 1531.500000, 8298.000000, 8337.000000, 8377.000000
3289, 10889040.000000, 1452.250000, 8284.000000, 8323.000000, 8359.000000
3290, 10889200.000000, 1388.000000, 8248.000000, 8282.000000, 8304.000000
3291, 10889360.000000, 1339.000000, 8194.000000, 8225.000000, 8227.000000
3292, 10889520.000000, 1305.750000, 8151.000000, 8186.000000, 8170.000000
3293, 10889680.000000, 1283.250000, 8134.000000, 8171.000000, 8148.000000
3294, 10889840.000000, 1266.500000, 8130.000000, 8168.000000, 8144.000000
3295, 10890000.000000, 1251.750000, 8135.000000, 8170.000000, 8149.000000
3296, 10890160.000000, 1240.750000, 8142.000000, 8172.000000, 8154.000000
3297, 10890320.000000, 1233.000000, 8151.000000, 8174.000000, 8160.000000
3298, 10890480.000000, 1219.750000, 8155.000000, 8172.000000, 8157.000000
3299, 10890640.000000, 1190.000000, 8154.000000, 8170.000000, 8154.000000
3300, 10890800.000000, 1147.250000, 8151.000000, 8169.000000, 8153.000000
3301, 10890960.000000, 1124.250000, 8149.000000, 8169.000000, 8152.000000
3302, 10891120.000000, 1222.750000, 8151.000000, 8169.000000, 8151.000000
3303, 10891280.000000, 1528.750000, 8151.000000, 8168.000000, 8150.000000
3304, 10891440.000000, 2042.250000, 8151.000000, 8168.000000, 8150.000000
3305, 10891600.000000, 2587.500000, 8150.000000, 8168.000000, 8151.000000
3306, 10891760.000000, 3004.250000, 8153.000000, 8171.000000, 8156.000000
3307, 10891920.000000, 3195.500000, 8157.000000, 8173.000000, 8159.000000
3308, 10892080.000000, 3194.250000, 8165.000000, 8178.000000, 8171.000000
3309, 10892240.000000, 3060.250000, 8173.000000, 8184.000000, 8190.000000
3310, 10892400.000000, 2873.500000, 8175.000000, 8179.000000, 8179.000000
3311, 10892560.000000, 2678.000000, 8161.000000, 8172.000000, 8159.000000
3312, 10892720.000000, 2476.250000, 8163.000000, 8168.000000, 8154.000000
3313, 10892880.000000, 2269.500000, 8159.000000, 8199.000000, 8172.000000
3314, 10893040.000000, 2092.500000, 8408.000000, 8250.000000, 8341.000000
3315, 10893200.000000, 1980.750000, 8433.000000, 7646.000000, 7788.000000
3316, 10893360.000000, 1936.000000, 8018.000000, 7957.000000, 7850.000000
3317, 10893520.000000, 1936.500000, 8174.000000, 8223.000000, 8212.000000
3318, 10893680.000000, 1951.500000, 8184.000000, 8248.000000, 8244.000000
3319, 10893840.000000, 1956.750000, 8190.000000, 8256.000000, 8256.000000
3320, 10894000.000000, 1931.750000, 8201.000000, 8262.000000, 8267.000000
3321, 10894160.000000, 1870.250000, 8217.000000, 8270.000000, 8282.000000
3322, 10894320.000000, 1784.500000, 8236.000000, 8280.000000, 8300.000000
3323, 10894480.000000, 1683.750000, 8257.000000, 8295.000000, 8323.000000
3324, 10894640.000000, 1585.500000, 8279.000000, 8310.000000, 8345.000000
3325, 10894800.000000, 1495.500000, 8294.000000, 8317.000000, 8356.000000
3326, 10894960.000000, 1416.250000, 8291.000000, 8312.000000, 8349.000000
3327, 10895120.000000, 1356.000000, 8267.000000, 8288.000000, 8315.000000
3328, 10895280.000000, 1311.000000, 8220.000000, 8242.000000, 8252.000000
3329, 10895440.000000, 1280.750000, 8169.000000, 8195.000000, 8189.000000
3330, 10895600.000000, 1261.500000, 8137.000000, 8171.000000, 8152.000000
3331, 10895760.000000, 1246.750000, 8128.000000, 8166.000000, 8145.000000
3332, 10895920.000000, 1233.500000, 8134.000000, 8168.000000, 8149.000000
3333, 10896080.000000, 1224.500000, 8141.000000, 8169.000000, 8152.000000
3334, 10896240.000000, 1218.750000, 8147.000000, 8170.000000, 8155.000000
3335, 10896400.000000, 1207.500000, 8152.000000, 8171.000000, 8158.000000
3336, 10896560.000000, 1189.250000, 8156.000000, 8172.000000, 8161.000000
3337, 10896720.000000, 1157.000000, 8154.000000, 8171.000000, 8157.000000
3338, 10896880.000000, 1115.250000, 8153.000000, 8169.000000, 8154.000000
3339, 10897040.000000, 1106.000000, 8150.000000, 8168.000000, 8153.000000
3340, 10897200.000000, 1223.250000, 8149.000000, 8169.000000, 8152.000000
3341, 10897360.000000, 1555.250000, 8150.000000, 8170.000000, 8155.000000
3342, 10897520.000000, 2053.000000, 8153.000000, 8171.000000, 8156.000000
3343, 10897680.000000, 2550.000000, 8154.000000, 8170.000000, 8154.000000
3344, 10897840.000000, 2887.500000, 8158.000000, 8177.000000, 8166.000000
3345, 10898000.000000, 3017.000000, 8159.000000, 8181.000000, 8176.000000
3346, 10898160.000000, 2971.250000, 8168.000000, 8182.000000, 8185.000000
3347, 10898320.000000, 2815.000000, 8170.000000, 8179.000000, 8172.000000
3348, 10898480.000000, 2616.500000, 8159.000000, 8170.000000, 8155.000000
3349, 10898640.000000, 2408.750000, 8160.000000, 8170.000000, 8154.000000
3350, 10898800.000000, 2196.250000, 8183.000000, 8293.000000, 8284.000000
3351, 10898960.000000, 1998.750000, 8591.000000, 7942.000000, 8133.000000
3352, 10899120.000000, 1850.500000, 7999.000000, 7773.000000, 7704.000000
3353, 10899280.000000, 1774.750000, 8134.000000, 8139.000000, 8086.000000
3354, 10899440.000000, 1765.000000, 8175.000000, 8240.000000, 8232.000000
3355, 10899600.000000, 1790.250000, 8182.000000, 8256.000000, 8253.000000
3356, 10899760.000000, 1818.000000, 8193.000000, 8265.000000, 8267.000000
3357, 10899920.000000, 1824.250000, 8208.000000, 8270.000000, 8278.000000
3358, 10900080.000000, 1790.000000, 8225.000000, 8278.000000, 8293.000000
3359, 10900240.000000, 1720.500000, 8244.000000, 8290.000000, 8312.000000
3360, 10900400.000000, 1627.000000, 8264.000000, 8309.000000, 8340.000000
3361, 10900560.000000, 1525.750000, 8291.000000, 8326.000000, 8367.000000
3362, 10900720.000000, 1430.000000, 8299.000000, 8327.000000, 8369.000000
3363, 10900880.000000, 1347.750000, 8286.000000, 8312.000000, 8348.000000
3364, 10901040.000000, 1281.000000, 8245.000000, 8274.000000, 8296.000000
3365, 10901200.000000, 1228.750000, 8192.000000, 8221.000000, 8224.000000
3366, 10901360.000000, 1192.000000, 8148.000000, 8185.000000, 8171.000000
3367, 10901520.000000, 1168.000000, 8132.000000, 8171.000000, 8150.000000
3368, 10901680.000000, 1150.500000, 8130.000000, 8169.000000, 8147.000000
3369, 10901840.000000, 1138.000000, 8133.000000, 8171.000000, 8151.000000
3370, 10902000.000000, 1128.750000, 8142.000000, 8174.000000, 8158.000000
3371, 10902160.000000, 1121.000000, 8149.000000, 8177.000000, 8164.000000
3372, 10902320.000000, 1110.250000, 8153.000000, 8175.000000, 8162.000000
3373, 10902480.000000, 1092.500000, 8152.000000, 8172.000000, 8157.000000
3374, 10902640.000000, 1065.000000, 8149.000000, 8171.000000, 8154.000000
3375, 10902800.000000, 1039.750000, 8147.000000, 8172.000000, 8155.000000
3376, 10902960.000000, 1071.000000, 8145.000000, 8173.000000, 8155.000000
3377, 10903120.000000, 1267.000000, 8150.000000, 8174.000000, 8157.000000
3378, 10903280.000000, 1667.750000, 8150.000000, 8174.000000, 8157.000000
3379, 10903440.000000, 2179.750000, 8150.000000, 8175.000000, 8158.000000
3380, 10903600.000000, 2626.500000, 8153.000000, 8177.000000, 8162.000000
3381, 10903760.000000, 2892.000000, 8154.000000, 8178.000000, 8162.000000
3382, 10903920.000000, 2948.750000, 8163.000000, 8186.000000, 8178.000000
3383, 10904080.000000, 2858.000000, 8166.000000, 8189.000000, 8185.000000
3384, 10904240.000000, 2681.000000, 8172.000000, 8188.000000, 8190.000000
3385, 10904400.000000, 2479.500000, 8173.000000, 8185.000000, 8180.000000
3386, 10904560.000000, 2275.500000, 8161.000000, 8178.000000, 8163.000000
3387, 10904720.000000, 2063.250000, 8164.000000, 8177.000000, 8160.000000
3388, 10904880.000000, 1871.250000, 8182.000000, 8293.000000, 8276.000000
3389, 10905040.000000, 1738.500000, 8572.000000, 7927.000000, 8107.000000
3390, 10905200.000000, 1688.000000, 8045.000000, 7713.000000, 7658.000000
3391, 10905360.000000, 1696.000000, 8137.000000, 8147.000000, 8098.000000
3392, 10905520.000000, 1729.500000, 8183.000000, 8254.000000, 8249.000000
3393, 10905680.000000, 1754.000000, 8191.000000, 8270.000000, 8270.000000
3394, 10905840.000000, 1750.000000, 8199.000000, 8275.000000, 8279.000000
3395, 10906000.000000, 1707.750000, 8210.000000, 8283.000000, 8292.000000
3396, 10906160.000000, 1634.500000, 8226.000000, 8292.000000, 8308.000000
3397, 10906320.000000, 1543.750000, 8248.000000, 8303.000000, 8329.000000
3398, 10906480.000000, 1449.500000, 8269.000000, 8320.000000, 8354.000000
3399, 10906640.000000, 1361.750000, 8293.000000, 8338.000000, 8382.000000
3400, 10906800.000000, 1284.250000, 8302.000000, 8343.000000, 8389.000000
3401, 10906960.000000, 1221.500000, 8293.000000, 8332.000000, 8374.000000
3402, 10907120.000000, 1174.000000, 8260.000000, 8289.000000, 8317.000000
3403, 10907280.000000, 1141.500000, 8202.000000, 8231.000000, 8235.000000
3404, 10907440.000000, 1120.750000, 8155.000000, 8189.000000, 8176.000000
3405, 10907600.000000, 1106.750000, 8133.000000, 8174.000000, 8152.000000
3406, 10907760.000000, 1096.000000, 8132.000000, 8172.000000, 8151.000000
3407, 10907920.000000, 1088.500000, 8137.000000, 8173.000000, 8152.000000
3408, 10908080.000000, 1085.250000, 8143.000000, 8174.000000, 8155.000000
3409, 10908240.000000, 1083.500000, 8147.000000, 8175.000000, 8160.000000
3410, 10908400.000000, 1075.250000, 8150.000000, 8177.000000, 8164.000000
3411, 10908560.000000, 1053.250000, 8153.000000, 8178.000000, 8165.000000
3412, 10908720.000000, 1020.750000, 8153.000000, 8178.000000, 8163.000000
3413, 10908880.000000, 992.750000, 8152.000000, 8177.000000, 8160.000000
3414, 10909040.000000, 1048.500000, 8150.000000, 8175.000000, 8158.000000
3415, 10909200.000000, 1290.250000, 8149.000000, 8177.000000, 8160.000000
3416, 10909360.000000, 1768.000000, 8150.000000, 8177.000000, 8160.000000
3417, 10909520.000000, 2332.250000, 8153.000000, 8176.000000, 8159.000000
3418, 10909680.000000, 2802.500000, 8155.000000, 8176.000000, 8159.000000
3419, 10909840.000000, 3053.750000, 8154.000000, 8175.000000, 8159.000000
3420, 10910000.000000, 3095.000000, 8158.000000, 8177.000000, 8164.000000
3421, 10910160.000000, 2982.000000, 8168.000000, 8188.000000, 8185.000000
3422, 10910320.000000, 2796.750000, 8173.000000, 8191.000000, 8195.000000
3423, 10910480.000000, 2598.500000, 8178.000000, 8184.000000, 8182.000000
3424, 10910640.000000, 2405.250000, 8173.000000, 8178.000000, 8169.000000
3425, 10910800.000000, 2205.000000, 8163.000000, 8173.000000, 8157.000000
3426, 10910960.000000, 2013.000000, 8165.000000, 8179.000000, 8160.000000
3427, 10911120.000000, 1869.000000, 8260.000000, 8327.000000, 8349.000000
3428, 10911280.000000, 1788.250000, 8599.000000, 7648.000000, 7860.000000
3429, 10911440.000000, 1761.500000, 7981.000000, 7834.000000, 7715.000000
3430, 10911600.000000, 1765.000000, 8174.000000, 8215.000000, 8198.000000
3431, 10911760.000000, 1773.000000, 8183.000000, 8259.000000, 8254.000000
3432, 10911920.000000, 1763.000000, 8191.000000, 8268.000000, 8265.000000
3433, 10912080.000000, 1721.750000, 8201.000000, 8268.000000, 8271.000000
3434, 10912240.000000, 1650.250000, 8212.000000, 8274.000000, 8282.000000
3435, 10912400.000000, 1555.250000, 8231.000000, 8282.000000, 8297.000000
3436, 10912560.000000, 1455.000000, 8250.000000, 8294.000000, 8316.000000
3437, 10912720.000000, 1359.000000, 8274.000000, 8310.000000, 8340.000000
3438, 10912880.000000, 1274.000000, 8297.000000, 8321.000000, 8360.000000
3439, 10913040.000000, 1201.500000, 8300.000000, 8320.000000, 8359.000000
3440, 10913200.000000, 1142.250000, 8286.000000, 8305.000000, 8339.000000
3441, 10913360.000000, 1100.750000, 8245.000000, 8263.000000, 8283.000000
3442, 10913520.000000, 1075.000000, 8187.000000, 8211.000000, 8207.000000
3443, 10913680.000000, 1062.000000, 8144.000000, 8177.000000, 8158.000000
3444, 10913840.000000, 1053.750000, 8128.000000, 8168.000000, 8143.000000
3445, 10914000.000000, 1048.250000, 8126.000000, 8172.000000, 8147.000000
3446, 10914160.000000, 1041.500000, 8137.000000, 8176.000000, 8155.000000
3447, 10914320.000000, 1036.250000, 8147.000000, 8175.000000, 8158.000000
3448, 10914480.000000, 1027.000000, 8149.000000, 8175.000000, 8158.000000
3449, 10914640.000000, 1011.750000, 8151.000000, 8175.000000, 8159.000000
3450, 10914800.000000, 987.750000, 8150.000000, 8174.000000, 8159.000000
3451, 10914960.000000, 952.250000, 8151.000000, 8174.000000, 8156.000000
3452, 10915120.000000, 926.750000, 8152.000000, 8173.000000, 8154.000000
3453, 10915280.000000, 974.500000, 8149.000000, 8171.000000, 8152.000000
3454, 10915440.000000, 1227.500000, 8150.000000, 8172.000000, 8155.000000
3455, 10915600.000000, 1691.250000, 8151.000000, 8172.000000, 8154.000000
3456, 10915760.000000, 2247.500000, 8153.000000, 8173.000000, 8156.000000
3457, 10915920.000000, 2696.000000, 8156.000000, 8173.000000, 8156.000000
3458, 10916080.000000, 2945.000000, 8159.000000, 8172.000000, 8157.000000
3459, 10916240.000000, 2977.500000, 8165.000000, 8182.000000, 8177.000000
3460, 10916400.000000, 2861.250000, 8171.000000, 8187.000000, 8192.000000
3461, 10916560.000000, 2674.250000, 8176.000000, 8182.000000, 8182.000000
3462, 10916720.000000, 2478.500000, 8170.000000, 8174.000000, 8163.000000
3463, 10916880.000000, 2283.250000, 8164.000000, 8169.000000, 8154.000000
3464, 10917040.000000, 2084.750000, 8162.000000, 8184.000000, 8161.000000
3465, 10917200.000000, 1903.500000, 8328.000000, 8313.000000, 8369.000000
3466, 10917360.000000, 1772.500000, 8521.000000, 7700.000000, 7882.000000
3467, 10917520.000000, 1712.500000, 7994.000000, 7906.000000, 7795.000000
3468, 10917680.000000, 1703.500000, 8175.000000, 8209.000000, 8193.000000
3469, 10917840.000000, 1723.500000, 8184.000000, 8245.000000, 8239.000000
3470, 10918000.000000, 1740.250000, 8196.000000, 8258.000000, 8258.000000
3471, 10918160.000000, 1731.750000, 8207.000000, 8263.000000, 8268.000000
3472, 10918320.000000, 1685.750000, 8223.000000, 8268.000000, 8280.000000
3473, 10918480.000000, 1611.250000, 8237.000000, 8278.000000, 8297.000000
3474, 10918640.000000, 1520.500000, 8257.000000, 8293.000000, 8321.000000
3475, 10918800.000000, 1425.500000, 8280.000000, 8311.000000, 8345.000000
3476, 10918960.000000, 1336.250000, 8302.000000, 8322.000000, 8364.000000
3477, 10919120.000000, 1259.250000, 8302.000000, 8318.000000, 8358.000000
3478, 10919280.000000, 1198.500000, 8279.000000, 8298.000000, 8331.000000
3479, 10919440.000000, 1149.000000, 8233.000000, 8255.000000, 8271.000000
3480, 10919600.000000, 1111.500000, 8178.000000, 8206.000000, 8202.000000
3481, 10919760.000000, 1084.000000, 8143.000000, 8178.000000, 8161.000000
3482, 10919920.000000, 1067.250000, 8131.000000, 8167.000000, 8146.000000
3483, 10920080.000000, 1057.000000, 8132.000000, 8168.000000, 8149.000000
3484, 10920240.000000, 1049.500000, 8136.000000, 8170.000000, 8152.000000
3485, 10920400.000000, 1044.250000, 8145.000000, 8172.000000, 8158.000000
3486, 10920560.000000, 1033.250000, 8151.000000, 8173.000000, 8159.000000
3487, 10920720.000000, 1017.000000, 8154.000000, 8171.000000, 8159.000000
3488, 10920880.000000, 993.750000, 8151.000000, 8169.000000, 8153.000000
3489, 10921040.000000, 959.000000, 8147.000000, 8169.000000, 8152.000000
3490, 10921200.000000, 921.250000, 8147.000000, 8170.000000, 8153.000000
3491, 10921360.000000, 935.750000, 8149.000000, 8170.000000, 8151.000000
3492, 10921520.000000, 1098.500000, 8151.000000, 8169.000000, 8151.000000
3493, 10921680.000000, 1472.250000, 8150.000000, 8170.000000, 8151.000000
3494, 10921840.000000, 1967.250000, 8152.000000, 8171.000000, 8154.000000
3495, 10922000.000000, 2417.750000, 8154.000000, 8172.000000, 8156.000000
3496, 10922160.000000, 2690.000000, 8163.000000, 8179.000000, 8171.000000
3497, 10922320.000000, 2765.000000, 8165.000000, 8184.000000, 8179.000000
3498, 10922480.000000, 2689.250000, 8172.000000, 8183.000000, 8185.000000
3499, 10922640.000000, 2522.000000, 8171.000000, 8179.000000, 8174.000000
3500, 10922800.000000, 2322.750000, 8160.000000, 8171.000000, 8155.000000
3501, 10922960.000000, 2112.750000, 8163.000000, 8170.000000, 8152.000000
3502, 10923120.000000, 1898.500000, 8176.000000, 8272.000000, 8251.000000
3503, 10923280.000000, 1702.000000, 8558.000000, 7990.000000, 8159.000000
3504, 10923440.000000, 1567.750000, 8076.000000, 7697.000000, 7661.000000
3505, 10923600.000000, 1514.250000, 8117.000000, 8109.000000, 8046.000000
3506, 10923760.000000, 1523.500000, 8178.000000, 8242.000000, 8234.000000
3507, 10923920.000000, 1560.000000, 8187.000000, 8258.000000, 8254.000000
3508, 10924080.000000, 1593.500000, 8194.000000, 8263.000000, 8265.000000
3509, 10924240.000000, 1602.000000, 8209.000000, 8268.000000, 8276.000000
3510, 10924400.000000, 1574.500000, 8224.000000, 8276.000000, 8290.000000
3511, 10924560.000000, 1513.250000, 8244.000000, 8288.000000, 8310.000000
3512, 10924720.000000, 1429.000000, 8267.000000, 8305.000000, 8336.000000
3513, 10924880.000000, 1338.000000, 8291.000000, 8323.000000, 8364.000000
3514, 10925040.000000, 1249.750000, 8303.000000, 8329.000000, 8374.000000
3515, 10925200.000000, 1169.750000, 8295.000000, 8320.000000, 8360.000000
3516, 10925360.000000, 1101.250000, 8264.000000, 8281.000000, 8308.000000
3517, 10925520.000000, 1048.500000, 8207.000000, 8224.000000, 8231.000000
3518, 10925680.000000, 1008.500000, 8157.000000, 8180.000000, 8168.000000
3519, 10925840.000000, 981.000000, 8133.000000, 8165.000000, 8143.000000
3520, 10926000.000000, 964.500000, 8129.000000, 8164.000000, 8141.000000
3521, 10926160.000000, 953.000000, 8135.000000, 8167.000000, 8146.000000
