3009, 8540360.000000, 1365.750000, 8145.000000, 8169.500000, 8155.500000
3010, 8540520.000000, 1325.250000, 8149.500000, 8168.000000, 8158.000000
3011, 8540680.000000, 1293.500000, 8156.000000, 8169.500000, 8160.500000
3012, 8540840.000000, 1268.000000, 8162.500000, 8171.000000, 8164.500000
3013, 8541000.000000, 1246.875000, 8166.000000, 8170.000000, 8163.000000
3014, 8541160.000000, 1220.375000, 8166.000000, 8167.000000, 8160.000000
3015, 8541320.000000, 1177.750000, 8163.000000, 8163.500000, 8154.500000
3016, 8541480.000000, 1103.250000, 8160.500000, 8164.000000, 8152.500000
3017, 8541640.000000, 1110.875000, 8162.000000, 8165.000000, 8154.000000
3018, 8541800.000000, 1427.875000, 8165.000000, 8163.500000, 8151.000000
3019, 8541960.000000, 1906.625000, 8165.000000, 8163.000000, 8152.000000
3020, 8542120.000000, 2261.875000, 8165.500000, 8165.000000, 8153.500000
3021, 8542280.000000, 2468.625000, 8167.000000, 8166.500000, 8155.500000
3022, 8542440.000000, 2514.250000, 8169.500000, 8168.500000, 8158.000000
3023, 8542600.000000, 2439.875000, 8174.500000, 8170.000000, 8162.500000
3024, 8542760.000000, 2305.750000, 8180.000000, 8178.000000, 8180.000000
3025, 8542920.000000, 2163.250000, 8189.000000, 8182.500000, 8195.500000
3026, 8543080.000000, 2026.625000, 8189.500000, 8176.500000, 8182.000000
3027, 8543240.000000, 1890.750000, 8178.500000, 8167.500000, 8161.000000
3028, 8543400.000000, 1777.000000, 8177.500000, 8164.500000, 8155.000000
3029, 8543560.000000, 1710.875000, 8176.500000, 8205.500000, 8182.500000
3030, 8543720.000000, 1708.000000, 8459.000000, 8185.000000, 8301.000000
3031, 8543880.000000, 1747.750000, 8359.500000, 7594.000000, 7706.500000
3032, 8544040.000000, 1799.875000, 8065.000000, 7989.500000, 7905.000000
3033, 8544200.000000, 1840.125000, 8197.000000, 8229.000000, 8231.000000
3034, 8544360.000000, 1850.375000, 8202.000000, 8249.500000, 8253.500000
3035, 8544520.000000, 1829.000000, 8209.500000, 8257.500000, 8266.000000
3036, 8544680.000000, 1781.625000, 8223.000000, 8265.000000, 8280.500000
3037, 8544840.000000, 1714.375000, 8236.500000, 8272.500000, 8292.500000
3038, 8545000.000000, 1643.500000, 8259.000000, 8282.000000, 8311.500000
3039, 8545160.000000, 1576.000000, 8275.500000, 8295.000000, 8331.500000
3040, 8545320.000000, 1515.375000, 8293.000000, 8309.000000, 8353.000000
3041, 8545480.000000, 1456.250000, 8298.500000, 8314.000000, 8359.000000
3042, 8545640.000000, 1403.500000, 8284.000000, 8306.000000, 8344.500000
3043, 8545800.000000, 1359.125000, 8259.500000, 8276.500000, 8305.500000
3044, 8545960.000000, 1326.125000, 8215.000000, 8227.000000, 8240.000000
3045, 8546120.000000, 1303.250000, 8171.500000, 8184.500000, 8181.500000
3046, 8546280.000000, 1292.125000, 8148.000000, 8167.000000, 8155.000000
3047, 8546440.000000, 1287.750000, 8149.000000, 8165.500000, 8155.000000
3048, 8546600.000000, 1286.000000, 8159.000000, 8166.000000, 8157.500000
3049, 8546760.000000, 1280.500000, 8164.500000, 8166.500000, 8161.500000
3050, 8546920.000000, 1262.125000, 8168.000000, 8165.000000, 8162.000000
3051, 8547080.000000, 1226.500000, 8169.000000, 8166.500000, 8162.500000
3052, 8547240.000000, 1174.250000, 8168.500000, 8166.000000, 8160.500000
3053, 8547400.000000, 1126.875000, 8169.000000, 8162.500000, 8156.500000
3054, 8547560.000000, 1139.875000, 8168.000000, 8162.000000, 8155.500000
3055, 8547720.000000, 1305.500000, 8165.000000, 8160.500000, 8153.500000
3056, 8547880.000000, 1629.000000, 8165.000000, 8161.500000, 8154.500000
3057, 8548040.000000, 2024.250000, 8168.000000, 8163.500000, 8156.000000
3058, 8548200.000000, 2339.750000, 8170.000000, 8163.000000, 8155.500000
3059, 8548360.000000, 2519.625000, 8170.000000, 8164.000000, 8156.500000
3060, 8548520.000000, 2549.000000, 8172.000000, 8163.500000, 8157.500000
3061, 8548680.000000, 2484.000000, 8177.500000, 8172.500000, 8174.000000
3062, 8548840.000000, 2378.250000, 8180.500000, 8179.000000, 8184.500000
3063, 8549000.000000, 2255.750000, 8194.000000, 8180.000000, 8193.000000
3064, 8549160.000000, 2126.875000, 8190.000000, 8173.500000, 8177.000000
3065, 8549320.000000, 2000.625000, 8175.500000, 8163.500000, 8156.000000
3066, 8549480.000000, 1914.375000, 8178.000000, 8164.500000, 8156.500000
3067, 8549640.000000, 1880.125000, 8195.000000, 8272.000000, 8259.500000
3068, 8549800.000000, 1894.250000, 8580.500000, 7942.000000, 8132.000000
3069, 8549960.000000, 1927.500000, 8046.500000, 7699.000000, 7646.500000
3070, 8550120.000000, 1953.375000, 8161.500000, 8142.000000, 8113.000000
3071, 8550280.000000, 1951.000000, 8198.000000, 8243.500000, 8245.500000
3072, 8550440.000000, 1920.375000, 8208.000000, 8259.500000, 8267.000000
3073, 8550600.000000, 1866.750000, 8216.500000, 8264.500000, 8275.000000
3074, 8550760.000000, 1800.125000, 8228.000000, 8269.500000, 8284.500000
3075, 8550920.000000, 1731.750000, 8241.500000, 8277.500000, 8298.500000
3076, 8551080.000000, 1668.000000, 8262.000000, 8289.000000, 8318.500000
3077, 8551240.000000, 1612.250000, 8283.000000, 8305.000000, 8343.500000
3078, 8551400.000000, 1558.875000, 8299.000000, 8315.500000, 8358.000000
3079, 8551560.000000, 1510.750000, 8297.000000, 8314.500000, 8354.500000
3080, 8551720.000000, 1469.625000, 8278.500000, 8301.000000, 8335.000000
3081, 8551880.000000, 1434.375000, 8246.000000, 8263.500000, 8284.500000
3082, 8552040.000000, 1406.375000, 8202.500000, 8215.500000, 8220.500000
3083, 8552200.000000, 1388.500000, 8165.000000, 8179.500000, 8169.000000
3084, 8552360.000000, 1379.500000, 8151.000000, 8167.000000, 8152.000000
3085, 8552520.000000, 1370.750000, 8152.000000, 8165.500000, 8152.000000
3086, 8552680.000000, 1365.750000, 8160.500000, 8168.500000, 8158.000000
3087, 8552840.000000, 1364.000000, 8167.000000, 8169.500000, 8160.000000
3088, 8553000.000000, 1361.750000, 8170.000000, 8168.500000, 8159.500000
3089, 8553160.000000, 1354.000000, 8170.000000, 8166.500000, 8157.000000
3090, 8553320.000000, 1330.125000, 8166.500000, 8164.000000, 8152.500000
3091, 8553480.000000, 1311.250000, 8164.500000, 8163.500000, 8150.500000
3092, 8553640.000000, 1373.125000, 8165.500000, 8163.000000, 8149.500000
3093, 8553800.000000, 1587.750000, 8167.000000, 8163.500000, 8150.500000
3094, 8553960.000000, 1956.875000, 8167.000000, 8163.000000, 8150.000000
3095, 8554120.000000, 2356.000000, 8165.500000, 8165.000000, 8150.500000
3096, 8554280.000000, 2662.750000, 8167.000000, 8165.500000, 8152.500000
3097, 8554440.000000, 2819.000000, 8171.500000, 8165.500000, 8154.000000
3098, 8554600.000000, 2833.250000, 8175.500000, 8171.000000, 8163.500000
3099, 8554760.000000, 2762.625000, 8178.500000, 8176.500000, 8176.500000
3100, 8554920.000000, 2649.000000, 8189.000000, 8181.500000, 8191.500000
3101, 8555080.000000, 2517.875000, 8187.500000, 8174.000000, 8174.000000
3102, 8555240.000000, 2372.125000, 8177.500000, 8164.500000, 8155.000000
3103, 8555400.000000, 2232.000000, 8177.500000, 8163.500000, 8151.000000
3104, 8555560.000000, 2130.000000, 8178.000000, 8245.500000, 8219.500000
3105, 8555720.000000, 2078.250000, 8556.500000, 8039.000000, 8206.000000
3106, 8555880.000000, 2077.750000, 8144.500000, 7657.500000, 7657.000000
3107, 8556040.000000, 2101.250000, 8133.500000, 8098.000000, 8045.000000
3108, 8556200.000000, 2123.375000, 8197.500000, 8238.000000, 8234.000000
3109, 8556360.000000, 2120.750000, 8200.000000, 8254.000000, 8254.000000
3110, 8556520.000000, 2088.375000, 8209.500000, 8260.000000, 8264.500000
3111, 8556680.000000, 2031.625000, 8225.500000, 8268.500000, 8280.000000
3112, 8556840.000000, 1960.250000, 8240.000000, 8276.000000, 8294.000000
3113, 8557000.000000, 1883.125000, 8260.000000, 8284.500000, 8311.000000
3114, 8557160.000000, 1804.625000, 8280.000000, 8298.500000, 8332.500000
3115, 8557320.000000, 1730.500000, 8295.000000, 8311.500000, 8351.500000
3116, 8557480.000000, 1660.500000, 8297.000000, 8312.000000, 8352.000000
3117, 8557640.000000, 1597.250000, 8282.500000, 8300.000000, 8333.500000
3118, 8557800.000000, 1546.375000, 8251.500000, 8264.500000, 8285.000000
3119, 8557960.000000, 1507.375000, 8201.500000, 8212.500000, 8213.000000
3120, 8558120.000000, 1477.125000, 8162.500000, 8178.000000, 8164.000000
3121, 8558280.000000, 1448.500000, 8147.500000, 8167.000000, 8148.500000
3122, 8558440.000000, 1418.500000, 8150.000000, 8166.000000, 8147.500000
3123, 8558600.000000, 1388.500000, 8158.500000, 8165.000000, 8151.000000
3124, 8558760.000000, 1358.500000, 8163.000000, 8167.000000, 8155.000000
3125, 8558920.000000, 1326.125000, 8166.000000, 8166.500000, 8156.500000
3126, 8559080.000000, 1289.625000, 8167.000000, 8166.000000, 8155.000000
3127, 8559240.000000, 1247.750000, 8164.500000, 8164.000000, 8151.000000
3128, 8559400.000000, 1211.000000, 8162.000000, 8163.500000, 8149.000000
3129, 8559560.000000, 1229.875000, 8159.500000, 8161.500000, 8146.000000
3130, 8559720.000000, 1394.625000, 8159.000000, 8162.000000, 8145.500000
3131, 8559880.000000, 1716.000000, 8160.500000, 8163.500000, 8147.000000
3132, 8560040.000000, 2126.125000, 8165.000000, 8165.000000, 8150.500000
3133, 8560200.000000, 2490.125000, 8164.500000, 8165.000000, 8149.000000
3134, 8560360.000000, 2723.250000, 8169.000000, 8174.000000, 8167.000000
3135, 8560520.000000, 2802.125000, 8171.500000, 8179.000000, 8178.500000
3136, 8560680.000000, 2769.875000, 8180.500000, 8177.500000, 8180.000000
3137, 8560840.000000, 2679.750000, 8179.000000, 8172.500000, 8166.000000
3138, 8561000.000000, 2567.000000, 8169.500000, 8163.000000, 8147.500000
3139, 8561160.000000, 2441.250000, 8171.500000, 8163.500000, 8149.000000
3140, 8561320.000000, 2308.125000, 8201.000000, 8290.000000, 8281.500000
3141, 8561480.000000, 2202.250000, 8627.500000, 7834.000000, 8050.500000
3142, 8561640.000000, 2149.750000, 7990.000000, 7767.500000, 7675.000000
3143, 8561800.000000, 2154.625000, 8169.500000, 8174.500000, 8149.000000
3144, 8561960.000000, 2193.250000, 8188.000000, 8240.000000, 8233.000000
3145, 8562120.000000, 2235.500000, 8196.000000, 8255.500000, 8255.000000
3146, 8562280.000000, 2251.000000, 8206.000000, 8262.500000, 8266.000000
3147, 8562440.000000, 2231.625000, 8221.000000, 8268.000000, 8278.500000
3148, 8562600.000000, 2174.125000, 8239.500000, 8274.500000, 8293.000000
3149, 8562760.000000, 2095.625000, 8258.000000, 8284.500000, 8310.500000
3150, 8562920.000000, 2009.750000, 8280.000000, 8299.000000, 8334.500000
3151, 8563080.000000, 1927.250000, 8295.000000, 8309.000000, 8350.500000
3152, 8563240.000000, 1854.500000, 8292.000000, 8303.500000, 8341.000000
3153, 8563400.000000, 1787.875000, 8275.000000, 8285.500000, 8316.000000
3154, 8563560.000000, 1728.875000, 8234.000000, 8247.000000, 8262.000000
3155, 8563720.000000, 1680.875000, 8184.000000, 8204.000000, 8201.000000
3156, 8563880.000000, 1640.000000, 8150.500000, 8176.500000, 8160.500000
3157, 8564040.000000, 1601.125000, 8138.500000, 8168.000000, 8147.500000
3158, 8564200.000000, 1565.875000, 8143.000000, 8168.000000, 8149.000000
3159, 8564360.000000, 1534.750000, 8152.000000, 8168.000000, 8153.000000
3160, 8564520.000000, 1511.375000, 8158.000000, 8168.500000, 8157.000000
3161, 8564680.000000, 1485.375000, 8163.000000, 8167.500000, 8156.500000
3162, 8564840.000000, 1446.750000, 8163.500000, 8165.500000, 8154.000000
3163, 8565000.000000, 1399.625000, 8160.500000, 8163.000000, 8148.500000
3164, 8565160.000000, 1361.375000, 8160.000000, 8163.000000, 8149.000000
3165, 8565320.000000, 1383.875000, 8157.500000, 8164.000000, 8148.500000
3166, 8565480.000000, 1533.625000, 8158.500000, 8165.000000, 8150.000000
3167, 8565640.000000, 1836.375000, 8160.500000, 8164.000000, 8149.500000
3168, 8565800.000000, 2211.500000, 8160.500000, 8164.000000, 8148.500000
3169, 8565960.000000, 2539.375000, 8161.500000, 8168.500000, 8157.500000
3170, 8566120.000000, 2727.625000, 8165.500000, 8174.500000, 8170.000000
3171, 8566280.000000, 2780.375000, 8177.000000, 8179.000000, 8185.000000
3172, 8566440.000000, 2723.375000, 8178.500000, 8173.500000, 8170.000000
3173, 8566600.000000, 2620.125000, 8165.000000, 8163.000000, 8147.000000
3174, 8566760.000000, 2498.125000, 8165.000000, 8161.500000, 8144.500000
3175, 8566920.000000, 2362.000000, 8162.000000, 8244.500000, 8214.000000
3176, 8567080.000000, 2224.500000, 8575.000000, 8061.000000, 8235.000000
3177, 8567240.000000, 2115.125000, 8156.000000, 7677.000000, 7681.000000
3178, 8567400.000000, 2059.500000, 8118.000000, 8093.500000, 8030.500000
3179, 8567560.000000, 2051.750000, 8178.500000, 8232.500000, 8220.000000
3180, 8567720.000000, 2073.875000, 8183.500000, 8248.000000, 8240.500000
3181, 8567880.000000, 2094.250000, 8193.500000, 8255.500000, 8251.000000
3182, 8568040.000000, 2090.250000, 8208.000000, 8259.500000, 8262.000000
3183, 8568200.000000, 2055.250000, 8223.500000, 8263.000000, 8272.000000
3184, 8568360.000000, 1991.250000, 8243.000000, 8270.000000, 8287.000000
3185, 8568520.000000, 1908.500000, 8260.000000, 8281.000000, 8305.500000
3186, 8568680.000000, 1815.875000, 8279.500000, 8289.000000, 8319.500000
3187, 8568840.000000, 1723.375000, 8284.500000, 8286.000000, 8316.500000
3188, 8569000.000000, 1634.750000, 8265.000000, 8271.500000, 8294.000000
3189, 8569160.000000, 1557.625000, 8231.500000, 8243.500000, 8253.000000
3190, 8569320.000000, 1493.000000, 8177.000000, 8207.000000, 8195.500000
3191, 8569480.000000, 1441.000000, 8136.500000, 8176.000000, 8152.000000
3192, 8569640.000000, 1401.000000, 8118.000000, 8164.500000, 8132.500000
3193, 8569800.000000, 1362.000000, 8118.500000, 8163.000000, 8132.500000
3194, 8569960.000000, 1321.000000, 8124.500000, 8165.000000, 8137.500000
3195, 8570120.000000, 1278.500000, 8132.000000, 8167.000000, 8144.000000
3196, 8570280.000000, 1226.250000, 8136.000000, 8167.500000, 8145.500000
3197, 8570440.000000, 1170.000000, 8133.000000, 8166.000000, 8143.000000
3198, 8570600.000000, 1108.375000, 8131.500000, 8165.500000, 8140.500000
3199, 8570760.000000, 1057.125000, 8125.000000, 8165.500000, 8138.500000
3200, 8570920.000000, 1039.375000, 8123.000000, 8166.500000, 8139.500000
3201, 8571080.000000, 1116.375000, 8129.500000, 8175.000000, 8155.000000
3202, 8571240.000000, 1344.125000, 8132.500000, 8180.500000, 8166.500000
3203, 8571400.000000, 1675.250000, 8135.500000, 8176.500000, 8164.000000
3204, 8571560.000000, 2000.750000, 8132.000000, 8174.500000, 8153.000000
3205, 8571720.000000, 2211.250000, 8121.000000, 8167.000000, 8137.000000
3206, 8571880.000000, 2268.750000, 8124.000000, 8171.000000, 8140.000000
3207, 8572040.000000, 2199.000000, 8156.500000, 8295.500000, 8278.000000
3208, 8572200.000000, 2060.625000, 8560.000000, 7954.500000, 8142.500000
3209, 8572360.000000, 1897.750000, 7939.000000, 7831.500000, 7743.500000
3210, 8572520.000000, 1731.750000, 8095.000000, 8139.500000, 8077.500000
3211, 8572680.000000, 1575.875000, 8140.000000, 8234.000000, 8214.500000
3212, 8572840.000000, 1445.875000, 8149.500000, 8248.000000, 8235.000000
3213, 8573000.000000, 1367.125000, 8158.500000, 8256.000000, 8248.000000
3214, 8573160.000000, 1346.000000, 8170.500000, 8263.500000, 8261.500000
3215, 8573320.000000, 1366.875000, 8188.500000, 8275.500000, 8281.500000
3216, 8573480.000000, 1406.000000, 8210.500000, 8291.000000, 8305.500000
3217, 8573640.000000, 1443.250000, 8234.000000, 8307.000000, 8329.000000
3218, 8573800.000000, 1455.375000, 8250.500000, 8316.500000, 8343.500000
3219, 8573960.000000, 1441.375000, 8243.500000, 8312.500000, 8335.000000
3220, 8574120.000000, 1402.375000, 8219.000000, 8293.500000, 8306.500000
3221, 8574280.000000, 1346.500000, 8176.000000, 8255.000000, 8252.500000
3222, 8574440.000000, 1274.250000, 8131.500000, 8212.000000, 8194.000000
3223, 8574600.000000, 1199.375000, 8100.500000, 8185.000000, 8158.000000
3224, 8574760.000000, 1129.750000, 8089.500000, 8177.500000, 8146.500000
3225, 8574920.000000, 1070.500000, 8093.000000, 8179.500000, 8151.000000
3226, 8575080.000000, 1026.625000, 8104.000000, 8181.000000, 8157.500000
3227, 8575240.000000, 997.875000, 8112.000000, 8182.000000, 8160.000000
3228, 8575400.000000, 973.125000, 8116.000000, 8180.000000, 8159.000000
3229, 8575560.000000, 947.625000, 8111.500000, 8177.000000, 8153.500000
3230, 8575720.000000, 921.375000, 8107.500000, 8176.000000, 8150.000000
3231, 8575880.000000, 906.750000, 8107.000000, 8174.000000, 8146.000000
3232, 8576040.000000, 919.000000, 8108.000000, 8173.000000, 8144.000000
3233, 8576200.000000, 1004.125000, 8112.000000, 8180.500000, 8157.500000
3234, 8576360.000000, 1221.375000, 8114.000000, 8185.500000, 8168.000000
3235, 8576520.000000, 1544.500000, 8118.500000, 8178.500000, 8162.000000
3236, 8576680.000000, 1881.750000, 8114.500000, 8176.500000, 8148.000000
3237, 8576840.000000, 2131.250000, 8104.500000, 8166.000000, 8126.000000
3238, 8577000.000000, 2251.625000, 8107.500000, 8166.500000, 8124.500000
3239, 8577160.000000, 2255.500000, 8152.500000, 8308.500000, 8282.500000
3240, 8577320.000000, 2182.625000, 8530.000000, 7830.000000, 8005.500000
3241, 8577480.000000, 2067.250000, 7921.500000, 7772.000000, 7651.000000
3242, 8577640.000000, 1927.375000, 8111.000000, 8174.500000, 8122.500000
3243, 8577800.000000, 1784.750000, 8135.000000, 8244.000000, 8213.500000
3244, 8577960.000000, 1677.750000, 8143.500000, 8257.000000, 8231.000000
3245, 8578120.000000, 1632.000000, 8159.000000, 8267.000000, 8248.000000
3246, 8578280.000000, 1649.000000, 8176.000000, 8276.500000, 8264.000000
3247, 8578440.000000, 1704.000000, 8196.500000, 8286.000000, 8281.000000
3248, 8578600.000000, 1758.250000, 8221.500000, 8297.500000, 8302.000000
3249, 8578760.000000, 1791.750000, 8247.000000, 8315.000000, 8328.500000
3250, 8578920.000000, 1791.625000, 8268.000000, 8326.500000, 8346.500000
3251, 8579080.000000, 1760.375000, 8269.500000, 8323.500000, 8343.000000
3252, 8579240.000000, 1704.000000, 8252.000000, 8301.000000, 8313.000000
3253, 8579400.000000, 1635.375000, 8208.500000, 8254.500000, 8249.000000
3254, 8579560.000000, 1562.500000, 8156.500000, 8204.500000, 8183.000000
3255, 8579720.000000, 1499.375000, 8126.500000, 8177.500000, 8146.000000
3256, 8579880.000000, 1453.000000, 8119.000000, 8169.000000, 8136.000000
3257, 8580040.000000, 1423.875000, 8124.500000, 8167.500000, 8138.000000
3258, 8580200.000000, 1405.875000, 8136.500000, 8167.000000, 8144.500000
3259, 8580360.000000, 1390.125000, 8146.500000, 8168.000000, 8152.000000
3260, 8580520.000000, 1371.000000, 8155.000000, 8165.500000, 8154.000000
3261, 8580680.000000, 1344.250000, 8159.000000, 8164.000000, 8155.000000
3262, 8580840.000000, 1306.625000, 8161.000000, 8159.000000, 8150.000000
3263, 8581000.000000, 1279.750000, 8160.000000, 8155.000000, 8147.000000
3264, 8581160.000000, 1315.375000, 8156.000000, 8152.500000, 8145.500000
3265, 8581320.000000, 1491.500000, 8157.500000, 8152.500000, 8148.000000
3266, 8581480.000000, 1833.750000, 8168.000000, 8163.500000, 8172.500000
3267, 8581640.000000, 2237.625000, 8175.500000, 8170.000000, 8189.000000
3268, 8581800.000000, 2569.375000, 8178.000000, 8159.000000, 8174.500000
3269, 8581960.000000, 2756.125000, 8168.500000, 8153.000000, 8158.000000
3270, 8582120.000000, 2798.500000, 8162.000000, 8147.500000, 8145.000000
3271, 8582280.000000, 2743.625000, 8166.500000, 8154.000000, 8152.000000
3272, 8582440.000000, 2647.125000, 8268.500000, 8303.500000, 8345.500000
3273, 8582600.000000, 2539.625000, 8590.000000, 7659.000000, 7888.500000
3274, 8582760.000000, 2424.375000, 7978.500000, 7812.000000, 7712.000000
3275, 8582920.000000, 2298.000000, 8181.000000, 8189.000000, 8192.500000
3276, 8583080.000000, 2187.625000, 8189.000000, 8227.500000, 8239.500000
3277, 8583240.000000, 2118.375000, 8199.000000, 8236.000000, 8251.500000
3278, 8583400.000000, 2098.750000, 8212.500000, 8239.500000, 8260.000000
3279, 8583560.000000, 2106.500000, 8229.500000, 8244.500000, 8272.500000
3280, 8583720.000000, 2112.375000, 8248.500000, 8252.500000, 8286.500000
3281, 8583880.000000, 2095.375000, 8272.500000, 8264.500000, 8306.500000
3282, 8584040.000000, 2048.375000, 8298.000000, 8276.500000, 8326.000000
3283, 8584200.000000, 1976.875000, 8313.500000, 8281.000000, 8334.000000
3284, 8584360.000000, 1892.125000, 8306.500000, 8278.000000, 8327.000000
3285, 8584520.000000, 1806.000000, 8284.500000, 8262.000000, 8301.000000
3286, 8584680.000000, 1729.250000, 8239.000000, 8226.000000, 8247.500000
3287, 8584840.000000, 1654.250000, 8188.500000, 8184.000000, 8186.000000
3288, 8585000.000000, 1576.375000, 8155.000000, 8161.000000, 8151.500000
3289, 8585160.000000, 1489.500000, 8145.000000, 8155.500000, 8143.500000
3290, 8585320.000000, 1400.750000, 8148.500000, 8157.500000, 8148.000000
3291, 8585480.000000, 1322.750000, 8158.000000, 8160.000000, 8156.500000
3292, 8585640.000000, 1264.500000, 8168.500000, 8159.500000, 8160.000000
3293, 8585800.000000, 1218.000000, 8170.500000, 8157.000000, 8158.500000
3294, 8585960.000000, 1180.250000, 8170.000000, 8157.500000, 8161.500000
3295, 8586120.000000, 1148.750000, 8168.000000, 8157.000000, 8158.000000
3296, 8586280.000000, 1140.000000, 8166.500000, 8156.500000, 8156.500000
3297, 8586440.000000, 1212.125000, 8167.000000, 8155.500000, 8152.500000
3298, 8586600.000000, 1443.875000, 8166.000000, 8155.000000, 8151.000000
3299, 8586760.000000, 1805.750000, 8169.000000, 8157.500000, 8154.500000
3300, 8586920.000000, 2188.000000, 8172.000000, 8162.000000, 8160.000000
3301, 8587080.000000, 2462.125000, 8183.500000, 8173.000000, 8179.500000
3302, 8587240.000000, 2572.000000, 8194.500000, 8178.500000, 8197.000000
3303, 8587400.000000, 2542.625000, 8199.000000, 8172.000000, 8183.500000
3304, 8587560.000000, 2440.875000, 8186.500000, 8163.500000, 8162.000000
3305, 8587720.000000, 2326.500000, 8183.500000, 8163.000000, 8155.500000
3306, 8587880.000000, 2216.500000, 8185.500000, 8194.000000, 8176.000000
3307, 8588040.000000, 2100.750000, 8407.500000, 8240.000000, 8326.000000
3308, 8588200.000000, 1974.750000, 8480.500000, 7566.000000, 7731.500000
3309, 8588360.000000, 1871.500000, 8040.000000, 7938.500000, 7834.500000
3310, 8588520.000000, 1822.375000, 8199.000000, 8236.500000, 8231.500000
3311, 8588680.000000, 1828.750000, 8207.000000, 8263.500000, 8261.000000
3312, 8588840.000000, 1868.625000, 8215.500000, 8272.000000, 8274.500000
3313, 8589000.000000, 1911.500000, 8226.000000, 8277.500000, 8285.500000
3314, 8589160.000000, 1927.000000, 8238.500000, 8286.500000, 8300.500000
3315, 8589320.000000, 1906.750000, 8256.000000, 8296.000000, 8318.500000
3316, 8589480.000000, 1857.875000, 8278.000000, 8310.000000, 8340.500000
3317, 8589640.000000, 1796.625000, 8302.000000, 8322.000000, 8360.500000
3318, 8589800.000000, 1730.750000, 8312.000000, 8325.000000, 8368.000000
3319, 8589960.000000, 1666.875000, 8302.000000, 8317.500000, 8356.000000
3320, 8590120.000000, 1608.875000, 8270.500000, 8291.500000, 8317.000000
3321, 8590280.000000, 1563.875000, 8220.000000, 8246.000000, 8252.500000
3322, 8590440.000000, 1525.875000, 8171.000000, 8203.000000, 8191.500000
3323, 8590600.000000, 1497.875000, 8144.500000, 8182.500000, 8161.500000
3324, 8590760.000000, 1476.000000, 8141.000000, 8178.500000, 8157.500000
3325, 8590920.000000, 1457.375000, 8146.000000, 8181.500000, 8162.000000
3326, 8591080.000000, 1448.125000, 8154.500000, 8182.500000, 8166.000000
3327, 8591240.000000, 1441.500000, 8164.000000, 8183.000000, 8170.000000
3328, 8591400.000000, 1429.250000, 8165.500000, 8182.000000, 8170.500000
3329, 8591560.000000, 1406.250000, 8167.000000, 8182.000000, 8171.000000
3330, 8591720.000000, 1371.875000, 8167.000000, 8180.500000, 8167.500000
3331, 8591880.000000, 1360.625000, 8165.500000, 8179.500000, 8166.000000
3332, 8592040.000000, 1461.000000, 8165.000000, 8177.500000, 8163.000000
3333, 8592200.000000, 1727.875000, 8162.500000, 8177.000000, 8161.500000
3334, 8592360.000000, 2130.875000, 8163.000000, 8176.000000, 8162.000000
3335, 8592520.000000, 2530.000000, 8163.500000, 8177.500000, 8163.000000
3336, 8592680.000000, 2805.125000, 8165.500000, 8179.500000, 8165.000000
3337, 8592840.000000, 2917.125000, 8167.500000, 8179.000000, 8166.000000
3338, 8593000.000000, 2905.125000, 8170.500000, 8185.500000, 8176.500000
3339, 8593160.000000, 2841.250000, 8173.500000, 8191.500000, 8189.500000
3340, 8593320.000000, 2764.625000, 8184.500000, 8194.500000, 8198.500000
3341, 8593480.000000, 2678.875000, 8183.500000, 8189.000000, 8184.500000
3342, 8593640.000000, 2563.875000, 8173.000000, 8179.000000, 8165.500000
3343, 8593800.000000, 2423.125000, 8173.000000, 8178.000000, 8163.000000
3344, 8593960.000000, 2299.750000, 8176.500000, 8262.500000, 8237.500000
3345, 8594120.000000, 2224.875000, 8535.500000, 8051.500000, 8207.500000
3346, 8594280.000000, 2195.875000, 8190.000000, 7636.500000, 7650.500000
3347, 8594440.000000, 2189.750000, 8123.500000, 8101.500000, 8042.500000
3348, 8594600.000000, 2183.125000, 8188.500000, 8255.500000, 8247.500000
3349, 8594760.000000, 2161.125000, 8197.000000, 8273.000000, 8270.000000
3350, 8594920.000000, 2116.250000, 8208.000000, 8281.500000, 8283.000000
3351, 8595080.000000, 2045.750000, 8220.000000, 8286.500000, 8293.000000
3352, 8595240.000000, 1956.875000, 8235.500000, 8292.500000, 8305.500000
3353, 8595400.000000, 1864.625000, 8253.500000, 8301.500000, 8322.500000
3354, 8595560.000000, 1780.625000, 8275.000000, 8317.000000, 8345.500000
3355, 8595720.000000, 1713.000000, 8299.000000, 8328.500000, 8365.000000
3356, 8595880.000000, 1658.125000, 8306.500000, 8327.500000, 8366.000000
3357, 8596040.000000, 1615.000000, 8294.000000, 8315.000000, 8349.000000
3358, 8596200.000000, 1576.625000, 8257.500000, 8281.500000, 8301.000000
3359, 8596360.000000, 1542.375000, 8205.000000, 8234.000000, 8235.000000
3360, 8596520.000000, 1511.500000, 8161.500000, 8197.000000, 8181.000000
3361, 8596680.000000, 1483.625000, 8145.000000, 8182.500000, 8159.500000
3362, 8596840.000000, 1454.500000, 8144.000000, 8177.500000, 8154.500000
3363, 8597000.000000, 1426.500000, 8147.000000, 8178.000000, 8157.500000
3364, 8597160.000000, 1398.750000, 8153.500000, 8178.500000, 8162.000000
3365, 8597320.000000, 1372.625000, 8162.000000, 8179.000000, 8164.500000
3366, 8597480.000000, 1348.375000, 8167.000000, 8178.000000, 8165.000000
3367, 8597640.000000, 1323.750000, 8163.500000, 8174.000000, 8158.500000
3368, 8597800.000000, 1302.875000, 8163.500000, 8172.000000, 8157.500000
3369, 8597960.000000, 1321.375000, 8161.000000, 8170.500000, 8153.500000
3370, 8598120.000000, 1475.750000, 8160.500000, 8170.000000, 8152.500000
3371, 8598280.000000, 1796.750000, 8164.000000, 8169.000000, 8152.000000
3372, 8598440.000000, 2226.750000, 8163.500000, 8168.000000, 8150.500000
3373, 8598600.000000, 2614.375000, 8164.500000, 8168.000000, 8152.000000
3374, 8598760.000000, 2866.375000, 8168.000000, 8168.500000, 8155.500000
3375, 8598920.000000, 2956.500000, 8170.500000, 8170.000000, 8157.000000
3376, 8599080.000000, 2931.375000, 8179.000000, 8177.000000, 8170.000000
3377, 8599240.000000, 2843.875000, 8180.500000, 8180.000000, 8177.500000
3378, 8599400.000000, 2736.500000, 8188.000000, 8179.500000, 8179.500000
3379, 8599560.000000, 2617.250000, 8185.000000, 8174.500000, 8167.500000
3380, 8599720.000000, 2475.125000, 8176.500000, 8167.500000, 8153.500000
3381, 8599880.000000, 2333.500000, 8181.500000, 8167.500000, 8155.000000
3382, 8600040.000000, 2221.750000, 8214.000000, 8292.000000, 8289.500000
3383, 8600200.000000, 2168.875000, 8611.000000, 7937.500000, 8134.000000
3384, 8600360.000000, 2155.125000, 8001.000000, 7796.000000, 7723.000000
3385, 8600520.000000, 2145.875000, 8153.500000, 8136.000000, 8089.500000
3386, 8600680.000000, 2108.875000, 8200.500000, 8232.000000, 8227.000000
3387, 8600840.000000, 2042.500000, 8210.000000, 8247.000000, 8248.000000
3388, 8601000.000000, 1945.750000, 8219.500000, 8253.500000, 8259.000000
3389, 8601160.000000, 1831.875000, 8232.000000, 8261.000000, 8272.500000
3390, 8601320.000000, 1706.500000, 8248.500000, 8270.500000, 8289.500000
3391, 8601480.000000, 1579.875000, 8269.000000, 8282.500000, 8309.000000
3392, 8601640.000000, 1464.750000, 8291.000000, 8297.500000, 8332.500000
3393, 8601800.000000, 1367.875000, 8309.500000, 8307.500000, 8350.000000
3394, 8601960.000000, 1295.375000, 8309.000000, 8305.500000, 8347.500000
3395, 8602120.000000, 1243.125000, 8290.500000, 8290.500000, 8325.000000
3396, 8602280.000000, 1210.750000, 8253.000000, 8252.500000, 8271.500000
3397, 8602440.000000, 1189.250000, 8204.000000, 8206.500000, 8208.500000
3398, 8602600.000000, 1176.500000, 8163.500000, 8174.000000, 8162.000000
3399, 8602760.000000, 1169.750000, 8146.500000, 8164.000000, 8146.000000
3400, 8602920.000000, 1164.750000, 8150.500000, 8164.500000, 8149.000000
3401, 8603080.000000, 1156.250000, 8158.000000, 8166.000000, 8152.500000
3402, 8603240.000000, 1132.250000, 8166.000000, 8168.000000, 8158.000000
3403, 8603400.000000, 1088.000000, 8172.000000, 8168.000000, 8162.000000
3404, 8603560.000000, 1026.375000, 8174.000000, 8166.000000, 8159.000000
3405, 8603720.000000, 961.750000, 8174.500000, 8165.000000, 8157.500000
3406, 8603880.000000, 899.000000, 8171.500000, 8164.500000, 8154.000000
3407, 8604040.000000, 866.625000, 8168.000000, 8163.500000, 8151.000000
3408, 8604200.000000, 937.125000, 8168.000000, 8163.000000, 8152.000000
3409, 8604360.000000, 1185.500000, 8169.500000, 8165.500000, 8154.000000
3410, 8604520.000000, 1596.500000, 8169.000000, 8166.000000, 8154.000000
3411, 8604680.000000, 2034.500000, 8173.000000, 8167.500000, 8156.500000
3412, 8604840.000000, 2352.750000, 8172.500000, 8168.000000, 8157.500000
3413, 8605000.000000, 2510.625000, 8172.500000, 8169.000000, 8158.500000
3414, 8605160.000000, 2527.750000, 8181.000000, 8179.500000, 8179.500000
3415, 8605320.000000, 2474.500000, 8185.500000, 8185.500000, 8192.500000
3416, 8605480.000000, 2403.875000, 8192.500000, 8180.500000, 8183.000000
3417, 8605640.000000, 2326.375000, 8184.500000, 8172.000000, 8166.000000
3418, 8605800.000000, 2222.875000, 8176.000000, 8167.000000, 8155.500000
3419, 8605960.000000, 2110.250000, 8178.000000, 8173.500000, 8158.500000
3420, 8606120.000000, 2030.000000, 8284.500000, 8319.500000, 8353.500000
3421, 8606280.000000, 2004.750000, 8577.000000, 7673.000000, 7880.000000
3422, 8606440.000000, 2031.375000, 7990.500000, 7836.000000, 7723.000000
3423, 8606600.000000, 2070.750000, 8189.500000, 8207.000000, 8197.500000
3424, 8606760.000000, 2094.875000, 8196.500000, 8249.000000, 8248.000000
3425, 8606920.000000, 2084.000000, 8206.500000, 8260.500000, 8263.500000
3426, 8607080.000000, 2030.750000, 8219.000000, 8266.500000, 8274.500000
3427, 8607240.000000, 1952.375000, 8232.000000, 8271.000000, 8284.500000
3428, 8607400.000000, 1857.250000, 8246.000000, 8280.500000, 8301.500000
3429, 8607560.000000, 1770.000000, 8266.000000, 8293.000000, 8321.500000
3430, 8607720.000000, 1695.125000, 8291.000000, 8310.000000, 8349.000000
3431, 8607880.000000, 1641.750000, 8312.000000, 8317.500000, 8362.500000
3432, 8608040.000000, 1601.875000, 8310.000000, 8313.500000, 8357.000000
3433, 8608200.000000, 1574.000000, 8286.500000, 8293.500000, 8326.500000
3434, 8608360.000000, 1555.000000, 8240.000000, 8251.000000, 8267.000000
3435, 8608520.000000, 1540.500000, 8186.500000, 8205.000000, 8201.000000
3436, 8608680.000000, 1531.500000, 8154.000000, 8178.500000, 8162.500000
3437, 8608840.000000, 1518.125000, 8140.500000, 8171.500000, 8150.500000
3438, 8609000.000000, 1499.000000, 8141.500000, 8174.000000, 8154.500000
3439, 8609160.000000, 1476.750000, 8147.500000, 8175.000000, 8159.500000
3440, 8609320.000000, 1453.000000, 8156.000000, 8175.500000, 8163.000000
3441, 8609480.000000, 1438.375000, 8166.000000, 8175.000000, 8165.000000
3442, 8609640.000000, 1419.750000, 8167.000000, 8172.500000, 8163.000000
3443, 8609800.000000, 1391.125000, 8163.500000, 8170.000000, 8159.500000
3444, 8609960.000000, 1353.250000, 8161.000000, 8168.000000, 8156.000000
3445, 8610120.000000, 1355.500000, 8161.000000, 8168.000000, 8155.000000
3446, 8610280.000000, 1484.125000, 8162.500000, 8165.500000, 8152.000000
3447, 8610440.000000, 1811.500000, 8162.500000, 8162.500000, 8149.000000
3448, 8610600.000000, 2266.500000, 8159.500000, 8161.000000, 8146.500000
3449, 8610760.000000, 2705.000000, 8161.000000, 8159.500000, 8144.500000
3450, 8610920.000000, 2998.750000, 8163.500000, 8158.000000, 8143.500000
3451, 8611080.000000, 3124.750000, 8166.000000, 8154.500000, 8140.500000
3452, 8611240.000000, 3101.375000, 8171.500000, 8159.000000, 8152.500000
3453, 8611400.000000, 3005.125000, 8173.500000, 8160.500000, 8161.000000
3454, 8611560.000000, 2885.375000, 8178.500000, 8155.500000, 8153.000000
3455, 8611720.000000, 2751.625000, 8173.500000, 8148.000000, 8138.000000
3456, 8611880.000000, 2593.500000, 8166.000000, 8141.000000, 8124.000000
3457, 8612040.000000, 2419.750000, 8166.000000, 8145.000000, 8125.000000
3458, 8612200.000000, 2275.000000, 8237.000000, 8294.500000, 8307.500000
3459, 8612360.000000, 2187.875000, 8576.500000, 7814.500000, 8008.500000
3460, 8612520.000000, 2162.500000, 7976.000000, 7822.500000, 7724.000000
3461, 8612680.000000, 2158.750000, 8153.000000, 8159.000000, 8118.000000
3462, 8612840.000000, 2144.125000, 8175.500000, 8225.000000, 8208.500000
3463, 8613000.000000, 2097.750000, 8181.000000, 8242.500000, 8230.500000
3464, 8613160.000000, 2021.500000, 8189.000000, 8252.500000, 8244.000000
3465, 8613320.000000, 1924.625000, 8202.000000, 8262.000000, 8260.000000
3466, 8613480.000000, 1814.875000, 8217.000000, 8275.000000, 8279.500000
3467, 8613640.000000, 1699.250000, 8236.000000, 8290.500000, 8303.000000
3468, 8613800.000000, 1585.500000, 8256.500000, 8308.000000, 8329.000000
3469, 8613960.000000, 1485.500000, 8274.000000, 8322.500000, 8350.000000
3470, 8614120.000000, 1400.000000, 8273.500000, 8323.500000, 8349.000000
3471, 8614280.000000, 1328.000000, 8254.000000, 8308.500000, 8326.000000
3472, 8614440.000000, 1271.875000, 8207.500000, 8269.000000, 8269.500000
3473, 8614600.000000, 1219.875000, 8151.500000, 8224.500000, 8206.000000
3474, 8614760.000000, 1181.250000, 8113.500000, 8197.500000, 8166.500000
3475, 8614920.000000, 1150.750000, 8101.000000, 8189.000000, 8152.000000
3476, 8615080.000000, 1132.500000, 8101.000000, 8191.000000, 8154.000000
3477, 8615240.000000, 1124.750000, 8105.500000, 8195.000000, 8160.500000
3478, 8615400.000000, 1119.125000, 8112.000000, 8199.000000, 8167.000000
3479, 8615560.000000, 1104.250000, 8119.500000, 8204.000000, 8173.000000
3480, 8615720.000000, 1086.375000, 8122.500000, 8206.000000, 8173.000000
3481, 8615880.000000, 1066.750000, 8121.000000, 8206.000000, 8168.000000
3482, 8616040.000000, 1041.375000, 8114.500000, 8205.000000, 8162.500000
3483, 8616200.000000, 1027.000000, 8112.000000, 8208.000000, 8164.000000
3484, 8616360.000000, 1083.250000, 8112.000000, 8211.000000, 8165.000000
3485, 8616520.000000, 1291.500000, 8117.000000, 8215.000000, 8170.500000
3486, 8616680.000000, 1660.125000, 8120.500000, 8218.000000, 8175.500000
3487, 8616840.000000, 2069.750000, 8122.500000, 8218.000000, 8177.000000
3488, 8617000.000000, 2391.875000, 8122.000000, 8221.500000, 8182.500000
3489, 8617160.000000, 2560.500000, 8123.000000, 8223.500000, 8186.500000
3490, 8617320.000000, 2582.500000, 8132.500000, 8234.500000, 8208.000000
3491, 8617480.000000, 2520.500000, 8137.500000, 8238.000000, 8218.000000
3492, 8617640.000000, 2425.000000, 8149.000000, 8237.500000, 8225.000000
3493, 8617800.000000, 2321.500000, 8153.000000, 8237.000000, 8229.500000
3494, 8617960.000000, 2206.375000, 8139.000000, 8230.000000, 8211.000000
3495, 8618120.000000, 2076.750000, 8141.000000, 8232.000000, 8208.500000
3496, 8618280.000000, 1964.250000, 8201.500000, 8378.000000, 8379.500000
3497, 8618440.000000, 1897.750000, 8552.500000, 7835.000000, 8022.000000
3498, 8618600.000000, 1891.750000, 7955.000000, 7852.500000, 7740.500000
3499, 8618760.000000, 1920.750000, 8140.500000, 8234.500000, 8196.500000
3500, 8618920.000000, 1952.250000, 8163.500000, 8294.500000, 8276.000000
3501, 8619080.000000, 1956.125000, 8178.500000, 8304.000000, 8292.500000
3502, 8619240.000000, 1925.750000, 8190.000000, 8305.000000, 8299.000000
3503, 8619400.000000, 1865.375000, 8204.500000, 8305.000000, 8304.500000
3504, 8619560.000000, 1788.000000, 8225.500000, 8309.500000, 8320.500000
3505, 8619720.000000, 1708.000000, 8252.000000, 8316.500000, 8339.500000
3506, 8619880.000000, 1631.500000, 8281.000000, 8327.500000, 8363.000000
3507, 8620040.000000, 1567.125000, 8305.000000, 8333.000000, 8381.000000
3508, 8620200.000000, 1515.750000, 8302.000000, 8329.000000, 8377.500000
3509, 8620360.000000, 1473.875000, 8279.500000, 8311.500000, 8354.500000
3510, 8620520.000000, 1436.875000, 8232.000000, 8268.500000, 8295.000000
3511, 8620680.000000, 1412.000000, 8170.500000, 8218.000000, 8222.500000
3512, 8620840.000000, 1394.250000, 8125.000000, 8186.000000, 8175.500000
3513, 8621000.000000, 1384.625000, 8106.000000, 8176.500000, 8159.500000
3514, 8621160.000000, 1371.625000, 8104.000000, 8177.500000, 8160.000000
3515, 8621320.000000, 1353.875000, 8115.000000, 8177.500000, 8164.500000
3516, 8621480.000000, 1332.000000, 8128.500000, 8177.500000, 8169.500000
3517, 8621640.000000, 1308.875000, 8142.000000, 8177.000000, 8172.000000
3518, 8621800.000000, 1288.000000, 8150.500000, 8176.500000, 8174.000000
3519, 8621960.000000, 1263.500000, 8156.000000, 8177.000000, 8174.500000
3520, 8622120.000000, 1231.500000, 8158.000000, 8176.000000, 8173.000000
3521, 8622280.000000, 1215.250000, 8159.000000, 8172.500000, 8169.500000
3522, 8622440.000000, 1298.125000, 8162.000000, 8170.500000, 8167.500000
3523, 8622600.000000, 1553.375000, 8165.500000, 8171.500000, 8169.000000
3524, 8622760.000000, 1982.875000, 8169.000000, 8172.000000, 8171.500000
3525, 8622920.000000, 2436.875000, 8178.000000, 8171.000000, 8172.500000
3526, 8623080.000000, 2780.500000, 8180.000000, 8170.000000, 8171.000000
3527, 8623240.000000, 2949.375000, 8182.000000, 8173.000000, 8178.000000
3528, 8623400.000000, 2970.250000, 8185.500000, 8180.500000, 8193.000000
3529, 8623560.000000, 2898.250000, 8192.000000, 8182.500000, 8202.500000
3530, 8623720.000000, 2802.250000, 8189.500000, 8173.500000, 8186.000000
3531, 8623880.000000, 2694.250000, 8174.500000, 8162.500000, 8164.000000
3532, 8624040.000000, 2562.875000, 8170.000000, 8158.000000, 8158.500000
3533, 8624200.000000, 2421.375000, 8168.500000, 8221.500000, 8211.500000
3534, 8624360.000000, 2305.250000, 8483.500000, 8110.000000, 8258.000000
3535, 8624520.000000, 2247.000000, 8298.000000, 7587.000000, 7676.500000
3536, 8624680.000000, 2237.000000, 8077.500000, 8014.000000, 7952.000000
3537, 8624840.000000, 2229.625000, 8182.500000, 8228.500000, 8240.000000
3538, 8625000.000000, 2191.500000, 8191.000000, 8250.000000, 8266.500000
3539, 8625160.000000, 2127.000000, 8204.000000, 8259.500000, 8282.500000
3540, 8625320.000000, 2042.500000, 8217.000000, 8264.500000, 8292.000000
3541, 8625480.000000, 1950.750000, 8234.000000, 8270.000000, 8305.000000
3542, 8625640.000000, 1867.375000, 8251.500000, 8279.500000, 8322.000000
3543, 8625800.000000, 1796.000000, 8274.000000, 8294.500000, 8346.000000
3544, 8625960.000000, 1737.000000, 8301.000000, 8310.000000, 8372.500000
3545, 8626120.000000, 1683.750000, 8317.500000, 8313.000000, 8380.500000
3546, 8626280.000000, 1642.625000, 8311.500000, 8304.000000, 8366.500000
3547, 8626440.000000, 1607.500000, 8281.000000, 8271.000000, 8322.000000
3548, 8626600.000000, 1581.375000, 8223.500000, 8221.500000, 8249.500000
3549, 8626760.000000, 1558.750000, 8176.500000, 8182.000000, 8191.000000
3550, 8626920.000000, 1535.375000, 8153.500000, 8164.000000, 8161.500000
3551, 8627080.000000, 1506.625000, 8151.000000, 8159.500000, 8155.500000
3552, 8627240.000000, 1479.125000, 8153.500000, 8160.500000, 8158.000000
3553, 8627400.000000, 1455.875000, 8161.500000, 8162.500000, 8162.000000
3554, 8627560.000000, 1427.875000, 8169.000000, 8164.500000, 8165.500000
3555, 8627720.000000, 1391.750000, 8178.500000, 8164.000000, 8168.000000
3556, 8627880.000000, 1345.750000, 8180.000000, 8164.000000, 8166.000000
3557, 8628040.000000, 1318.000000, 8177.000000, 8163.000000, 8163.000000
3558, 8628200.000000, 1385.375000, 8174.000000, 8162.500000, 8159.500000
3559, 8628360.000000, 1640.375000, 8174.500000, 8163.500000, 8160.000000
3560, 8628520.000000, 2052.125000, 8175.500000, 8162.500000, 8156.000000
3561, 8628680.000000, 2494.375000, 8177.000000, 8162.500000, 8156.000000
3562, 8628840.000000, 2819.125000, 8174.000000, 8162.000000, 8153.000000
3563, 8629000.000000, 2990.000000, 8175.000000, 8162.500000, 8153.500000
3564, 8629160.000000, 3006.500000, 8179.500000, 8163.000000, 8156.000000
3565, 8629320.000000, 2941.625000, 8183.000000, 8167.500000, 8163.000000
3566, 8629480.000000, 2854.750000, 8189.000000, 8174.000000, 8179.000000
3567, 8629640.000000, 2767.500000, 8198.000000, 8176.000000, 8187.000000
3568, 8629800.000000, 2665.000000, 8194.500000, 8168.000000, 8170.500000
3569, 8629960.000000, 2532.000000, 8185.500000, 8161.000000, 8153.000000
3570, 8630120.000000, 2398.375000, 8187.000000, 8158.000000, 8148.000000
3571, 8630280.000000, 2298.000000, 8189.500000, 8214.500000, 8193.000000
3572, 8630440.000000, 2252.500000, 8479.500000, 8122.000000, 8248.500000
3573, 8630600.000000, 2236.750000, 8338.500000, 7546.500000, 7636.500000
3574, 8630760.000000, 2230.500000, 8092.000000, 8006.000000, 7929.000000
3575, 8630920.000000, 2207.000000, 8203.000000, 8230.500000, 8227.000000
3576, 8631080.000000, 2159.625000, 8210.500000, 8251.000000, 8252.500000
3577, 8631240.000000, 2093.250000, 8218.500000, 8256.500000, 8262.000000
3578, 8631400.000000, 2013.750000, 8231.000000, 8261.500000, 8273.500000
3579, 8631560.000000, 1928.750000, 8245.500000, 8269.500000, 8286.500000
3580, 8631720.000000, 1845.375000, 8265.000000, 8280.000000, 8304.500000
3581, 8631880.000000, 1768.625000, 8286.500000, 8293.500000, 8326.500000
3582, 8632040.000000, 1707.250000, 8309.000000, 8308.500000, 8349.500000
3583, 8632200.000000, 1654.875000, 8326.500000, 8312.500000, 8359.000000
3584, 8632360.000000, 1614.000000, 8318.500000, 8305.000000, 8348.000000
3585, 8632520.000000, 1579.500000, 8289.500000, 8274.500000, 8303.500000
3586, 8632680.000000, 1550.125000, 8234.000000, 8225.000000, 8231.000000
3587, 8632840.000000, 1520.500000, 8182.500000, 8182.500000, 8167.500000
3588, 8633000.000000, 1490.500000, 8157.000000, 8166.500000, 8141.500000
3589, 8633160.000000, 1463.875000, 8151.000000, 8164.000000, 8135.000000
3590, 8633320.000000, 1445.250000, 8155.500000, 8167.000000, 8140.000000
3591, 8633480.000000, 1428.250000, 8163.000000, 8167.500000, 8141.500000
3592, 8633640.000000, 1408.125000, 8168.000000, 8168.000000, 8147.000000
3593, 8633800.000000, 1373.000000, 8171.000000, 8169.000000, 8148.500000
3594, 8633960.000000, 1329.750000, 8172.500000, 8169.500000, 8148.000000
3595, 8634120.000000, 1297.875000, 8170.500000, 8167.500000, 8145.500000
3596, 8634280.000000, 1358.375000, 8169.000000, 8164.500000, 8140.500000
3597, 8634440.000000, 1592.625000, 8167.000000, 8162.000000, 8137.000000
3598, 8634600.000000, 2008.250000, 8166.500000, 8162.500000, 8137.000000
3599, 8634760.000000, 2477.750000, 8168.000000, 8163.000000, 8138.000000
3600, 8634920.000000, 2858.875000, 8168.500000, 8163.500000, 8136.000000
3601, 8635080.000000, 3080.875000, 8169.500000, 8163.000000, 8135.500000
3602, 8635240.000000, 3147.125000, 8168.000000, 8164.000000, 8137.000000
3603, 8635400.000000, 3121.125000, 8174.000000, 8172.000000, 8153.000000
3604, 8635560.000000, 3061.375000, 8178.000000, 8177.500000, 8165.500000
3605, 8635720.000000, 2994.125000, 8182.500000, 8176.000000, 8161.000000
3606, 8635880.000000, 2906.750000, 8175.500000, 8166.000000, 8142.500000
3607, 8636040.000000, 2778.625000, 8168.500000, 8162.000000, 8134.500000
3608, 8636200.000000, 2627.250000, 8169.000000, 8168.500000, 8136.500000
3609, 8636360.000000, 2481.750000, 8274.000000, 8315.000000, 8331.500000
3610, 8636520.000000, 2370.250000, 8571.000000, 7736.500000, 7926.000000
3611, 8636680.000000, 2295.375000, 7976.000000, 7845.500000, 7718.500000
3612, 8636840.000000, 2251.250000, 8174.000000, 8196.500000, 8162.500000
3613, 8637000.000000, 2219.375000, 8186.500000, 8242.000000, 8221.500000
3614, 8637160.000000, 2181.750000, 8195.500000, 8253.500000, 8239.000000
3615, 8637320.000000, 2120.250000, 8209.000000, 8260.000000, 8251.000000
3616, 8637480.000000, 2037.875000, 8221.000000, 8267.000000, 8263.500000
3617, 8637640.000000, 1936.750000, 8237.000000, 8275.500000, 8279.500000
3618, 8637800.000000, 1833.000000, 8257.000000, 8289.000000, 8301.500000
3619, 8637960.000000, 1736.625000, 8280.500000, 8306.000000, 8328.000000
3620, 8638120.000000, 1654.625000, 8301.500000, 8315.500000, 8343.500000
3621, 8638280.000000, 1578.500000, 8302.000000, 8311.500000, 8339.000000
3622, 8638440.000000, 1510.750000, 8278.500000, 8291.000000, 8311.000000
3623, 8638600.000000, 1442.375000, 8232.000000, 8249.000000, 8250.000000
3624, 8638760.000000, 1372.125000, 8176.500000, 8204.000000, 8184.000000
3625, 8638920.000000, 1310.250000, 8144.000000, 8176.000000, 8143.500000
3626, 8639080.000000, 1257.500000, 8130.000000, 8166.500000, 8128.500000
3627, 8639240.000000, 1207.250000, 8130.500000, 8166.500000, 8130.000000
3628, 8639400.000000, 1150.625000, 8138.500000, 8169.000000, 8138.500000
3629, 8639560.000000, 1088.750000, 8145.500000, 8171.000000, 8141.500000
3630, 8639720.000000, 1026.625000, 8152.500000, 8170.500000, 8143.500000
3631, 8639880.000000, 972.750000, 8154.000000, 8170.000000, 8142.000000
3632, 8640040.000000, 935.750000, 8152.500000, 8167.000000, 8139.000000
3633, 8640200.000000, 937.125000, 8149.500000, 8167.500000, 8139.500000
3634, 8640360.000000, 1064.625000, 8149.500000, 8167.000000, 8138.000000
3635, 8640520.000000, 1367.625000, 8151.000000, 8166.500000, 8137.500000
3636, 8640680.000000, 1839.250000, 8151.500000, 8166.500000, 8137.000000
3637, 8640840.000000, 2322.125000, 8152.500000, 8168.000000, 8141.000000
3638, 8641000.000000, 2690.750000, 8152.500000, 8168.000000, 8141.000000
3639, 8641160.000000, 2880.250000, 8153.500000, 8169.000000, 8142.500000
3640, 8641320.000000, 2914.375000, 8165.000000, 8179.000000, 8164.000000
3641, 8641480.000000, 2856.875000, 8168.500000, 8184.500000, 8176.000000
3642, 8641640.000000, 2765.625000, 8174.000000, 8181.000000, 8170.000000
3643, 8641800.000000, 2661.750000, 8168.500000, 8172.500000, 8156.000000
3644, 8641960.000000, 2529.625000, 8158.500000, 8165.500000, 8140.500000
3645, 8642120.000000, 2387.375000, 8164.000000, 8169.000000, 8143.000000
3646, 8642280.000000, 2270.250000, 8224.500000, 8318.500000, 8317.000000
3647, 8642440.000000, 2216.250000, 8572.500000, 7731.000000, 7925.500000
3648, 8642600.000000, 2218.000000, 7970.000000, 7779.000000, 7659.500000
3649, 8642760.000000, 2244.250000, 8169.500000, 8196.000000, 8171.000000
3650, 8642920.000000, 2258.000000, 8182.500000, 8250.000000, 8236.000000
3651, 8643080.000000, 2238.625000, 8192.000000, 8261.000000, 8252.000000
3652, 8643240.000000, 2178.875000, 8200.500000, 8265.500000, 8261.500000
3653, 8643400.000000, 2096.500000, 8213.500000, 8272.500000, 8274.000000
3654, 8643560.000000, 2003.250000, 8231.500000, 8281.500000, 8292.500000
3655, 8643720.000000, 1909.500000, 8251.500000, 8292.000000, 8310.000000
3656, 8643880.000000, 1823.375000, 8274.000000, 8306.500000, 8334.000000
3657, 8644040.000000, 1744.125000, 8294.000000, 8317.500000, 8351.500000
3658, 8644200.000000, 1670.500000, 8297.000000, 8315.500000, 8349.500000
3659, 8644360.000000, 1605.125000, 8278.500000, 8300.500000, 8327.500000
3660, 8644520.000000, 1551.500000, 8238.500000, 8256.000000, 8267.000000
3661, 8644680.000000, 1511.375000, 8181.000000, 8206.000000, 8194.000000
3662, 8644840.000000, 1481.750000, 8143.000000, 8175.500000, 8150.000000
3663, 8645000.000000, 1459.875000, 8127.000000, 8166.000000, 8134.000000
3664, 8645160.000000, 1434.125000, 8128.500000, 8166.000000, 8135.000000
3665, 8645320.000000, 1404.250000, 8137.000000, 8168.000000, 8140.500000
3666, 8645480.000000, 1365.375000, 8145.500000, 8169.000000, 8145.500000
3667, 8645640.000000, 1317.500000, 8149.000000, 8168.000000, 8147.000000
3668, 8645800.000000, 1266.500000, 8149.500000, 8169.000000, 8148.000000
3669, 8645960.000000, 1217.875000, 8150.000000, 8169.000000, 8148.000000
3670, 8646120.000000, 1193.625000, 8148.500000, 8167.000000, 8143.500000
3671, 8646280.000000, 1273.000000, 8144.500000, 8165.000000, 8139.500000
3672, 8646440.000000, 1531.125000, 8144.500000, 8165.500000, 8142.000000
3673, 8646600.000000, 1954.750000, 8143.000000, 8166.000000, 8141.000000
3674, 8646760.000000, 2414.750000, 8145.000000, 8167.000000, 8144.000000
3675, 8646920.000000, 2784.500000, 8148.000000, 8167.000000, 8144.000000
3676, 8647080.000000, 2976.250000, 8148.000000, 8168.000000, 8143.000000
3677, 8647240.000000, 3018.000000, 8152.500000, 8173.000000, 8155.000000
3678, 8647400.000000, 2955.750000, 8155.000000, 8179.500000, 8169.000000
3679, 8647560.000000, 2859.875000, 8168.000000, 8183.000000, 8179.000000
3680, 8647720.000000, 2751.625000, 8166.500000, 8175.500000, 8164.000000
3681, 8647880.000000, 2618.250000, 8155.000000, 8166.500000, 8145.000000
3682, 8648040.000000, 2456.125000, 8153.000000, 8165.500000, 8144.500000
3683, 8648200.000000, 2305.250000, 8155.500000, 8245.000000, 8213.000000
3684, 8648360.000000, 2210.500000, 8511.500000, 8067.000000, 8214.000000
3685, 8648520.000000, 2175.875000, 8199.000000, 7620.500000, 7642.500000
3686, 8648680.000000, 2180.500000, 8093.000000, 8072.500000, 7999.000000
3687, 8648840.000000, 2186.750000, 8169.500000, 8241.500000, 8229.000000
3688, 8649000.000000, 2167.625000, 8176.500000, 8260.500000, 8252.500000
3689, 8649160.000000, 2114.375000, 8186.000000, 8267.000000, 8262.500000
3690, 8649320.000000, 2033.500000, 8200.500000, 8272.000000, 8275.500000
3691, 8649480.000000, 1941.250000, 8214.000000, 8277.000000, 8285.000000
3692, 8649640.000000, 1849.125000, 8233.500000, 8287.500000, 8304.500000
3693, 8649800.000000, 1767.500000, 8255.500000, 8303.000000, 8330.000000
3694, 8649960.000000, 1699.750000, 8281.500000, 8317.500000, 8353.500000
3695, 8650120.000000, 1642.500000, 8293.000000, 8318.500000, 8358.500000
3696, 8650280.000000, 1593.750000, 8281.000000, 8308.000000, 8342.500000
3697, 8650440.000000, 1547.625000, 8248.500000, 8276.500000, 8298.000000
3698, 8650600.000000, 1503.375000, 8194.500000, 8230.500000, 8233.000000
3699, 8650760.000000, 1464.250000, 8149.500000, 8190.500000, 8173.500000
3700, 8650920.000000, 1432.125000, 8128.000000, 8173.000000, 8147.500000
3701, 8651080.000000, 1405.875000, 8124.000000, 8169.500000, 8143.500000
3702, 8651240.000000, 1384.000000, 8128.000000, 8170.000000, 8145.000000
3703, 8651400.000000, 1364.000000, 8137.000000, 8171.000000, 8151.500000
3704, 8651560.000000, 1343.375000, 8143.500000, 8172.500000, 8155.500000
3705, 8651720.000000, 1318.500000, 8148.500000, 8172.000000, 8155.500000
3706, 8651880.000000, 1282.375000, 8147.000000, 8169.000000, 8152.000000
3707, 8652040.000000, 1246.625000, 8145.000000, 8168.000000, 8149.000000
3708, 8652200.000000, 1266.625000, 8143.000000, 8167.000000, 8147.500000
3709, 8652360.000000, 1435.375000, 8143.500000, 8167.000000, 8146.000000
3710, 8652520.000000, 1803.000000, 8144.500000, 8166.500000, 8146.000000
3711, 8652680.000000, 2279.000000, 8145.000000, 8165.500000, 8144.500000
3712, 8652840.000000, 2716.500000, 8145.000000, 8166.000000, 8146.000000
3713, 8653000.000000, 3000.375000, 8146.500000, 8166.500000, 8146.500000
3714, 8653160.000000, 3102.500000, 8148.500000, 8168.000000, 8149.500000
3715, 8653320.000000, 3074.750000, 8155.500000, 8173.500000, 8161.500000
3716, 8653480.000000, 2976.500000, 8158.000000, 8178.000000, 8170.000000
3717, 8653640.000000, 2860.000000, 8172.000000, 8182.000000, 8180.500000
3718, 8653800.000000, 2733.625000, 8167.500000, 8174.000000, 8166.000000
3719, 8653960.000000, 2583.125000, 8158.500000, 8165.000000, 8148.000000
3720, 8654120.000000, 2431.000000, 8161.000000, 8166.000000, 8149.000000
3721, 8654280.000000, 2318.500000, 8171.500000, 8263.500000, 8242.000000
3722, 8654440.000000, 2272.625000, 8595.500000, 7983.000000, 8171.000000
3723, 8654600.000000, 2273.625000, 8088.000000, 7691.000000, 7657.000000
3724, 8654760.000000, 2288.375000, 8127.000000, 8121.500000, 8069.500000
3725, 8654920.000000, 2293.125000, 8174.500000, 8237.000000, 8228.500000
3726, 8655080.000000, 2268.625000, 8182.500000, 8249.500000, 8245.500000
3727, 8655240.000000, 2214.250000, 8190.000000, 8253.500000, 8255.000000
3728, 8655400.000000, 2130.875000, 8205.000000, 8257.500000, 8265.000000
3729, 8655560.000000, 2035.000000, 8225.000000, 8261.500000, 8276.500000
3730, 8655720.000000, 1937.875000, 8245.000000, 8267.000000, 8289.500000
3731, 8655880.000000, 1852.375000, 8267.000000, 8276.500000, 8306.500000
3732, 8656040.000000, 1784.375000, 8288.000000, 8284.500000, 8322.500000
3733, 8656200.000000, 1725.250000, 8295.500000, 8284.000000, 8325.000000
3734, 8656360.000000, 1675.750000, 8284.500000, 8274.000000, 8310.500000
3735, 8656520.000000, 1627.500000, 8252.000000, 8247.500000, 8270.500000
3736, 8656680.000000, 1576.875000, 8200.500000, 8208.000000, 8213.500000
3737, 8656840.000000, 1523.000000, 8153.500000, 8175.000000, 8162.000000
3738, 8657000.000000, 1455.250000, 8132.500000, 8163.000000, 8143.500000
3739, 8657160.000000, 1379.125000, 8132.500000, 8163.000000, 8143.500000
3740, 8657320.000000, 1303.500000, 8145.500000, 8164.000000, 8149.500000
3741, 8657480.000000, 1243.625000, 8153.500000, 8163.000000, 8151.500000
3742, 8657640.000000, 1202.875000, 8158.000000, 8164.000000, 8153.000000
3743, 8657800.000000, 1170.250000, 8159.000000, 8165.500000, 8156.500000
3744, 8657960.000000, 1132.375000, 8158.000000, 8165.000000, 8153.500000
3745, 8658120.000000, 1081.500000, 8157.000000, 8164.000000, 8150.000000
3746, 8658280.000000, 1048.500000, 8153.000000, 8163.000000, 8146.500000
3747, 8658440.000000, 1101.875000, 8152.500000, 8164.500000, 8147.500000
3748, 8658600.000000, 1341.500000, 8153.000000, 8165.000000, 8150.000000
3749, 8658760.000000, 1717.750000, 8155.500000, 8167.500000, 8152.500000
3750, 8658920.000000, 2113.000000, 8159.500000, 8169.500000, 8157.000000
3751, 8659080.000000, 2390.250000, 8164.500000, 8177.000000, 8172.000000
3752, 8659240.000000, 2517.375000, 8172.000000, 8182.500000, 8188.500000
3753, 8659400.000000, 2517.375000, 8174.500000, 8176.500000, 8176.000000
3754, 8659560.000000, 2449.375000, 8161.500000, 8168.000000, 8154.000000
3755, 8659720.000000, 2359.625000, 8162.500000, 8164.500000, 8149.000000
3756, 8659880.000000, 2243.750000, 8161.500000, 8219.000000, 8191.000000
3757, 8660040.000000, 2102.250000, 8478.500000, 8170.000000, 8295.000000
3758, 8660200.000000, 1952.000000, 8320.000000, 7650.500000, 7740.500000
3759, 8660360.000000, 1834.625000, 8056.500000, 8003.500000, 7910.500000
3760, 8660520.000000, 1763.500000, 8183.000000, 8228.500000, 8219.500000
3761, 8660680.000000, 1736.875000, 8188.000000, 8248.500000, 8243.500000
3762, 8660840.000000, 1738.875000, 8196.000000, 8257.000000, 8257.000000
3763, 8661000.000000, 1742.750000, 8207.500000, 8264.500000, 8271.500000
3764, 8661160.000000, 1726.500000, 8226.000000, 8271.500000, 8286.000000
3765, 8661320.000000, 1680.875000, 8244.000000, 8281.500000, 8303.000000
3766, 8661480.000000, 1613.875000, 8266.000000, 8295.000000, 8325.000000
3767, 8661640.000000, 1540.375000, 8288.500000, 8308.500000, 8347.500000
3768, 8661800.000000, 1472.375000, 8299.000000, 8313.000000, 8355.000000
3769, 8661960.000000, 1422.375000, 8289.000000, 8301.500000, 8337.500000
3770, 8662120.000000, 1399.875000, 8259.500000, 8273.000000, 8297.000000
3771, 8662280.000000, 1395.250000, 8207.500000, 8228.500000, 8234.000000
3772, 8662440.000000, 1401.875000, 8159.000000, 8189.500000, 8178.000000
3773, 8662600.000000, 1411.500000, 8137.000000, 8173.000000, 8153.500000
3774, 8662760.000000, 1421.500000, 8134.000000, 8170.500000, 8149.000000
3775, 8662920.000000, 1428.250000, 8143.000000, 8172.000000, 8155.000000
3776, 8663080.000000, 1432.625000, 8149.500000, 8173.000000, 8159.000000
3777, 8663240.000000, 1431.625000, 8156.000000, 8173.500000, 8164.500000
3778, 8663400.000000, 1424.125000, 8156.000000, 8172.000000, 8161.500000
3779, 8663560.000000, 1413.000000, 8157.000000, 8171.500000, 8160.500000
3780, 8663720.000000, 1393.625000, 8156.500000, 8167.500000, 8155.000000
3781, 8663880.000000, 1386.000000, 8153.000000, 8166.000000, 8151.000000
3782, 8664040.000000, 1438.625000, 8151.500000, 8167.000000, 8151.500000
3783, 8664200.000000, 1638.000000, 8152.000000, 8168.000000, 8152.500000
3784, 8664360.000000, 1992.125000, 8155.000000, 8169.000000, 8154.000000
3785, 8664520.000000, 2421.375000, 8159.000000, 8168.500000, 8155.500000
3786, 8664680.000000, 2778.375000, 8159.000000, 8168.000000, 8155.000000
3787, 8664840.000000, 2990.500000, 8165.000000, 8179.500000, 8177.000000
3788, 8665000.000000, 3030.250000, 8171.000000, 8187.500000, 8195.500000
3789, 8665160.000000, 2963.375000, 8176.500000, 8182.500000, 8184.000000
3790, 8665320.000000, 2839.625000, 8168.500000, 8171.000000, 8161.000000
3791, 8665480.000000, 2687.750000, 8164.000000, 8166.500000, 8153.000000
3792, 8665640.000000, 2512.750000, 8159.500000, 8180.500000, 8157.500000
3793, 8665800.000000, 2331.750000, 8330.500000, 8289.000000, 8349.000000
3794, 8665960.000000, 2192.125000, 8523.000000, 7624.000000, 7815.500000
3795, 8666120.000000, 2123.000000, 7992.500000, 7891.500000, 7773.000000
3796, 8666280.000000, 2123.625000, 8181.000000, 8219.500000, 8212.500000
3797, 8666440.000000, 2158.875000, 8186.000000, 8252.000000, 8251.000000
3798, 8666600.000000, 2191.250000, 8195.000000, 8261.500000, 8265.500000
3799, 8666760.000000, 2193.875000, 8208.500000, 8268.500000, 8278.500000
3800, 8666920.000000, 2154.625000, 8222.500000, 8276.000000, 8290.500000
3801, 8667080.000000, 2076.250000, 8239.000000, 8283.500000, 8305.500000
3802, 8667240.000000, 1974.500000, 8259.000000, 8297.000000, 8327.000000
3803, 8667400.000000, 1868.875000, 8283.500000, 8314.000000, 8354.000000
3804, 8667560.000000, 1772.500000, 8301.500000, 8321.500000, 8366.500000
3805, 8667720.000000, 1690.250000, 8297.500000, 8314.500000, 8357.500000
3806, 8667880.000000, 1619.125000, 8273.000000, 8293.500000, 8326.500000
3807, 8668040.000000, 1561.375000, 8228.000000, 8249.000000, 8265.000000
3808, 8668200.000000, 1515.625000, 8176.500000, 8202.500000, 8198.500000
3809, 8668360.000000, 1482.875000, 8146.000000, 8180.000000, 8165.000000
3810, 8668520.000000, 1462.000000, 8138.500000, 8171.000000, 8152.500000
3811, 8668680.000000, 1446.125000, 8142.000000, 8171.000000, 8155.000000
3812, 8668840.000000, 1429.875000, 8148.500000, 8173.500000, 8161.500000
3813, 8669000.000000, 1417.125000, 8157.500000, 8177.000000, 8168.500000
3814, 8669160.000000, 1399.000000, 8160.500000, 8176.500000, 8168.000000
3815, 8669320.000000, 1380.750000, 8163.000000, 8174.500000, 8166.500000
3816, 8669480.000000, 1352.500000, 8159.000000, 8172.000000, 8161.500000
3817, 8669640.000000, 1332.375000, 8156.500000, 8172.500000, 8161.000000
3818, 8669800.000000, 1389.375000, 8156.500000, 8173.500000, 8161.000000
3819, 8669960.000000, 1602.750000, 8157.500000, 8173.500000, 8160.500000
3820, 8670120.000000, 2011.625000, 8157.500000, 8172.000000, 8158.500000
3821, 8670280.000000, 2490.375000, 8159.000000, 8171.000000, 8158.500000
3822, 8670440.000000, 2893.375000, 8159.500000, 8172.500000, 8161.000000
3823, 8670600.000000, 3124.125000, 8168.000000, 8184.500000, 8183.500000
3824, 8670760.000000, 3187.750000, 8173.500000, 8189.000000, 8194.000000
3825, 8670920.000000, 3132.125000, 8180.500000, 8183.000000, 8185.500000
3826, 8671080.000000, 3022.000000, 8173.500000, 8175.000000, 8169.000000
3827, 8671240.000000, 2898.125000, 8163.500000, 8169.500000, 8155.000000
3828, 8671400.000000, 2749.625000, 8168.500000, 8173.000000, 8159.500000
3829, 8671560.000000, 2582.625000, 8229.000000, 8320.000000, 8330.500000
3830, 8671720.000000, 2426.625000, 8604.000000, 7761.000000, 7977.000000
3831, 8671880.000000, 2322.625000, 7978.000000, 7799.500000, 7690.500000
3832, 8672040.000000, 2277.375000, 8173.500000, 8201.000000, 8184.000000
3833, 8672200.000000, 2273.375000, 8182.000000, 8254.000000, 8249.000000
3834, 8672360.000000, 2278.625000, 8195.000000, 8264.000000, 8266.000000
3835, 8672520.000000, 2267.000000, 8204.000000, 8268.000000, 8273.000000
3836, 8672680.000000, 2213.125000, 8215.000000, 8271.500000, 8281.500000
3837, 8672840.000000, 2126.625000, 8231.500000, 8278.000000, 8297.000000
3838, 8673000.000000, 2018.500000, 8252.500000, 8287.500000, 8315.500000
3839, 8673160.000000, 1911.750000, 8276.500000, 8297.500000, 8333.500000
3840, 8673320.000000, 1812.250000, 8296.000000, 8298.500000, 8339.000000
3841, 8673480.000000, 1725.000000, 8298.000000, 8289.500000, 8331.000000
3842, 8673640.000000, 1649.500000, 8276.500000, 8275.000000, 8309.000000
3843, 8673800.000000, 1584.250000, 8237.000000, 8244.500000, 8264.500000
3844, 8673960.000000, 1536.000000, 8185.000000, 8206.500000, 8206.000000
3845, 8674120.000000, 1504.625000, 8151.000000, 8179.000000, 8167.000000
3846, 8674280.000000, 1480.375000, 8134.000000, 8168.500000, 8151.000000
3847, 8674440.000000, 1456.500000, 8135.000000, 8168.500000, 8151.500000
3848, 8674600.000000, 1422.625000, 8142.500000, 8170.500000, 8156.000000
3849, 8674760.000000, 1377.125000, 8153.500000, 8169.500000, 8158.000000
3850, 8674920.000000, 1312.875000, 8158.000000, 8167.500000, 8156.500000
3851, 8675080.000000, 1236.000000, 8157.000000, 8165.000000, 8153.000000
3852, 8675240.000000, 1156.625000, 8153.000000, 8163.500000, 8150.500000
3853, 8675400.000000, 1093.875000, 8153.000000, 8163.000000, 8150.000000
3854, 8675560.000000, 1076.000000, 8153.000000, 8162.500000, 8147.500000
3855, 8675720.000000, 1187.125000, 8152.000000, 8161.000000, 8144.000000
3856, 8675880.000000, 1489.375000, 8151.000000, 8161.500000, 8144.500000
3857, 8676040.000000, 1952.000000, 8155.500000, 8171.000000, 8161.000000
3858, 8676200.000000, 2419.625000, 8157.500000, 8179.000000, 8175.000000
3859, 8676360.000000, 2753.750000, 8164.000000, 8175.000000, 8173.500000
3860, 8676520.000000, 2882.750000, 8161.500000, 8168.500000, 8157.500000
3861, 8676680.000000, 2852.750000, 8148.000000, 8160.000000, 8139.000000
3862, 8676840.000000, 2729.375000, 8147.500000, 8161.000000, 8140.500000
3863, 8677000.000000, 2582.500000, 8169.000000, 8274.500000, 8257.500000
3864, 8677160.000000, 2432.500000, 8572.000000, 7965.000000, 8145.500000
3865, 8677320.000000, 2281.625000, 8000.000000, 7752.500000, 7689.000000
3866, 8677480.000000, 2146.000000, 8105.000000, 8111.500000, 8048.000000
3867, 8677640.000000, 2055.625000, 8154.000000, 8229.500000, 8211.500000
3868, 8677800.000000, 2028.750000, 8163.000000, 8246.500000, 8235.500000
3869, 8677960.000000, 2046.625000, 8172.500000, 8254.000000, 8247.000000
3870, 8678120.000000, 2075.250000, 8185.000000, 8261.000000, 8259.500000
3871, 8678280.000000, 2081.125000, 8198.500000, 8271.500000, 8277.000000
3872, 8678440.000000, 2043.750000, 8213.500000, 8285.000000, 8296.500000
3873, 8678600.000000, 1956.250000, 8237.500000, 8303.500000, 8325.000000
3874, 8678760.000000, 1831.250000, 8258.000000, 8316.000000, 8343.000000
3875, 8678920.000000, 1697.625000, 8259.000000, 8315.500000, 8341.000000
3876, 8679080.000000, 1580.125000, 8239.000000, 8302.000000, 8319.500000
3877, 8679240.000000, 1486.375000, 8198.000000, 8268.000000, 8270.000000
3878, 8679400.000000, 1420.625000, 8146.000000, 8224.000000, 8207.500000
3879, 8679560.000000, 1369.875000, 8110.500000, 8193.500000, 8163.500000
3880, 8679720.000000, 1332.875000, 8092.000000, 8181.500000, 8144.000000
3881, 8679880.000000, 1302.750000, 8092.000000, 8181.000000, 8142.000000
3882, 8680040.000000, 1282.250000, 8097.000000, 8184.500000, 8146.500000
3883, 8680200.000000, 1273.875000, 8107.000000, 8187.500000, 8154.000000
3884, 8680360.000000, 1274.625000, 8112.500000, 8188.500000, 8156.000000
3885, 8680520.000000, 1279.125000, 8115.500000, 8190.000000, 8158.500000
3886, 8680680.000000, 1279.375000, 8114.000000, 8191.000000, 8161.000000
3887, 8680840.000000, 1269.250000, 8114.500000, 8193.500000, 8165.000000
3888, 8681000.000000, 1263.750000, 8116.000000, 8197.000000, 8170.000000
3889, 8681160.000000, 1329.000000, 8119.500000, 8200.000000, 8176.000000
3890, 8681320.000000, 1563.375000, 8121.500000, 8201.000000, 8177.500000
3891, 8681480.000000, 1958.125000, 8124.000000, 8204.000000, 8184.000000
3892, 8681640.000000, 2422.375000, 8127.000000, 8207.000000, 8190.000000
3893, 8681800.000000, 2810.000000, 8137.000000, 8217.000000, 8209.500000
3894, 8681960.000000, 3031.625000, 8141.000000, 8225.000000, 8224.000000
3895, 8682120.000000, 3082.500000, 8152.500000, 8225.000000, 8232.500000
3896, 8682280.000000, 3019.000000, 8151.500000, 8219.500000, 8220.500000
3897, 8682440.000000, 2897.000000, 8141.000000, 8212.000000, 8205.000000
3898, 8682600.000000, 2746.375000, 8143.000000, 8212.500000, 8205.000000
3899, 8682760.000000, 2569.750000, 8158.000000, 8313.500000, 8303.000000
3900, 8682920.000000, 2386.625000, 8539.000000, 8029.000000, 8211.500000
3901, 8683080.000000, 2236.875000, 8069.000000, 7724.000000, 7706.000000
3902, 8683240.000000, 2162.000000, 8106.000000, 8153.500000, 8111.500000
3903, 8683400.000000, 2156.125000, 8163.500000, 8285.500000, 8291.500000
3904, 8683560.000000, 2181.250000, 8175.000000, 8301.500000, 8313.000000
3905, 8683720.000000, 2201.250000, 8187.000000, 8306.000000, 8322.000000
3906, 8683880.000000, 2191.750000, 8197.000000, 8310.500000, 8332.500000
3907, 8684040.000000, 2150.750000, 8213.000000, 8318.000000, 8346.000000
3908, 8684200.000000, 2076.375000, 8235.000000, 8328.500000, 8368.000000
3909, 8684360.000000, 1981.875000, 8259.000000, 8343.500000, 8392.000000
3910, 8684520.000000, 1879.375000, 8283.500000, 8355.000000, 8412.000000
3911, 8684680.000000, 1780.500000, 8284.500000, 8352.500000, 8412.000000
3912, 8684840.000000, 1693.750000, 8271.500000, 8339.000000, 8394.000000
3913, 8685000.000000, 1614.750000, 8238.000000, 8300.500000, 8345.000000
3914, 8685160.000000, 1558.125000, 8185.000000, 8246.000000, 8271.500000
3915, 8685320.000000, 1520.500000, 8144.500000, 8206.500000, 8218.500000
3916, 8685480.000000, 1495.000000, 8124.500000, 8187.500000, 8193.500000
3917, 8685640.000000, 1476.500000, 8123.000000, 8183.000000, 8191.000000
3918, 8685800.000000, 1467.500000, 8131.000000, 8183.000000, 8195.500000
3919, 8685960.000000, 1457.500000, 8138.500000, 8182.500000, 8199.000000
3920, 8686120.000000, 1441.750000, 8143.000000, 8180.500000, 8200.500000
3921, 8686280.000000, 1409.000000, 8142.000000, 8176.500000, 8196.500000
3922, 8686440.000000, 1362.875000, 8138.500000, 8175.000000, 8195.500000
3923, 8686600.000000, 1315.250000, 8134.500000, 8172.000000, 8190.500000
3924, 8686760.000000, 1301.375000, 8132.500000, 8171.000000, 8187.500000
3925, 8686920.000000, 1412.250000, 8128.500000, 8169.000000, 8184.500000
3926, 8687080.000000, 1729.125000, 8125.500000, 8167.500000, 8183.000000
3927, 8687240.000000, 2230.500000, 8124.000000, 8168.500000, 8182.500000
3928, 8687400.000000, 2758.250000, 8125.000000, 8169.500000, 8183.500000
3929, 8687560.000000, 3160.875000, 8124.000000, 8168.500000, 8182.500000
3930, 8687720.000000, 3354.625000, 8126.500000, 8175.000000, 8198.500000
3931, 8687880.000000, 3379.000000, 8125.000000, 8177.500000, 8208.500000
3932, 8688040.000000, 3296.750000, 8132.500000, 8174.000000, 8206.500000
3933, 8688200.000000, 3180.750000, 8126.000000, 8168.000000, 8191.000000
3934, 8688360.000000, 3049.375000, 8114.000000, 8158.000000, 8171.000000
3935, 8688520.000000, 2885.000000, 8116.500000, 8157.500000, 8170.000000
3936, 8688680.000000, 2705.250000, 8143.000000, 8285.500000, 8304.000000
3937, 8688840.000000, 2550.000000, 8525.500000, 7840.500000, 8062.000000
3938, 8689000.000000, 2458.000000, 7950.500000, 7709.000000, 7662.000000
3939, 8689160.000000, 2424.625000, 8094.000000, 8146.000000, 8150.500000
3940, 8689320.000000, 2421.000000, 8115.500000, 8223.000000, 8257.000000
3941, 8689480.000000, 2412.750000, 8116.000000, 8231.500000, 8272.500000
3942, 8689640.000000, 2376.875000, 8121.500000, 8233.500000, 8280.500000
3943, 8689800.000000, 2303.375000, 8134.000000, 8239.500000, 8293.000000
3944, 8689960.000000, 2202.500000, 8154.000000, 8247.000000, 8308.500000
3945, 8690120.000000, 2089.375000, 8176.000000, 8256.500000, 8325.000000
3946, 8690280.000000, 1978.500000, 8201.500000, 8273.000000, 8348.500000
3947, 8690440.000000, 1874.250000, 8227.000000, 8285.000000, 8364.500000
3948, 8690600.000000, 1783.750000, 8240.000000, 8290.000000, 8369.000000
3949, 8690760.000000, 1705.500000, 8229.500000, 8277.500000, 8346.500000
3950, 8690920.000000, 1641.000000, 8195.500000, 8240.500000, 8291.000000
3951, 8691080.000000, 1589.000000, 8144.500000, 8192.500000, 8221.000000
3952, 8691240.000000, 1552.875000, 8107.500000, 8161.000000, 8172.000000
3953, 8691400.000000, 1524.875000, 8096.000000, 8152.000000, 8152.000000
3954, 8691560.000000, 1504.000000, 8100.500000, 8151.000000, 8148.500000
3955, 8691720.000000, 1479.750000, 8110.000000, 8155.000000, 8152.000000
3956, 8691880.000000, 1454.750000, 8119.500000, 8158.000000, 8158.500000
3957, 8692040.000000, 1429.500000, 8127.500000, 8161.500000, 8163.500000
3958, 8692200.000000, 1395.000000, 8135.500000, 8162.000000, 8163.500000
3959, 8692360.000000, 1347.125000, 8136.500000, 8160.500000, 8158.000000
3960, 8692520.000000, 1294.375000, 8139.000000, 8160.000000, 8156.000000
3961, 8692680.000000, 1277.625000, 8139.000000, 8160.500000, 8152.500000
3962, 8692840.000000, 1399.875000, 8138.000000, 8161.500000, 8151.000000
3963, 8693000.000000, 1722.625000, 8143.000000, 8163.500000, 8152.000000
3964, 8693160.000000, 2238.750000, 8147.000000, 8163.500000, 8151.500000
3965, 8693320.000000, 2772.125000, 8150.000000, 8165.000000, 8150.500000
3966, 8693480.000000, 3171.500000, 8154.500000, 8166.500000, 8153.000000
3967, 8693640.000000, 3362.625000, 8163.500000, 8174.500000, 8166.500000
3968, 8693800.000000, 3381.000000, 8171.500000, 8181.500000, 8179.000000
3969, 8693960.000000, 3305.000000, 8186.500000, 8183.000000, 8185.500000
3970, 8694120.000000, 3199.500000, 8187.500000, 8174.500000, 8169.000000
3971, 8694280.000000, 3078.500000, 8176.000000, 8166.000000, 8150.500000
3972, 8694440.000000, 2912.375000, 8180.500000, 8166.500000, 8151.000000
3973, 8694600.000000, 2718.125000, 8188.000000, 8258.500000, 8232.000000
3974, 8694760.000000, 2536.000000, 8562.500000, 8016.500000, 8179.500000
3975, 8694920.000000, 2415.375000, 8154.500000, 7650.000000, 7638.500000
3976, 8695080.000000, 2367.000000, 8137.000000, 8107.000000, 8046.000000
3977, 8695240.000000, 2366.375000, 8198.000000, 8249.000000, 8236.000000
3978, 8695400.000000, 2367.125000, 8205.000000, 8266.000000, 8257.000000
3979, 8695560.000000, 2340.125000, 8217.000000, 8273.000000, 8268.000000
3980, 8695720.000000, 2268.750000, 8229.500000, 8278.500000, 8278.500000
3981, 8695880.000000, 2169.625000, 8244.000000, 8283.500000, 8291.000000
3982, 8696040.000000, 2058.250000, 8263.000000, 8296.500000, 8311.000000
3983, 8696200.000000, 1941.500000, 8288.000000, 8310.000000, 8333.000000
3984, 8696360.000000, 1834.375000, 8312.000000, 8322.000000, 8354.000000
3985, 8696520.000000, 1740.875000, 8320.000000, 8320.500000, 8353.000000
3986, 8696680.000000, 1665.125000, 8304.500000, 8310.500000, 8338.500000
3987, 8696840.000000, 1607.500000, 8272.000000, 8279.500000, 8293.000000
3988, 8697000.000000, 1560.375000, 8218.500000, 8234.000000, 8226.000000
3989, 8697160.000000, 1520.125000, 8174.000000, 8195.500000, 8169.000000
3990, 8697320.000000, 1482.000000, 8150.500000, 8178.500000, 8143.000000
3991, 8697480.000000, 1445.250000, 8146.000000, 8177.000000, 8140.000000
3992, 8697640.000000, 1408.000000, 8150.500000, 8181.500000, 8147.000000
3993, 8697800.000000, 1376.375000, 8157.500000, 8184.000000, 8151.500000
3994, 8697960.000000, 1344.500000, 8167.000000, 8185.500000, 8156.000000
3995, 8698120.000000, 1311.875000, 8167.000000, 8184.000000, 8153.000000
3996, 8698280.000000, 1267.750000, 8164.000000, 8183.000000, 8151.500000
3997, 8698440.000000, 1218.750000, 8158.000000, 8183.000000, 8148.000000
3998, 8698600.000000, 1185.250000, 8157.000000, 8183.000000, 8146.000000
3999, 8698760.000000, 1230.750000, 8157.500000, 8183.000000, 8145.500000
4000, 8698920.000000, 1448.875000, 8155.500000, 8182.000000, 8143.000000
4001, 8699080.000000, 1875.000000, 8153.000000, 8183.000000, 8144.000000
4002, 8699240.000000, 2401.875000, 8155.500000, 8185.500000, 8147.500000
4003, 8699400.000000, 2870.250000, 8154.500000, 8186.000000, 8147.500000
4004, 8699560.000000, 3146.375000, 8156.000000, 8187.000000, 8148.500000
4005, 8699720.000000, 3236.375000, 8158.000000, 8186.500000, 8149.500000
4006, 8699880.000000, 3192.000000, 8168.000000, 8192.500000, 8167.500000
4007, 8700040.000000, 3094.625000, 8176.000000, 8196.000000, 8176.500000
4008, 8700200.000000, 2982.375000, 8178.000000, 8197.500000, 8176.500000
4009, 8700360.000000, 2840.500000, 8173.500000, 8190.500000, 8163.500000
4010, 8700520.000000, 2657.250000, 8163.500000, 8184.500000, 8150.500000
4011, 8700680.000000, 2470.000000, 8164.000000, 8185.000000, 8150.000000
4012, 8700840.000000, 2332.500000, 8210.000000, 8327.500000, 8309.000000
4013, 8701000.000000, 2265.875000, 8592.000000, 7769.000000, 7961.500000
4014, 8701160.000000, 2257.500000, 7979.500000, 7788.000000, 7664.500000
4015, 8701320.000000, 2271.375000, 8169.500000, 8208.500000, 8172.000000
4016, 8701480.000000, 2265.375000, 8181.000000, 8267.500000, 8245.500000
4017, 8701640.000000, 2218.250000, 8187.000000, 8280.500000, 8261.500000
4018, 8701800.000000, 2130.375000, 8199.000000, 8287.500000, 8274.500000
4019, 8701960.000000, 2019.000000, 8213.500000, 8291.000000, 8283.500000
4020, 8702120.000000, 1901.250000, 8231.000000, 8295.500000, 8294.500000
4021, 8702280.000000, 1792.750000, 8248.000000, 8305.000000, 8311.500000
4022, 8702440.000000, 1691.875000, 8271.500000, 8316.000000, 8332.000000
4023, 8702600.000000, 1607.375000, 8292.000000, 8322.500000, 8346.000000
4024, 8702760.000000, 1540.000000, 8296.500000, 8316.000000, 8340.500000
4025, 8702920.000000, 1482.375000, 8278.500000, 8299.500000, 8315.500000
4026, 8703080.000000, 1433.375000, 8238.000000, 8265.000000, 8266.000000
4027, 8703240.000000, 1399.625000, 8183.000000, 8222.000000, 8202.500000
4028, 8703400.000000, 1374.000000, 8144.500000, 8191.000000, 8159.000000
4029, 8703560.000000, 1356.125000, 8128.000000, 8177.500000, 8140.000000
4030, 8703720.000000, 1336.000000, 8129.500000, 8175.000000, 8138.500000
4031, 8703880.000000, 1313.000000, 8136.500000, 8175.000000, 8142.500000
4032, 8704040.000000, 1295.250000, 8145.500000, 8175.000000, 8146.500000
4033, 8704200.000000, 1279.000000, 8151.000000, 8174.500000, 8149.500000
4034, 8704360.000000, 1252.250000, 8156.500000, 8172.500000, 8149.000000
4035, 8704520.000000, 1205.875000, 8157.000000, 8169.500000, 8146.500000
4036, 8704680.000000, 1137.500000, 8151.000000, 8165.000000, 8141.000000
4037, 8704840.000000, 1076.625000, 8150.000000, 8163.000000, 8140.000000
4038, 8705000.000000, 1094.250000, 8150.500000, 8163.000000, 8137.500000
4039, 8705160.000000, 1307.500000, 8154.500000, 8160.500000, 8136.000000
4040, 8705320.000000, 1734.500000, 8155.500000, 8158.000000, 8135.000000
4041, 8705480.000000, 2272.750000, 8155.000000, 8158.500000, 8135.500000
4042, 8705640.000000, 2724.125000, 8155.000000, 8160.500000, 8137.500000
4043, 8705800.000000, 3002.000000, 8164.000000, 8168.500000, 8155.500000
4044, 8705960.000000, 2972.125000, 8169.500000, 8170.000000, 8164.500000
4045, 8706120.000000, 2801.625000, 8173.000000, 8165.500000, 8156.500000
4046, 8706280.000000, 2561.750000, 8166.000000, 8160.000000, 8145.000000
4047, 8706440.000000, 2317.750000, 8160.500000, 8156.500000, 8136.000000
4048, 8706600.000000, 2065.500000, 8165.500000, 8165.000000, 8143.500000
4049, 8706760.000000, 1857.750000, 8271.000000, 8306.000000, 8332.500000
4050, 8706920.000000, 1735.625000, 8578.500000, 7806.000000, 8007.500000
4051, 8707080.000000, 1708.000000, 7971.000000, 7857.500000, 7754.500000
4052, 8707240.000000, 1712.875000, 8163.000000, 8175.500000, 8143.500000
4053, 8707400.000000, 1709.000000, 8184.000000, 8231.000000, 8220.000000
4054, 8707560.000000, 1674.875000, 8197.500000, 8241.500000, 8236.500000
4055, 8707720.000000, 1605.625000, 8206.500000, 8248.000000, 8248.500000
4056, 8707880.000000, 1513.625000, 8221.000000, 8255.500000, 8263.500000
4057, 8708040.000000, 1416.500000, 8240.000000, 8265.500000, 8281.500000
4058, 8708200.000000, 1328.125000, 8260.000000, 8279.500000, 8303.000000
4059, 8708360.000000, 1246.375000, 8286.000000, 8293.500000, 8327.000000
4060, 8708520.000000, 1180.000000, 8302.000000, 8303.000000, 8341.000000
4061, 8708680.000000, 1135.750000, 8300.000000, 8299.500000, 8336.500000
4062, 8708840.000000, 1117.500000, 8277.500000, 8282.500000, 8310.500000
4063, 8709000.000000, 1113.000000, 8235.500000, 8244.500000, 8255.500000
4064, 8709160.000000, 1112.375000, 8186.500000, 8199.000000, 8192.500000
4065, 8709320.000000, 1106.500000, 8152.500000, 8169.500000, 8151.500000
4066, 8709480.000000, 1092.000000, 8140.500000, 8160.500000, 8139.500000
4067, 8709640.000000, 1070.625000, 8144.000000, 8162.500000, 8144.000000
4068, 8709800.000000, 1041.875000, 8154.000000, 8165.000000, 8150.000000
4069, 8709960.000000, 1000.375000, 8164.500000, 8165.500000, 8154.500000
4070, 8710120.000000, 944.625000, 8168.000000, 8165.000000, 8154.500000
4071, 8710280.000000, 890.750000, 8169.500000, 8165.000000, 8154.500000
4072, 8710440.000000, 853.750000, 8168.000000, 8166.000000, 8155.000000
4073, 8710600.000000, 853.625000, 8166.000000, 8165.000000, 8153.000000
4074, 8710760.000000, 963.000000, 8165.500000, 8163.000000, 8149.500000
4075, 8710920.000000, 1239.625000, 8165.000000, 8162.500000, 8147.500000
4076, 8711080.000000, 1699.250000, 8164.000000, 8164.500000, 8149.500000
4077, 8711240.000000, 2203.000000, 8167.000000, 8165.500000, 8152.500000
4078, 8711400.000000, 2609.500000, 8172.000000, 8167.000000, 8156.000000
4079, 8711560.000000, 2824.750000, 8178.500000, 8172.000000, 8166.500000
4080, 8711720.000000, 2863.750000, 8179.000000, 8176.500000, 8176.000000
4081, 8711880.000000, 2796.750000, 8188.000000, 8177.000000, 8184.000000
4082, 8712040.000000, 2675.000000, 8186.500000, 8172.000000, 8170.500000
4083, 8712200.000000, 2517.750000, 8177.500000, 8164.500000, 8153.000000
4084, 8712360.000000, 2325.000000, 8181.000000, 8163.500000, 8151.500000
4085, 8712520.000000, 2133.875000, 8187.500000, 8254.500000, 8235.000000
4086, 8712680.000000, 1999.250000, 8571.500000, 8029.500000, 8198.500000
4087, 8712840.000000, 1955.125000, 8150.500000, 7673.500000, 7673.000000
4088, 8713000.000000, 1974.375000, 8123.000000, 8079.500000, 8017.000000
4089, 8713160.000000, 2017.000000, 8199.000000, 8233.500000, 8229.500000
4090, 8713320.000000, 2043.500000, 8206.500000, 8250.500000, 8253.000000
4091, 8713480.000000, 2030.750000, 8215.000000, 8257.500000, 8263.500000
4092, 8713640.000000, 1970.625000, 8227.500000, 8264.500000, 8276.000000
4093, 8713800.000000, 1878.750000, 8243.000000, 8273.500000, 8290.500000
4094, 8713960.000000, 1773.125000, 8263.500000, 8285.500000, 8310.500000
4095, 8714120.000000, 1668.875000, 8286.000000, 8300.500000, 8336.000000
4096, 8714280.000000, 1573.750000, 8309.000000, 8317.000000, 8361.000000
4097, 8714440.000000, 1494.500000, 8320.000000, 8320.000000, 8368.000000
4098, 8714600.000000, 1431.250000, 8307.000000, 8309.000000, 8350.500000
4099, 8714760.000000, 1378.625000, 8273.500000, 8275.500000, 8302.000000
4100, 8714920.000000, 1334.625000, 8217.500000, 8226.500000, 8232.500000
4101, 8715080.000000, 1305.875000, 8173.000000, 8189.000000, 8180.500000
4102, 8715240.000000, 1286.875000, 8150.500000, 8176.000000, 8157.500000
4103, 8715400.000000, 1281.875000, 8149.000000, 8176.000000, 8157.000000
4104, 8715560.000000, 1277.500000, 8156.500000, 8180.000000, 8165.500000
4105, 8715720.000000, 1266.000000, 8165.000000, 8183.500000, 8172.500000
4106, 8715880.000000, 1239.250000, 8173.000000, 8187.500000, 8180.000000
4107, 8716040.000000, 1199.500000, 8178.000000, 8190.000000, 8184.000000
4108, 8716200.000000, 1147.875000, 8177.500000, 8191.000000, 8183.500000
4109, 8716360.000000, 1114.625000, 8175.000000, 8191.500000, 8181.500000
4110, 8716520.000000, 1175.125000, 8173.500000, 8192.000000, 8181.000000
4111, 8716680.000000, 1436.750000, 8171.500000, 8195.500000, 8185.000000
4112, 8716840.000000, 1895.625000, 8172.500000, 8198.500000, 8187.000000
4113, 8717000.000000, 2433.125000, 8175.000000, 8200.000000, 8190.000000
4114, 8717160.000000, 2872.625000, 8177.000000, 8201.000000, 8192.000000
4115, 8717320.000000, 3130.375000, 8179.500000, 8202.000000, 8193.000000
4116, 8717480.000000, 3179.875000, 8178.000000, 8204.000000, 8194.000000
4117, 8717640.000000, 3109.250000, 8186.500000, 8212.500000, 8212.000000
4118, 8717800.000000, 2990.375000, 8187.500000, 8219.000000, 8223.000000
4119, 8717960.000000, 2861.250000, 8195.500000, 8217.000000, 8220.500000
4120, 8718120.000000, 2710.500000, 8193.000000, 8209.500000, 8209.000000
4121, 8718280.000000, 2525.250000, 8180.000000, 8200.000000, 8189.500000
4122, 8718440.000000, 2341.500000, 8181.500000, 8201.500000, 8191.500000
4123, 8718600.000000, 2207.875000, 8208.000000, 8323.500000, 8317.500000
4124, 8718760.000000, 2148.875000, 8589.000000, 7912.500000, 8104.000000
4125, 8718920.000000, 2141.500000, 8042.500000, 7731.500000, 7666.500000
4126, 8719080.000000, 2151.250000, 8166.000000, 8181.000000, 8150.000000
4127, 8719240.000000, 2136.125000, 8200.500000, 8276.000000, 8275.500000
4128, 8719400.000000, 2083.250000, 8209.500000, 8290.500000, 8293.500000
4129, 8719560.000000, 1991.750000, 8221.000000, 8294.500000, 8303.000000
4130, 8719720.000000, 1883.500000, 8231.500000, 8299.500000, 8313.000000
4131, 8719880.000000, 1780.000000, 8245.500000, 8306.000000, 8327.000000
4132, 8720040.000000, 1683.875000, 8263.500000, 8317.000000, 8347.500000
4133, 8720200.000000, 1594.875000, 8286.000000, 8330.500000, 8369.000000
4134, 8720360.000000, 1515.250000, 8311.000000, 8341.500000, 8388.000000
4135, 8720520.000000, 1447.000000, 8319.000000, 8340.500000, 8388.500000
4136, 8720680.000000, 1396.000000, 8304.000000, 8326.000000, 8369.500000
4137, 8720840.000000, 1364.750000, 8268.500000, 8288.500000, 8317.500000
4138, 8721000.000000, 1343.625000, 8215.000000, 8237.500000, 8245.000000
4139, 8721160.000000, 1329.125000, 8170.000000, 8198.500000, 8186.500000
4140, 8721320.000000, 1310.375000, 8150.000000, 8182.500000, 8164.000000
4141, 8721480.000000, 1285.750000, 8146.000000, 8180.000000, 8161.000000
4142, 8721640.000000, 1259.125000, 8151.500000, 8180.000000, 8163.500000
4143, 8721800.000000, 1233.625000, 8160.000000, 8182.000000, 8169.000000
4144, 8721960.000000, 1201.625000, 8168.000000, 8180.500000, 8171.500000
4145, 8722120.000000, 1157.500000, 8167.500000, 8179.000000, 8169.000000
4146, 8722280.000000, 1110.375000, 8167.500000, 8178.000000, 8168.000000
4147, 8722440.000000, 1092.000000, 8167.000000, 8177.000000, 8167.500000
4148, 8722600.000000, 1206.250000, 8165.500000, 8175.500000, 8163.000000
4149, 8722760.000000, 1530.875000, 8166.000000, 8174.500000, 8161.500000
4150, 8722920.000000, 2055.375000, 8164.500000, 8173.000000, 8160.000000
4151, 8723080.000000, 2625.125000, 8163.500000, 8173.000000, 8159.500000
4152, 8723240.000000, 3073.500000, 8164.500000, 8173.000000, 8160.000000
4153, 8723400.000000, 3315.125000, 8167.000000, 8173.000000, 8159.500000
4154, 8723560.000000, 3355.125000, 8168.000000, 8173.000000, 8160.000000
4155, 8723720.000000, 3281.500000, 8175.500000, 8181.500000, 8179.000000
4156, 8723880.000000, 3164.375000, 8178.000000, 8187.000000, 8191.500000
4157, 8724040.000000, 3034.625000, 8184.000000, 8182.500000, 8182.000000
4158, 8724200.000000, 2873.375000, 8179.500000, 8173.000000, 8166.000000
4159, 8724360.000000, 2666.000000, 8172.000000, 8167.000000, 8153.000000
4160, 8724520.000000, 2455.250000, 8173.500000, 8170.000000, 8156.000000
4161, 8724680.000000, 2292.125000, 8251.500000, 8317.500000, 8336.500000
4162, 8724840.000000, 2204.625000, 8587.500000, 7664.500000, 7879.500000
4163, 8725000.000000, 2169.250000, 7979.500000, 7806.500000, 7689.500000
4164, 8725160.000000, 2159.750000, 8181.500000, 8207.000000, 8194.000000
4165, 8725320.000000, 2138.875000, 8191.000000, 8251.500000, 8247.500000
4166, 8725480.000000, 2084.500000, 8196.500000, 8262.000000, 8263.000000
4167, 8725640.000000, 2000.250000, 8208.500000, 8267.500000, 8273.500000
4168, 8725800.000000, 1900.125000, 8224.000000, 8274.000000, 8286.500000
4169, 8725960.000000, 1789.625000, 8241.000000, 8281.000000, 8300.500000
4170, 8726120.000000, 1683.375000, 8260.000000, 8291.500000, 8319.500000
4171, 8726280.000000, 1587.500000, 8283.000000, 8307.000000, 8344.500000
4172, 8726440.000000, 1504.250000, 8303.000000, 8317.500000, 8361.500000
4173, 8726600.000000, 1437.125000, 8308.500000, 8314.000000, 8359.500000
4174, 8726760.000000, 1388.000000, 8291.500000, 8297.500000, 8335.500000
4175, 8726920.000000, 1352.500000, 8247.000000, 8256.000000, 8276.500000
4176, 8727080.000000, 1323.125000, 8192.000000, 8208.000000, 8207.000000
4177, 8727240.000000, 1302.875000, 8153.500000, 8177.500000, 8161.000000
4178, 8727400.000000, 1282.625000, 8141.000000, 8166.500000, 8144.500000
4179, 8727560.000000, 1266.125000, 8141.000000, 8165.500000, 8143.000000
4180, 8727720.000000, 1247.000000, 8147.000000, 8167.500000, 8149.500000
4181, 8727880.000000, 1219.375000, 8152.500000, 8168.000000, 8152.000000
4182, 8728040.000000, 1182.375000, 8159.000000, 8168.000000, 8153.500000
4183, 8728200.000000, 1135.500000, 8161.500000, 8167.000000, 8152.000000
4184, 8728360.000000, 1088.000000, 8161.000000, 8166.000000, 8151.000000
4185, 8728520.000000, 1072.375000, 8158.000000, 8165.000000, 8148.000000
4186, 8728680.000000, 1193.250000, 8156.000000, 8164.000000, 8147.000000
4187, 8728840.000000, 1511.375000, 8156.500000, 8166.000000, 8148.500000
4188, 8729000.000000, 2021.875000, 8159.500000, 8168.000000, 8150.500000
4189, 8729160.000000, 2546.875000, 8159.000000, 8166.000000, 8147.000000
4190, 8729320.000000, 2940.625000, 8160.000000, 8167.000000, 8149.000000
4191, 8729480.000000, 3115.750000, 8160.000000, 8167.000000, 8150.000000
4192, 8729640.000000, 3113.750000, 8160.500000, 8168.000000, 8150.500000
4193, 8729800.000000, 3009.625000, 8167.000000, 8170.000000, 8156.500000
4194, 8729960.000000, 2881.125000, 8168.500000, 8173.000000, 8163.500000
4195, 8730120.000000, 2749.500000, 8180.000000, 8179.000000, 8178.000000
4196, 8730280.000000, 2588.250000, 8179.500000, 8172.000000, 8166.000000
4197, 8730440.000000, 2403.875000, 8170.000000, 8165.000000, 8151.500000
4198, 8730600.000000, 2235.750000, 8170.000000, 8161.500000, 8146.500000
4199, 8730760.000000, 2133.000000, 8171.500000, 8213.500000, 8188.000000
4200, 8730920.000000, 2097.125000, 8489.500000, 8172.500000, 8300.000000
4201, 8731080.000000, 2103.625000, 8331.000000, 7654.000000, 7742.500000
4202, 8731240.000000, 2105.500000, 8052.500000, 7988.500000, 7890.000000
4203, 8731400.000000, 2076.875000, 8185.000000, 8216.500000, 8207.000000
4204, 8731560.000000, 1999.875000, 8189.500000, 8235.500000, 8231.000000
4205, 8731720.000000, 1884.375000, 8198.500000, 8239.000000, 8239.500000
4206, 8731880.000000, 1749.250000, 8209.000000, 8242.500000, 8248.500000
4207, 8732040.000000, 1619.250000, 8226.000000, 8251.500000, 8265.000000
4208, 8732200.000000, 1513.875000, 8242.500000, 8262.500000, 8280.500000
4209, 8732360.000000, 1431.625000, 8263.500000, 8274.500000, 8301.000000
4210, 8732520.000000, 1365.375000, 8284.000000, 8286.500000, 8320.500000
4211, 8732680.000000, 1308.000000, 8295.000000, 8292.500000, 8330.500000
4212, 8732840.000000, 1247.000000, 8286.500000, 8286.000000, 8321.000000
4213, 8733000.000000, 1184.750000, 8265.000000, 8266.000000, 8291.500000
4214, 8733160.000000, 1118.500000, 8220.500000, 8225.500000, 8234.500000
4215, 8733320.000000, 1043.250000, 8172.000000, 8183.500000, 8173.500000
4216, 8733480.000000, 968.250000, 8146.000000, 8163.000000, 8145.500000
4217, 8733640.000000, 899.875000, 8140.500000, 8157.500000, 8137.500000
4218, 8733800.000000, 838.625000, 8149.000000, 8159.000000, 8142.000000
4219, 8733960.000000, 787.375000, 8159.000000, 8160.000000, 8147.000000
4220, 8734120.000000, 734.875000, 8164.000000, 8162.000000, 8151.000000
4221, 8734280.000000, 685.750000, 8167.000000, 8163.500000, 8152.500000
4222, 8734440.000000, 643.625000, 8167.000000, 8163.000000, 8151.500000
4223, 8734600.000000, 609.625000, 8167.000000, 8161.000000, 8148.000000
4224, 8734760.000000, 600.875000, 8162.500000, 8160.000000, 8144.000000
4225, 8734920.000000, 695.875000, 8160.000000, 8160.000000, 8144.000000
4226, 8735080.000000, 1004.125000, 8159.500000, 8161.500000, 8145.000000
4227, 8735240.000000, 1495.750000, 8162.000000, 8163.000000, 8146.500000
4228, 8735400.000000, 2042.875000, 8164.000000, 8164.000000, 8147.000000
4229, 8735560.000000, 2480.625000, 8170.500000, 8171.500000, 8162.500000
4230, 8735720.000000, 2722.500000, 8172.500000, 8178.000000, 8174.500000
4231, 8735880.000000, 2762.000000, 8180.000000, 8177.500000, 8179.500000
4232, 8736040.000000, 2664.625000, 8181.500000, 8171.500000, 8167.000000
4233, 8736200.000000, 2503.250000, 8172.000000, 8163.500000, 8149.500000
4234, 8736360.000000, 2321.500000, 8172.000000, 8162.000000, 8146.000000
4235, 8736520.000000, 2126.250000, 8187.500000, 8265.000000, 8248.000000
4236, 8736680.000000, 1937.625000, 8555.500000, 7977.000000, 8145.000000
4237, 8736840.000000, 1798.250000, 8076.500000, 7688.000000, 7653.500000
4238, 8737000.000000, 1727.000000, 8132.500000, 8102.000000, 8047.000000
4239, 8737160.000000, 1716.625000, 8189.500000, 8237.000000, 8228.500000
4240, 8737320.000000, 1738.500000, 8198.500000, 8252.500000, 8251.000000
4241, 8737480.000000, 1765.875000, 8207.000000, 8260.500000, 8262.500000
4242, 8737640.000000, 1772.125000, 8220.000000, 8268.000000, 8276.500000
4243, 8737800.000000, 1750.625000, 8236.000000, 8277.000000, 8291.500000
4244, 8737960.000000, 1693.750000, 8255.000000, 8288.500000, 8311.500000
4245, 8738120.000000, 1618.750000, 8275.500000, 8305.000000, 8337.500000
4246, 8738280.000000, 1534.375000, 8297.000000, 8320.000000, 8360.000000
4247, 8738440.000000, 1456.500000, 8305.500000, 8323.000000, 8364.500000
4248, 8738600.000000, 1391.000000, 8292.500000, 8310.500000, 8345.500000
4249, 8738760.000000, 1340.875000, 8259.000000, 8273.000000, 8294.000000
4250, 8738920.000000, 1301.875000, 8206.000000, 8221.500000, 8224.500000
4251, 8739080.000000, 1273.875000, 8163.000000, 8184.000000, 8171.000000
4252, 8739240.000000, 1252.625000, 8144.500000, 8169.500000, 8151.000000
4253, 8739400.000000, 1238.500000, 8145.500000, 8167.500000, 8149.000000
4254, 8739560.000000, 1230.125000, 8151.000000, 8168.500000, 8152.500000
4255, 8739720.000000, 1222.625000, 8157.500000, 8169.500000, 8157.000000
4256, 8739880.000000, 1211.875000, 8161.500000, 8169.500000, 8157.500000
4257, 8740040.000000, 1191.750000, 8165.500000, 8171.000000, 8160.500000
4258, 8740200.000000, 1163.500000, 8167.000000, 8168.500000, 8157.500000
4259, 8740360.000000, 1133.375000, 8165.000000, 8166.500000, 8153.500000
4260, 8740520.000000, 1144.250000, 8162.000000, 8165.500000, 8151.000000
4261, 8740680.000000, 1280.375000, 8159.000000, 8166.500000, 8151.500000
4262, 8740840.000000, 1608.875000, 8163.000000, 8168.500000, 8154.500000
4263, 8741000.000000, 2074.500000, 8164.500000, 8167.500000, 8152.500000
4264, 8741160.000000, 2532.875000, 8164.500000, 8167.000000, 8152.000000
4265, 8741320.000000, 2859.375000, 8173.500000, 8179.000000, 8176.000000
4266, 8741480.000000, 2997.625000, 8178.000000, 8186.000000, 8192.500000
4267, 8741640.000000, 2995.250000, 8184.500000, 8180.000000, 8182.000000
4268, 8741800.000000, 2900.250000, 8178.000000, 8171.000000, 8163.000000
4269, 8741960.000000, 2769.875000, 8170.500000, 8164.500000, 8150.500000
4270, 8742120.000000, 2619.375000, 8172.000000, 8171.500000, 8154.500000
4271, 8742280.000000, 2439.625000, 8275.500000, 8319.500000, 8353.000000
4272, 8742440.000000, 2260.375000, 8546.500000, 7658.000000, 7857.000000
4273, 8742600.000000, 2124.250000, 7978.500000, 7828.500000, 7711.500000
4274, 8742760.000000, 2055.000000, 8183.500000, 8210.000000, 8197.000000
4275, 8742920.000000, 2038.250000, 8193.000000, 8251.500000, 8248.500000
4276, 8743080.000000, 2049.375000, 8199.500000, 8262.500000, 8263.500000
4277, 8743240.000000, 2058.750000, 8211.000000, 8269.500000, 8277.000000
4278, 8743400.000000, 2042.875000, 8225.000000, 8274.500000, 8286.500000
4279, 8743560.000000, 1990.625000, 8241.000000, 8284.000000, 8302.000000
4280, 8743720.000000, 1915.750000, 8259.000000, 8298.000000, 8325.500000
4281, 8743880.000000, 1823.250000, 8281.000000, 8315.000000, 8351.500000
4282, 8744040.000000, 1728.875000, 8299.000000, 8327.000000, 8369.500000
4283, 8744200.000000, 1640.750000, 8300.000000, 8322.500000, 8363.500000
4284, 8744360.000000, 1558.000000, 8278.500000, 8302.500000, 8334.500000
4285, 8744520.000000, 1483.625000, 8235.000000, 8257.000000, 8272.000000
4286, 8744680.000000, 1419.000000, 8185.500000, 8206.000000, 8204.000000
4287, 8744840.000000, 1370.000000, 8151.500000, 8178.000000, 8162.500000
4288, 8745000.000000, 1337.375000, 8142.000000, 8168.000000, 8148.000000
4289, 8745160.000000, 1321.875000, 8146.000000, 8168.000000, 8150.500000
4290, 8745320.000000, 1321.000000, 8152.500000, 8170.000000, 8156.000000
4291, 8745480.000000, 1321.500000, 8158.000000, 8172.000000, 8161.000000
4292, 8745640.000000, 1307.625000, 8164.000000, 8172.000000, 8162.500000
4293, 8745800.000000, 1279.875000, 8165.500000, 8170.000000, 8159.500000
4294, 8745960.000000, 1236.750000, 8165.000000, 8168.000000, 8158.000000
4295, 8746120.000000, 1204.875000, 8158.500000, 8165.000000, 8152.000000
4296, 8746280.000000, 1249.375000, 8157.500000, 8167.500000, 8153.000000
4297, 8746440.000000, 1464.375000, 8160.000000, 8169.000000, 8156.000000
4298, 8746600.000000, 1874.125000, 8161.000000, 8167.500000, 8154.000000
4299, 8746760.000000, 2360.625000, 8162.000000, 8167.500000, 8154.500000
4300, 8746920.000000, 2769.500000, 8163.000000, 8168.000000, 8156.000000
4301, 8747080.000000, 3010.500000, 8163.500000, 8170.500000, 8159.000000
4302, 8747240.000000, 3065.875000, 8171.500000, 8180.500000, 8181.000000
4303, 8747400.000000, 2990.000000, 8181.000000, 8184.500000, 8194.000000
4304, 8747560.000000, 2860.625000, 8184.000000, 8177.000000, 8180.500000
4305, 8747720.000000, 2722.750000, 8171.000000, 8167.000000, 8158.000000
4306, 8747880.000000, 2571.000000, 8168.500000, 8165.500000, 8153.000000
4307, 8748040.000000, 2401.500000, 8169.500000, 8191.000000, 8169.500000
4308, 8748200.000000, 2243.375000, 8378.500000, 8246.000000, 8326.000000
4309, 8748360.000000, 2135.750000, 8460.000000, 7566.500000, 7730.000000
4310, 8748520.000000, 2087.750000, 8015.000000, 7919.500000, 7811.000000
4311, 8748680.000000, 2079.250000, 8183.500000, 8228.500000, 8223.000000
4312, 8748840.000000, 2084.625000, 8189.500000, 8257.500000, 8256.000000
4313, 8749000.000000, 2077.875000, 8199.500000, 8264.000000, 8266.000000
4314, 8749160.000000, 2040.875000, 8210.000000, 8269.000000, 8276.000000
4315, 8749320.000000, 1969.250000, 8222.000000, 8276.500000, 8289.500000
4316, 8749480.000000, 1868.750000, 8238.000000, 8286.000000, 8307.500000
4317, 8749640.000000, 1765.000000, 8260.500000, 8299.500000, 8329.500000
4318, 8749800.000000, 1672.375000, 8283.000000, 8315.000000, 8352.500000
4319, 8749960.000000, 1596.500000, 8297.000000, 8322.000000, 8364.000000
4320, 8750120.000000, 1528.750000, 8289.500000, 8316.000000, 8354.000000
4321, 8750280.000000, 1466.125000, 8267.000000, 8295.500000, 8325.500000
4322, 8750440.000000, 1413.750000, 8225.000000, 8249.500000, 8262.500000
4323, 8750600.000000, 1372.375000, 8180.000000, 8200.000000, 8194.500000
4324, 8750760.000000, 1343.125000, 8149.000000, 8174.000000, 8157.500000
4325, 8750920.000000, 1317.875000, 8141.500000, 8168.000000, 8149.500000
4326, 8751080.000000, 1296.625000, 8146.500000, 8170.500000, 8154.500000
4327, 8751240.000000, 1283.625000, 8156.000000, 8173.000000, 8160.500000
4328, 8751400.000000, 1274.875000, 8162.000000, 8172.500000, 8161.500000
4329, 8751560.000000, 1257.750000, 8164.000000, 8171.500000, 8160.500000
4330, 8751720.000000, 1226.000000, 8161.500000, 8171.500000, 8160.500000
4331, 8751880.000000, 1183.000000, 8161.000000, 8171.000000, 8160.000000
4332, 8752040.000000, 1156.125000, 8159.500000, 8170.000000, 8156.500000
4333, 8752200.000000, 1224.125000, 8160.500000, 8168.000000, 8154.500000
4334, 8752360.000000, 1472.000000, 8161.500000, 8167.000000, 8155.000000
4335, 8752520.000000, 1899.125000, 8161.000000, 8168.000000, 8155.000000
4336, 8752680.000000, 2366.750000, 8162.000000, 8169.500000, 8158.500000
4337, 8752840.000000, 2731.375000, 8164.000000, 8170.000000, 8157.000000
4338, 8753000.000000, 2901.250000, 8175.500000, 8179.500000, 8178.500000
4339, 8753160.000000, 2908.125000, 8178.000000, 8183.500000, 8188.500000
4340, 8753320.000000, 2813.500000, 8183.500000, 8180.000000, 8183.500000
4341, 8753480.000000, 2692.875000, 8180.000000, 8174.500000, 8171.500000
4342, 8753640.000000, 2567.500000, 8170.500000, 8168.500000, 8155.500000
4343, 8753800.000000, 2426.500000, 8173.500000, 8168.000000, 8154.000000
4344, 8753960.000000, 2270.000000, 8214.000000, 8305.000000, 8304.500000
4345, 8754120.000000, 2125.125000, 8584.500000, 7813.500000, 8015.000000
4346, 8754280.000000, 2030.125000, 7986.500000, 7750.000000, 7658.000000
4347, 8754440.000000, 1987.375000, 8172.000000, 8183.000000, 8161.000000
4348, 8754600.000000, 1984.250000, 8191.000000, 8248.000000, 8243.000000
4349, 8754760.000000, 1989.000000, 8200.500000, 8260.500000, 8262.000000
4350, 8754920.000000, 1982.000000, 8209.500000, 8266.000000, 8272.500000
4351, 8755080.000000, 1938.875000, 8220.000000, 8271.500000, 8283.000000
4352, 8755240.000000, 1866.125000, 8237.000000, 8279.500000, 8297.500000
4353, 8755400.000000, 1771.875000, 8257.000000, 8290.000000, 8316.500000
4354, 8755560.000000, 1669.000000, 8278.500000, 8303.500000, 8338.000000
4355, 8755720.000000, 1575.875000, 8296.000000, 8314.500000, 8356.500000
4356, 8755880.000000, 1499.500000, 8295.000000, 8315.000000, 8354.500000
4357, 8756040.000000, 1438.500000, 8278.500000, 8303.000000, 8335.500000
4358, 8756200.000000, 1392.375000, 8245.500000, 8268.500000, 8289.000000
4359, 8756360.000000, 1351.000000, 8197.000000, 8217.500000, 8219.000000
4360, 8756520.000000, 1312.625000, 8157.000000, 8185.000000, 8171.000000
4361, 8756680.000000, 1274.125000, 8144.000000, 8174.000000, 8155.500000
4362, 8756840.000000, 1238.250000, 8146.500000, 8175.000000, 8158.000000
4363, 8757000.000000, 1204.500000, 8155.000000, 8176.000000, 8161.000000
4364, 8757160.000000, 1175.125000, 8159.500000, 8175.500000, 8162.000000
4365, 8757320.000000, 1149.750000, 8162.500000, 8175.500000, 8163.000000
4366, 8757480.000000, 1123.125000, 8163.000000, 8175.000000, 8163.000000
4367, 8757640.000000, 1096.500000, 8161.500000, 8174.000000, 8159.000000
4368, 8757800.000000, 1074.125000, 8162.000000, 8172.500000, 8157.500000
4369, 8757960.000000, 1095.250000, 8159.000000, 8171.000000, 8154.000000
4370, 8758120.000000, 1244.250000, 8158.500000, 8171.000000, 8154.000000
4371, 8758280.000000, 1561.250000, 8158.500000, 8172.000000, 8155.000000
4372, 8758440.000000, 2009.250000, 8160.500000, 8173.000000, 8156.000000
4373, 8758600.000000, 2433.000000, 8164.500000, 8172.500000, 8156.500000
4374, 8758760.000000, 2712.375000, 8166.000000, 8176.500000, 8163.500000
4375, 8758920.000000, 2805.750000, 8169.500000, 8184.000000, 8177.500000
4376, 8759080.000000, 2755.000000, 8180.500000, 8188.000000, 8192.500000
4377, 8759240.000000, 2632.000000, 8180.500000, 8181.000000, 8177.500000
4378, 8759400.000000, 2489.750000, 8168.500000, 8171.000000, 8156.500000
4379, 8759560.000000, 2344.375000, 8168.000000, 8168.000000, 8151.000000
4380, 8759720.000000, 2188.000000, 8165.000000, 8236.000000, 8205.500000
4381, 8759880.000000, 2038.750000, 8509.500000, 8107.500000, 8249.000000
4382, 8760040.000000, 1932.375000, 8238.500000, 7619.500000, 7667.500000
4383, 8760200.000000, 1885.375000, 8092.000000, 8050.500000, 7973.500000
4384, 8760360.000000, 1888.375000, 8183.000000, 8238.500000, 8229.500000
4385, 8760520.000000, 1913.125000, 8188.000000, 8257.500000, 8252.500000
4386, 8760680.000000, 1928.875000, 8199.000000, 8265.000000, 8266.500000
4387, 8760840.000000, 1918.250000, 8213.500000, 8272.000000, 8280.000000
4388, 8761000.000000, 1873.875000, 8226.000000, 8277.500000, 8289.000000
4389, 8761160.000000, 1805.000000, 8241.000000, 8287.500000, 8305.500000
4390, 8761320.000000, 1720.875000, 8262.000000, 8301.500000, 8329.500000
4391, 8761480.000000, 1624.500000, 8280.500000, 8316.000000, 8350.000000
4392, 8761640.000000, 1536.750000, 8289.500000, 8318.500000, 8354.500000
4393, 8761800.000000, 1462.875000, 8276.500000, 8309.000000, 8339.500000
4394, 8761960.000000, 1404.875000, 8250.500000, 8281.500000, 8302.500000
4395, 8762120.000000, 1359.875000, 8204.000000, 8233.500000, 8237.500000
4396, 8762280.000000, 1321.250000, 8163.500000, 8192.500000, 8180.500000
4397, 8762440.000000, 1290.625000, 8144.500000, 8174.500000, 8156.000000
4398, 8762600.000000, 1267.000000, 8142.500000, 8172.000000, 8152.500000
4399, 8762760.000000, 1248.375000, 8150.000000, 8172.000000, 8157.000000
4400, 8762920.000000, 1235.875000, 8154.500000, 8173.500000, 8160.000000
4401, 8763080.000000, 1222.250000, 8158.500000, 8175.000000, 8163.000000
4402, 8763240.000000, 1201.750000, 8161.000000, 8176.000000, 8163.000000
4403, 8763400.000000, 1172.000000, 8158.500000, 8172.500000, 8158.500000
4404, 8763560.000000, 1130.375000, 8155.500000, 8170.000000, 8154.000000
4405, 8763720.000000, 1100.125000, 8153.000000, 8170.000000, 8153.000000
4406, 8763880.000000, 1144.250000, 8154.000000, 8170.000000, 8154.000000
4407, 8764040.000000, 1361.750000, 8156.500000, 8170.500000, 8155.000000
4408, 8764200.000000, 1754.125000, 8157.500000, 8169.500000, 8152.000000
4409, 8764360.000000, 2221.875000, 8159.000000, 8170.000000, 8155.000000
4410, 8764520.000000, 2603.125000, 8159.000000, 8171.000000, 8156.000000
4411, 8764680.000000, 2823.625000, 8169.500000, 8182.500000, 8179.000000
4412, 8764840.000000, 2863.250000, 8177.500000, 8187.500000, 8192.000000
4413, 8765000.000000, 2795.375000, 8182.000000, 8182.000000, 8182.000000
4414, 8765160.000000, 2671.250000, 8172.000000, 8173.500000, 8162.500000
4415, 8765320.000000, 2526.250000, 8165.000000, 8169.000000, 8154.000000
4416, 8765480.000000, 2368.000000, 8166.500000, 8176.500000, 8158.000000
4417, 8765640.000000, 2211.000000, 8269.000000, 8311.500000, 8338.500000
4418, 8765800.000000, 2095.750000, 8598.500000, 7664.500000, 7888.500000
4419, 8765960.000000, 2041.250000, 7975.000000, 7846.000000, 7725.500000
4420, 8766120.000000, 2044.000000, 8177.000000, 8213.000000, 8199.500000
4421, 8766280.000000, 2068.125000, 8185.500000, 8251.500000, 8246.500000
4422, 8766440.000000, 2085.500000, 8193.500000, 8262.000000, 8262.000000
4423, 8766600.000000, 2073.500000, 8204.500000, 8268.000000, 8270.500000
4424, 8766760.000000, 2029.375000, 8218.000000, 8273.000000, 8283.500000
4425, 8766920.000000, 1950.375000, 8234.000000, 8281.000000, 8299.000000
4426, 8767080.000000, 1852.375000, 8254.500000, 8294.500000, 8322.000000
4427, 8767240.000000, 1753.125000, 8277.500000, 8308.500000, 8343.500000
4428, 8767400.000000, 1660.125000, 8292.000000, 8316.000000, 8356.000000
4429, 8767560.000000, 1582.500000, 8287.000000, 8311.500000, 8350.000000
4430, 8767720.000000, 1516.000000, 8263.500000, 8293.500000, 8323.500000
4431, 8767880.000000, 1462.625000, 8227.000000, 8253.000000, 8268.500000
4432, 8768040.000000, 1418.000000, 8185.000000, 8206.000000, 8205.500000
4433, 8768200.000000, 1383.750000, 8151.000000, 8177.500000, 8161.500000
4434, 8768360.000000, 1358.750000, 8140.000000, 8169.000000, 8150.000000
4435, 8768520.000000, 1337.125000, 8145.000000, 8170.500000, 8154.500000
4436, 8768680.000000, 1319.625000, 8152.000000, 8173.500000, 8160.000000
4437, 8768840.000000, 1304.250000, 8160.000000, 8174.000000, 8163.000000
4438, 8769000.000000, 1286.000000, 8159.500000, 8173.500000, 8161.000000
4439, 8769160.000000, 1266.875000, 8158.500000, 8171.000000, 8158.000000
4440, 8769320.000000, 1242.125000, 8154.500000, 8170.500000, 8155.000000
4441, 8769480.000000, 1217.250000, 8152.500000, 8169.500000, 8153.500000
4442, 8769640.000000, 1228.250000, 8155.000000, 8169.000000, 8152.000000
4443, 8769800.000000, 1344.000000, 8155.000000, 8168.000000, 8151.000000
4444, 8769960.000000, 1643.875000, 8153.500000, 8166.500000, 8148.500000
4445, 8770120.000000, 2063.250000, 8151.500000, 8167.500000, 8150.000000
4446, 8770280.000000, 2484.625000, 8155.000000, 8169.000000, 8152.000000
4447, 8770440.000000, 2777.500000, 8159.500000, 8171.500000, 8159.500000
4448, 8770600.000000, 2902.875000, 8163.000000, 8176.000000, 8170.000000
4449, 8770760.000000, 2889.500000, 8170.500000, 8180.500000, 8185.000000
4450, 8770920.000000, 2796.625000, 8170.000000, 8174.000000, 8171.000000
4451, 8771080.000000, 2668.750000, 8160.000000, 8166.000000, 8154.000000
4452, 8771240.000000, 2517.625000, 8159.500000, 8165.000000, 8151.500000
4453, 8771400.000000, 2351.625000, 8161.500000, 8233.000000, 8209.000000
4454, 8771560.000000, 2195.625000, 8545.000000, 8132.500000, 8290.500000
4455, 8771720.000000, 2092.625000, 8210.000000, 7692.000000, 7734.000000
4456, 8771880.000000, 2046.375000, 8064.500000, 8029.500000, 7943.000000
4457, 8772040.000000, 2042.125000, 8170.500000, 8223.000000, 8214.000000
4458, 8772200.000000, 2041.750000, 8179.000000, 8239.000000, 8236.000000
4459, 8772360.000000, 2023.250000, 8187.500000, 8243.000000, 8245.000000
4460, 8772520.000000, 1979.250000, 8198.500000, 8248.500000, 8256.000000
4461, 8772680.000000, 1907.625000, 8214.000000, 8255.500000, 8271.000000
4462, 8772840.000000, 1817.250000, 8232.500000, 8264.500000, 8286.500000
4463, 8773000.000000, 1713.750000, 8249.500000, 8275.500000, 8303.000000
4464, 8773160.000000, 1607.125000, 8270.000000, 8285.500000, 8320.500000
4465, 8773320.000000, 1502.875000, 8272.000000, 8287.000000, 8323.000000
4466, 8773480.000000, 1408.125000, 8260.000000, 8280.500000, 8312.500000
4467, 8773640.000000, 1326.125000, 8232.000000, 8258.500000, 8278.000000
4468, 8773800.000000, 1251.500000, 8191.000000, 8220.000000, 8225.500000
4469, 8773960.000000, 1180.375000, 8151.500000, 8182.500000, 8174.500000
4470, 8774120.000000, 1111.750000, 8130.500000, 8164.000000, 8148.500000
4471, 8774280.000000, 1051.375000, 8131.000000, 8162.500000, 8149.000000
4472, 8774440.000000, 1007.250000, 8140.500000, 8163.000000, 8152.000000
4473, 8774600.000000, 977.875000, 8149.000000, 8164.500000, 8155.500000
4474, 8774760.000000, 956.000000, 8156.000000, 8164.000000, 8157.000000
4475, 8774920.000000, 933.500000, 8157.000000, 8164.500000, 8156.500000
4476, 8775080.000000, 901.250000, 8153.500000, 8165.500000, 8156.000000
4477, 8775240.000000, 860.500000, 8152.000000, 8164.500000, 8153.500000
4478, 8775400.000000, 808.875000, 8150.000000, 8163.500000, 8150.500000
4479, 8775560.000000, 782.000000, 8151.500000, 8166.000000, 8155.500000
4480, 8775720.000000, 864.500000, 8153.500000, 8174.500000, 8170.000000
4481, 8775880.000000, 1138.000000, 8164.000000, 8180.000000, 8189.000000
4482, 8776040.000000, 1582.250000, 8166.000000, 8171.500000, 8170.500000
4483, 8776200.000000, 2054.375000, 8153.500000, 8161.500000, 8148.000000
4484, 8776360.000000, 2412.750000, 8151.500000, 8160.000000, 8143.500000
4485, 8776520.000000, 2608.375000, 8152.500000, 8224.000000, 8198.000000
4486, 8776680.000000, 2654.125000, 8496.500000, 8157.500000, 8295.500000
4487, 8776840.000000, 2598.250000, 8251.500000, 7696.000000, 7757.500000
4488, 8777000.000000, 2483.000000, 8049.000000, 8003.000000, 7912.000000
4489, 8777160.000000, 2324.000000, 8168.500000, 8219.000000, 8207.500000
4490, 8777320.000000, 2136.250000, 8175.500000, 8241.000000, 8235.000000
4491, 8777480.000000, 1953.500000, 8186.000000, 8249.500000, 8249.500000
4492, 8777640.000000, 1826.000000, 8199.500000, 8255.000000, 8260.000000
4493, 8777800.000000, 1770.875000, 8214.500000, 8261.500000, 8272.500000
4494, 8777960.000000, 1786.000000, 8232.500000, 8273.000000, 8294.000000
4495, 8778120.000000, 1844.375000, 8253.000000, 8288.500000, 8316.000000
4496, 8778280.000000, 1903.250000, 8273.500000, 8303.500000, 8338.000000
4497, 8778440.000000, 1925.375000, 8281.500000, 8305.500000, 8342.000000
4498, 8778600.000000, 1894.875000, 8266.000000, 8294.000000, 8322.500000
4499, 8778760.000000, 1824.375000, 8234.000000, 8264.000000, 8282.000000
4500, 8778920.000000, 1727.625000, 8185.000000, 8220.500000, 8222.000000
4501, 8779080.000000, 1637.000000, 8148.000000, 8185.500000, 8174.500000
4502, 8779240.000000, 1564.000000, 8130.000000, 8170.500000, 8152.500000
4503, 8779400.000000, 1519.250000, 8127.000000, 8168.000000, 8148.000000
4504, 8779560.000000, 1490.375000, 8133.500000, 8168.000000, 8152.500000
4505, 8779720.000000, 1474.250000, 8142.000000, 8169.500000, 8158.500000
4506, 8779880.000000, 1458.625000, 8148.500000, 8170.000000, 8161.500000
4507, 8780040.000000, 1439.000000, 8151.000000, 8169.500000, 8160.500000
4508, 8780200.000000, 1418.375000, 8149.000000, 8166.000000, 8153.000000
4509, 8780360.000000, 1392.500000, 8144.500000, 8164.000000, 8150.500000
4510, 8780520.000000, 1363.750000, 8143.000000, 8163.000000, 8148.000000
4511, 8780680.000000, 1363.875000, 8148.500000, 8167.500000, 8156.000000
4512, 8780840.000000, 1450.750000, 8154.000000, 8174.000000, 8168.000000
4513, 8781000.000000, 1687.875000, 8163.500000, 8178.500000, 8183.500000
4514, 8781160.000000, 2063.750000, 8161.500000, 8172.000000, 8169.000000
4515, 8781320.000000, 2472.875000, 8150.000000, 8163.000000, 8148.000000
4516, 8781480.000000, 2784.750000, 8150.500000, 8162.000000, 8144.500000
4517, 8781640.000000, 2940.125000, 8152.500000, 8216.500000, 8188.500000
4518, 8781800.000000, 2938.625000, 8455.000000, 8176.000000, 8293.500000
4519, 8781960.000000, 2834.125000, 8327.500000, 7647.000000, 7742.000000
4520, 8782120.000000, 2681.500000, 8035.000000, 7979.000000, 7880.500000
4521, 8782280.000000, 2500.125000, 8168.500000, 8221.000000, 8208.500000
4522, 8782440.000000, 2299.375000, 8178.000000, 8242.500000, 8234.500000
4523, 8782600.000000, 2110.125000, 8186.000000, 8249.000000, 8244.000000
4524, 8782760.000000, 1979.000000, 8197.000000, 8253.500000, 8253.500000
4525, 8782920.000000, 1929.125000, 8211.500000, 8260.500000, 8268.500000
4526, 8783080.000000, 1950.250000, 8230.000000, 8272.000000, 8286.500000
4527, 8783240.000000, 2004.750000, 8252.500000, 8286.500000, 8308.500000
4528, 8783400.000000, 2048.250000, 8273.500000, 8301.500000, 8329.000000
4529, 8783560.000000, 2050.625000, 8280.000000, 8304.000000, 8334.000000
4530, 8783720.000000, 2005.125000, 8264.500000, 8294.500000, 8317.500000
4531, 8783880.000000, 1922.000000, 8235.000000, 8263.500000, 8275.000000
4532, 8784040.000000, 1817.500000, 8188.000000, 8215.000000, 8207.500000
4533, 8784200.000000, 1705.750000, 8145.000000, 8172.500000, 8148.500000
4534, 8784360.000000, 1606.250000, 8122.000000, 8154.000000, 8122.500000
4535, 8784520.000000, 1524.625000, 8117.000000, 8152.500000, 8119.500000
4536, 8784680.000000, 1465.500000, 8123.500000, 8155.000000, 8125.500000
4537, 8784840.000000, 1430.750000, 8132.000000, 8158.000000, 8131.500000
4538, 8785000.000000, 1409.625000, 8135.500000, 8158.500000, 8133.000000
4539, 8785160.000000, 1395.250000, 8133.000000, 8157.000000, 8132.000000
4540, 8785320.000000, 1380.250000, 8130.500000, 8156.000000, 8129.500000
4541, 8785480.000000, 1360.000000, 8127.000000, 8156.000000, 8128.000000
4542, 8785640.000000, 1343.500000, 8123.500000, 8155.000000, 8124.500000
4543, 8785800.000000, 1380.125000, 8122.500000, 8154.000000, 8123.000000
4544, 8785960.000000, 1553.500000, 8120.000000, 8154.000000, 8123.500000
4545, 8786120.000000, 1914.875000, 8127.000000, 8164.500000, 8144.500000
4546, 8786280.000000, 2394.750000, 8131.500000, 8172.500000, 8160.500000
4547, 8786440.000000, 2841.125000, 8134.500000, 8166.000000, 8151.000000
4548, 8786600.000000, 3120.000000, 8127.000000, 8161.500000, 8136.500000
4549, 8786760.000000, 3213.125000, 8116.500000, 8155.500000, 8123.500000
4550, 8786920.000000, 3159.625000, 8117.000000, 8163.000000, 8131.000000
4551, 8787080.000000, 3031.500000, 8201.000000, 8317.500000, 8324.500000
4552, 8787240.000000, 2874.125000, 8525.500000, 7733.000000, 7920.500000
4553, 8787400.000000, 2698.500000, 7922.000000, 7816.500000, 7689.000000
4554, 8787560.000000, 2503.000000, 8119.500000, 8191.000000, 8154.000000
4555, 8787720.000000, 2310.750000, 8131.000000, 8241.000000, 8214.000000
4556, 8787880.000000, 2165.000000, 8141.000000, 8254.500000, 8232.000000
4557, 8788040.000000, 2085.375000, 8154.500000, 8261.000000, 8245.000000
4558, 8788200.000000, 2070.250000, 8165.000000, 8270.000000, 8261.000000
4559, 8788360.000000, 2082.875000, 8179.500000, 8282.500000, 8283.000000
4560, 8788520.000000, 2094.375000, 8200.500000, 8301.500000, 8312.500000
4561, 8788680.000000, 2054.000000, 8224.000000, 8322.500000, 8347.000000
4562, 8788840.000000, 1967.000000, 8239.000000, 8336.000000, 8364.500000
4563, 8789000.000000, 1861.750000, 8235.500000, 8336.500000, 8365.500000
4564, 8789160.000000, 1747.625000, 8215.000000, 8317.500000, 8341.000000
4565, 8789320.000000, 1654.500000, 8173.500000, 8275.000000, 8284.500000
4566, 8789480.000000, 1569.000000, 8127.000000, 8227.000000, 8221.000000
4567, 8789640.000000, 1481.750000, 8096.000000, 8200.000000, 8183.500000
4568, 8789800.000000, 1408.250000, 8084.000000, 8192.000000, 8171.500000
4569, 8789960.000000, 1361.250000, 8086.000000, 8193.000000, 8176.000000
4570, 8790120.000000, 1328.500000, 8093.500000, 8197.500000, 8186.000000
4571, 8790280.000000, 1304.000000, 8102.500000, 8200.500000, 8195.000000
4572, 8790440.000000, 1285.000000, 8113.000000, 8204.000000, 8204.500000
4573, 8790600.000000, 1260.875000, 8120.000000, 8206.000000, 8213.000000
4574, 8790760.000000, 1249.875000, 8119.500000, 8206.500000, 8217.000000
4575, 8790920.000000, 1327.500000, 8118.500000, 8207.500000, 8218.500000
4576, 8791080.000000, 1582.625000, 8120.000000, 8210.000000, 8221.000000
4577, 8791240.000000, 2039.750000, 8125.000000, 8208.500000, 8221.000000
4578, 8791400.000000, 2570.750000, 8128.000000, 8207.500000, 8221.500000
4579, 8791560.000000, 3017.500000, 8127.500000, 8206.500000, 8219.500000
4580, 8791720.000000, 3258.000000, 8131.000000, 8208.500000, 8222.500000
4581, 8791880.000000, 3311.250000, 8136.000000, 8211.500000, 8227.500000
4582, 8792040.000000, 3227.250000, 8143.000000, 8216.000000, 8236.500000
4583, 8792200.000000, 3099.250000, 8154.000000, 8216.000000, 8248.000000
4584, 8792360.000000, 2963.000000, 8152.000000, 8208.000000, 8232.000000
4585, 8792520.000000, 2814.750000, 8146.000000, 8200.500000, 8212.500000
4586, 8792680.000000, 2637.500000, 8148.500000, 8198.500000, 8208.500000
4587, 8792840.000000, 2448.625000, 8150.500000, 8241.500000, 8240.000000
4588, 8793000.000000, 2297.500000, 8449.500000, 8216.000000, 8352.500000
4589, 8793160.000000, 2202.875000, 8378.000000, 7650.000000, 7784.000000
4590, 8793320.000000, 2154.250000, 8035.500000, 8002.500000, 7927.500000
4591, 8793480.000000, 2124.500000, 8167.500000, 8246.500000, 8259.000000
4592, 8793640.000000, 2088.750000, 8177.000000, 8266.000000, 8282.000000
4593, 8793800.000000, 2031.375000, 8189.500000, 8270.000000, 8289.500000
4594, 8793960.000000, 1945.000000, 8199.500000, 8274.500000, 8299.500000
4595, 8794120.000000, 1837.250000, 8213.000000, 8280.500000, 8310.500000
4596, 8794280.000000, 1720.000000, 8231.500000, 8290.000000, 8327.000000
4597, 8794440.000000, 1602.250000, 8253.000000, 8302.000000, 8345.500000
4598, 8794600.000000, 1489.500000, 8274.000000, 8316.500000, 8366.000000
4599, 8794760.000000, 1381.875000, 8285.500000, 8323.000000, 8376.500000
4600, 8794920.000000, 1285.750000, 8275.500000, 8316.500000, 8365.000000
4601, 8795080.000000, 1208.625000, 8252.000000, 8292.000000, 8330.000000
4602, 8795240.000000, 1150.500000, 8209.500000, 8243.000000, 8265.500000
4603, 8795400.000000, 1107.000000, 8166.000000, 8196.000000, 8204.500000
4604, 8795560.000000, 1069.250000, 8139.500000, 8173.500000, 8171.000000
4605, 8795720.000000, 1037.625000, 8134.500000, 8169.000000, 8166.000000
4606, 8795880.000000, 1012.375000, 8142.000000, 8168.000000, 8169.500000
4607, 8796040.000000, 995.375000, 8152.000000, 8169.000000, 8173.500000
4608, 8796200.000000, 984.500000, 8162.500000, 8168.000000, 8175.500000
4609, 8796360.000000, 973.250000, 8165.000000, 8166.000000, 8175.000000
4610, 8796520.000000, 962.750000, 8168.000000, 8166.000000, 8175.000000
4611, 8796680.000000, 984.625000, 8167.000000, 8165.500000, 8172.000000
4612, 8796840.000000, 1129.500000, 8167.500000, 8163.000000, 8168.500000
4613, 8797000.000000, 1457.625000, 8166.000000, 8160.000000, 8163.500000
4614, 8797160.000000, 1939.125000, 8164.000000, 8160.500000, 8162.500000
4615, 8797320.000000, 2414.375000, 8164.000000, 8162.000000, 8162.500000
4616, 8797480.000000, 2745.500000, 8166.000000, 8164.000000, 8164.000000
4617, 8797640.000000, 2873.750000, 8167.000000, 8164.500000, 8161.500000
4618, 8797800.000000, 2841.375000, 8169.000000, 8164.000000, 8162.000000
4619, 8797960.000000, 2739.500000, 8169.500000, 8165.500000, 8163.000000
4620, 8798120.000000, 2634.000000, 8176.500000, 8174.500000, 8181.500000
4621, 8798280.000000, 2532.500000, 8180.500000, 8179.500000, 8194.500000
4622, 8798440.000000, 2412.250000, 8188.500000, 8173.500000, 8185.000000
4623, 8798600.000000, 2263.375000, 8183.000000, 8167.000000, 8171.000000
4624, 8798760.000000, 2120.750000, 8171.000000, 8161.500000, 8157.000000
4625, 8798920.000000, 2026.250000, 8173.000000, 8163.500000, 8157.500000
4626, 8799080.000000, 1990.250000, 8222.500000, 8311.500000, 8323.000000
4627, 8799240.000000, 1991.375000, 8595.500000, 7785.500000, 7989.500000
4628, 8799400.000000, 1996.000000, 8003.500000, 7765.000000, 7676.000000
4629, 8799560.000000, 1977.875000, 8168.500000, 8175.500000, 8155.000000
4630, 8799720.000000, 1922.250000, 8187.000000, 8245.000000, 8243.000000
