1498, 14594248.000000, 2558.250000, 8159.500000, 8171.500000, 8158.000000
1499, 14594408.000000, 2785.625000, 8166.500000, 8181.500000, 8172.000000
1500, 14594568.000000, 2879.375000, 8162.000000, 8181.500000, 8177.000000
1501, 14594728.000000, 2850.750000, 8175.500000, 8180.000000, 8189.000000
1502, 14594888.000000, 2749.125000, 8175.500000, 8179.500000, 8176.000000
1503, 14595048.000000, 2602.000000, 8169.000000, 8171.500000, 8159.500000
1504, 14595208.000000, 2430.000000, 8166.000000, 8169.500000, 8155.500000
1505, 14595368.000000, 2249.000000, 8185.500000, 8271.000000, 8266.000000
1506, 14595528.000000, 2076.500000, 8572.500000, 8044.500000, 8219.000000
1507, 14595688.000000, 1946.750000, 8064.500000, 7777.000000, 7740.000000
1508, 14595848.000000, 1873.375000, 8099.500000, 8077.500000, 8004.000000
1509, 14596008.000000, 1856.625000, 8178.500000, 8227.000000, 8224.500000
1510, 14596168.000000, 1874.500000, 8189.500000, 8241.500000, 8242.000000
1511, 14596328.000000, 1904.875000, 8198.500000, 8247.000000, 8253.500000
1512, 14596488.000000, 1921.125000, 8216.500000, 8256.500000, 8268.000000
1513, 14596648.000000, 1910.125000, 8227.500000, 8265.000000, 8284.000000
1514, 14596808.000000, 1866.875000, 8247.500000, 8276.000000, 8300.000000
1515, 14596968.000000, 1796.000000, 8277.000000, 8294.000000, 8332.500000
1516, 14597128.000000, 1712.625000, 8296.000000, 8310.000000, 8358.000000
1517, 14597288.000000, 1624.125000, 8300.500000, 8320.000000, 8366.500000
1518, 14597448.000000, 1538.750000, 8292.000000, 8312.500000, 8357.000000
1519, 14597608.000000, 1456.625000, 8258.500000, 8273.000000, 8301.000000
1520, 14597768.000000, 1384.750000, 8200.000000, 8219.500000, 8225.000000
1521, 14597928.000000, 1322.000000, 8152.000000, 8179.500000, 8162.500000
1522, 14598088.000000, 1266.625000, 8130.000000, 8164.500000, 8139.500000
1523, 14598248.000000, 1222.000000, 8126.000000, 8162.000000, 8139.500000
1524, 14598408.000000, 1187.625000, 8133.000000, 8162.000000, 8144.000000
1525, 14598568.000000, 1161.375000, 8140.500000, 8165.000000, 8147.000000
1526, 14598728.000000, 1140.125000, 8146.000000, 8167.500000, 8148.500000
1527, 14598888.000000, 1122.625000, 8147.500000, 8167.500000, 8155.000000
1528, 14599048.000000, 1100.750000, 8149.500000, 8167.500000, 8155.500000
1529, 14599208.000000, 1075.375000, 8157.500000, 8169.000000, 8151.000000
1530, 14599368.000000, 1068.125000, 8151.000000, 8164.500000, 8145.500000
1531, 14599528.000000, 1175.250000, 8145.500000, 8166.500000, 8147.000000
1532, 14599688.000000, 1455.125000, 8144.500000, 8166.500000, 8145.500000
1533, 14599848.000000, 1892.500000, 8150.500000, 8169.500000, 8150.000000
1534, 14600008.000000, 2349.625000, 8153.500000, 8167.000000, 8151.500000
1535, 14600168.000000, 2720.750000, 8153.000000, 8165.000000, 8147.000000
1536, 14600328.000000, 2950.000000, 8151.500000, 8161.000000, 8144.500000
1537, 14600488.000000, 3037.625000, 8155.500000, 8166.000000, 8151.000000
1538, 14600648.000000, 3008.875000, 8159.000000, 8165.000000, 8148.000000
1539, 14600808.000000, 2904.750000, 8164.500000, 8174.000000, 8167.000000
1540, 14600968.000000, 2766.125000, 8170.000000, 8178.000000, 8176.500000
1541, 14601128.000000, 2602.500000, 8173.000000, 8173.500000, 8176.500000
1542, 14601288.000000, 2425.125000, 8172.000000, 8170.500000, 8167.500000
1543, 14601448.000000, 2255.625000, 8166.000000, 8164.000000, 8148.000000
1544, 14601608.000000, 2124.250000, 8164.500000, 8163.500000, 8141.500000
1545, 14601768.000000, 2049.500000, 8198.500000, 8286.000000, 8282.500000
1546, 14601928.000000, 2025.125000, 8584.500000, 7928.000000, 8108.500000
1547, 14602088.000000, 2034.375000, 8023.500000, 7733.500000, 7659.500000
1548, 14602248.000000, 2052.500000, 8138.500000, 8125.500000, 8074.500000
1549, 14602408.000000, 2057.375000, 8185.000000, 8235.000000, 8232.000000
1550, 14602568.000000, 2040.250000, 8197.000000, 8251.000000, 8251.500000
1551, 14602728.000000, 1996.875000, 8203.000000, 8258.500000, 8261.500000
1552, 14602888.000000, 1933.250000, 8217.000000, 8267.500000, 8277.000000
1553, 14603048.000000, 1853.125000, 8237.500000, 8277.500000, 8295.500000
1554, 14603208.000000, 1762.500000, 8253.500000, 8287.500000, 8313.500000
1555, 14603368.000000, 1673.125000, 8285.500000, 8303.500000, 8342.500000
1556, 14603528.000000, 1588.000000, 8305.000000, 8320.000000, 8368.500000
1557, 14603688.000000, 1510.250000, 8320.000000, 8326.000000, 8379.000000
1558, 14603848.000000, 1438.750000, 8306.000000, 8316.000000, 8361.000000
1559, 14604008.000000, 1377.625000, 8271.500000, 8277.500000, 8306.500000
1560, 14604168.000000, 1324.625000, 8212.500000, 8221.000000, 8229.500000
1561, 14604328.000000, 1279.375000, 8160.000000, 8182.000000, 8166.000000
1562, 14604488.000000, 1240.250000, 8134.500000, 8167.500000, 8139.500000
1563, 14604648.000000, 1208.125000, 8128.500000, 8165.000000, 8137.000000
1564, 14604808.000000, 1183.000000, 8132.500000, 8165.500000, 8141.000000
1565, 14604968.000000, 1163.625000, 8144.500000, 8170.500000, 8145.000000
1566, 14605128.000000, 1143.875000, 8148.500000, 8169.000000, 8149.000000
1567, 14605288.000000, 1119.750000, 8157.500000, 8169.000000, 8151.500000
1568, 14605448.000000, 1088.000000, 8156.000000, 8170.500000, 8151.500000
1569, 14605608.000000, 1049.500000, 8154.500000, 8172.000000, 8146.500000
1570, 14605768.000000, 1044.250000, 8149.500000, 8166.500000, 8144.500000
1571, 14605928.000000, 1183.250000, 8149.000000, 8171.500000, 8146.500000
1572, 14606088.000000, 1501.375000, 8154.000000, 8170.500000, 8148.500000
1573, 14606248.000000, 1956.750000, 8151.500000, 8167.000000, 8150.000000
1574, 14606408.000000, 2406.750000, 8150.000000, 8170.500000, 8146.500000
1575, 14606568.000000, 2756.875000, 8152.500000, 8172.500000, 8153.500000
1576, 14606728.000000, 2954.500000, 8162.500000, 8172.500000, 8152.000000
1577, 14606888.000000, 3013.375000, 8167.500000, 8184.000000, 8173.000000
1578, 14607048.000000, 2967.500000, 8172.500000, 8185.500000, 8187.500000
1579, 14607208.000000, 2861.375000, 8180.500000, 8177.000000, 8170.500000
1580, 14607368.000000, 2731.000000, 8171.000000, 8175.500000, 8160.500000
1581, 14607528.000000, 2586.500000, 8160.000000, 8169.500000, 8147.500000
1582, 14607688.000000, 2429.750000, 8172.500000, 8206.000000, 8180.500000
1583, 14607848.000000, 2266.000000, 8414.500000, 8262.000000, 8355.500000
1584, 14608008.000000, 2123.875000, 8401.500000, 7732.500000, 7843.000000
1585, 14608168.000000, 2022.250000, 8013.000000, 7954.500000, 7842.500000
1586, 14608328.000000, 1967.750000, 8181.500000, 8210.000000, 8193.500000
1587, 14608488.000000, 1952.125000, 8192.500000, 8241.000000, 8233.500000
1588, 14608648.000000, 1951.875000, 8205.500000, 8247.000000, 8249.000000
1589, 14608808.000000, 1946.500000, 8213.000000, 8254.500000, 8261.500000
1590, 14608968.000000, 1924.000000, 8234.500000, 8256.000000, 8270.500000
1591, 14609128.000000, 1877.250000, 8248.000000, 8266.000000, 8284.000000
1592, 14609288.000000, 1810.125000, 8273.500000, 8278.000000, 8313.000000
1593, 14609448.000000, 1728.125000, 8299.000000, 8295.000000, 8342.500000
1594, 14609608.000000, 1641.500000, 8309.000000, 8299.000000, 8352.000000
1595, 14609768.000000, 1552.125000, 8306.000000, 8294.500000, 8345.500000
1596, 14609928.000000, 1470.125000, 8285.500000, 8269.000000, 8307.500000
1597, 14610088.000000, 1394.875000, 8223.000000, 8228.500000, 8252.000000
1598, 14610248.000000, 1324.750000, 8164.000000, 8187.500000, 8185.000000
1599, 14610408.000000, 1262.000000, 8135.000000, 8162.500000, 8153.000000
1600, 14610568.000000, 1204.500000, 8118.000000, 8153.500000, 8140.500000
1601, 14610728.000000, 1156.125000, 8123.500000, 8154.000000, 8138.500000
1602, 14610888.000000, 1114.125000, 8130.500000, 8156.500000, 8142.000000
1603, 14611048.000000, 1078.250000, 8140.500000, 8158.000000, 8153.000000
1604, 14611208.000000, 1048.500000, 8148.000000, 8155.000000, 8150.000000
1605, 14611368.000000, 1022.375000, 8148.500000, 8153.000000, 8147.500000
1606, 14611528.000000, 995.250000, 8146.500000, 8154.500000, 8146.500000
1607, 14611688.000000, 958.625000, 8147.500000, 8156.000000, 8152.000000
1608, 14611848.000000, 946.625000, 8144.000000, 8154.000000, 8145.500000
1609, 14612008.000000, 1032.000000, 8141.000000, 8154.500000, 8144.000000
1610, 14612168.000000, 1277.000000, 8135.000000, 8153.500000, 8148.000000
1611, 14612328.000000, 1648.625000, 8152.000000, 8165.000000, 8158.500000
1612, 14612488.000000, 2044.625000, 8155.500000, 8165.500000, 8165.000000
1613, 14612648.000000, 2361.125000, 8169.000000, 8171.500000, 8186.000000
1614, 14612808.000000, 2557.250000, 8166.000000, 8168.500000, 8173.000000
1615, 14612968.000000, 2625.000000, 8150.000000, 8162.000000, 8149.500000
1616, 14613128.000000, 2595.500000, 8151.500000, 8163.500000, 8155.000000
1617, 14613288.000000, 2506.500000, 8167.500000, 8248.000000, 8238.000000
1618, 14613448.000000, 2385.500000, 8510.500000, 8129.500000, 8284.500000
1619, 14613608.000000, 2247.125000, 8138.500000, 7793.000000, 7802.500000
1620, 14613768.000000, 2095.250000, 8064.000000, 8028.000000, 7947.000000
1621, 14613928.000000, 1945.375000, 8169.500000, 8216.000000, 8213.000000
1622, 14614088.000000, 1821.125000, 8186.000000, 8238.000000, 8242.000000
1623, 14614248.000000, 1740.000000, 8192.000000, 8250.500000, 8262.500000
1624, 14614408.000000, 1704.375000, 8203.000000, 8253.500000, 8269.500000
1625, 14614568.000000, 1705.375000, 8216.500000, 8265.500000, 8286.000000
1626, 14614728.000000, 1728.125000, 8233.000000, 8278.000000, 8306.500000
1627, 14614888.000000, 1743.875000, 8261.000000, 8301.000000, 8338.000000
1628, 14615048.000000, 1740.875000, 8287.000000, 8319.000000, 8368.500000
1629, 14615208.000000, 1711.625000, 8293.500000, 8330.500000, 8383.500000
1630, 14615368.000000, 1661.875000, 8293.500000, 8321.000000, 8367.500000
1631, 14615528.000000, 1596.125000, 8253.000000, 8288.500000, 8320.000000
1632, 14615688.000000, 1523.250000, 8187.000000, 8251.500000, 8264.500000
1633, 14615848.000000, 1448.250000, 8158.000000, 8195.000000, 8188.500000
1634, 14616008.000000, 1375.500000, 8125.000000, 8177.000000, 8164.500000
1635, 14616168.000000, 1307.750000, 8128.500000, 8174.000000, 8157.000000
1636, 14616328.000000, 1248.375000, 8130.000000, 8171.500000, 8159.500000
1637, 14616488.000000, 1198.750000, 8137.000000, 8175.500000, 8164.000000
1638, 14616648.000000, 1162.375000, 8140.000000, 8182.000000, 8177.500000
1639, 14616808.000000, 1133.125000, 8150.000000, 8174.000000, 8167.500000
1640, 14616968.000000, 1107.625000, 8147.000000, 8174.000000, 8167.000000
1641, 14617128.000000, 1077.875000, 8151.000000, 8178.000000, 8166.000000
1642, 14617288.000000, 1045.750000, 8134.000000, 8190.500000, 8181.500000
1643, 14617448.000000, 1043.875000, 8151.500000, 8163.500000, 8156.500000
1644, 14617608.000000, 1131.500000, 8146.000000, 8169.000000, 8159.500000
1645, 14617768.000000, 1369.500000, 8146.500000, 8198.000000, 8194.000000
1646, 14617928.000000, 1707.500000, 8163.500000, 8183.500000, 8187.500000
1647, 14618088.000000, 2070.875000, 8166.500000, 8200.500000, 8214.500000
1648, 14618248.000000, 2374.375000, 8174.500000, 8176.500000, 8181.000000
1649, 14618408.000000, 2577.250000, 8163.000000, 8181.500000, 8175.500000
1650, 14618568.000000, 2666.125000, 8172.000000, 8176.500000, 8176.000000
1651, 14618728.000000, 2653.500000, 8174.000000, 8281.500000, 8279.500000
1652, 14618888.000000, 2579.750000, 8554.500000, 8070.500000, 8240.000000
1653, 14619048.000000, 2462.500000, 8150.000000, 7735.500000, 7744.500000
1654, 14619208.000000, 2319.125000, 8097.000000, 8076.000000, 8019.000000
1655, 14619368.000000, 2159.000000, 8185.500000, 8259.500000, 8273.500000
1656, 14619528.000000, 2002.750000, 8204.500000, 8266.000000, 8288.500000
1657, 14619688.000000, 1870.875000, 8219.500000, 8271.000000, 8306.500000
1658, 14619848.000000, 1780.125000, 8216.500000, 8292.000000, 8324.500000
1659, 14620008.000000, 1739.375000, 8238.500000, 8303.000000, 8347.000000
1660, 14620168.000000, 1734.625000, 8260.000000, 8308.000000, 8357.500000
1661, 14620328.000000, 1748.125000, 8280.000000, 8328.500000, 8382.000000
1662, 14620488.000000, 1754.750000, 8297.000000, 8351.000000, 8413.000000
1663, 14620648.000000, 1741.750000, 8312.000000, 8365.500000, 8431.500000
1664, 14620808.000000, 1707.625000, 8305.000000, 8350.500000, 8412.000000
1665, 14620968.000000, 1655.000000, 8266.000000, 8302.000000, 8346.500000
1666, 14621128.000000, 1589.625000, 8218.500000, 8238.000000, 8256.500000
1667, 14621288.000000, 1518.875000, 8167.000000, 8205.000000, 8210.000000
1668, 14621448.000000, 1449.625000, 8155.500000, 8163.500000, 8158.500000
1669, 14621608.000000, 1383.375000, 8136.000000, 8173.500000, 8162.500000
1670, 14621768.000000, 1322.000000, 8144.500000, 8172.000000, 8165.500000
1671, 14621928.000000, 1264.250000, 8153.000000, 8170.500000, 8172.500000
1672, 14622088.000000, 1213.750000, 8165.000000, 8174.500000, 8174.500000
1673, 14622248.000000, 1171.625000, 8163.000000, 8191.500000, 8194.000000
1674, 14622408.000000, 1137.375000, 8166.500000, 8181.000000, 8174.500000
1675, 14622568.000000, 1103.250000, 8165.000000, 8181.500000, 8176.000000
1676, 14622728.000000, 1070.125000, 8167.500000, 8183.000000, 8174.000000
1677, 14622888.000000, 1069.250000, 8158.500000, 8189.500000, 8182.500000
1678, 14623048.000000, 1168.875000, 8167.500000, 8184.500000, 8182.500000
1679, 14623208.000000, 1414.875000, 8170.500000, 8190.000000, 8188.000000
1680, 14623368.000000, 1768.750000, 8181.500000, 8199.500000, 8209.500000
1681, 14623528.000000, 2127.500000, 8176.000000, 8199.000000, 8196.000000
1682, 14623688.000000, 2408.125000, 8164.500000, 8191.500000, 8180.500000
1683, 14623848.000000, 2559.125000, 8163.000000, 8184.500000, 8171.500000
1684, 14624008.000000, 2597.375000, 8172.000000, 8305.500000, 8289.500000
1685, 14624168.000000, 2541.000000, 8555.000000, 8071.000000, 8236.000000
1686, 14624328.000000, 2434.750000, 8098.000000, 7770.000000, 7740.000000
1687, 14624488.000000, 2303.000000, 8094.000000, 8081.500000, 8004.500000
1688, 14624648.000000, 2154.125000, 8182.500000, 8245.500000, 8237.500000
1689, 14624808.000000, 1994.375000, 8189.000000, 8267.500000, 8264.000000
1690, 14624968.000000, 1835.875000, 8199.000000, 8272.000000, 8275.500000
1691, 14625128.000000, 1709.750000, 8202.000000, 8288.500000, 8293.000000
1692, 14625288.000000, 1630.875000, 8231.000000, 8285.000000, 8298.000000
1693, 14625448.000000, 1599.625000, 8243.500000, 8301.500000, 8321.500000
1694, 14625608.000000, 1598.500000, 8264.000000, 8328.500000, 8363.500000
1695, 14625768.000000, 1608.500000, 8298.500000, 8337.000000, 8377.000000
1696, 14625928.000000, 1611.750000, 8304.000000, 8342.500000, 8388.500000
1697, 14626088.000000, 1600.000000, 8294.000000, 8338.000000, 8380.000000
1698, 14626248.000000, 1567.750000, 8254.000000, 8286.000000, 8311.000000
1699, 14626408.000000, 1518.250000, 8199.000000, 8233.000000, 8235.500000
1700, 14626568.000000, 1456.625000, 8144.500000, 8199.500000, 8179.500000
1701, 14626728.000000, 1390.750000, 8128.500000, 8175.500000, 8150.500000
1702, 14626888.000000, 1328.250000, 8127.500000, 8172.500000, 8143.000000
1703, 14627048.000000, 1274.875000, 8130.500000, 8176.500000, 8152.000000
1704, 14627208.000000, 1224.500000, 8133.500000, 8176.500000, 8154.500000
1705, 14627368.000000, 1173.875000, 8142.000000, 8189.000000, 8165.000000
1706, 14627528.000000, 1120.625000, 8154.000000, 8177.500000, 8160.500000
1707, 14627688.000000, 1076.000000, 8151.000000, 8183.500000, 8167.500000
1708, 14627848.000000, 1038.125000, 8151.000000, 8177.000000, 8153.000000
1709, 14628008.000000, 1004.500000, 8149.000000, 8177.500000, 8152.000000
1710, 14628168.000000, 999.625000, 8152.000000, 8180.500000, 8157.000000
1711, 14628328.000000, 1095.375000, 8159.000000, 8186.500000, 8173.000000
1712, 14628488.000000, 1335.500000, 8159.000000, 8190.500000, 8178.500000
1713, 14628648.000000, 1660.125000, 8163.500000, 8184.000000, 8174.000000
1714, 14628808.000000, 1964.625000, 8158.500000, 8182.000000, 8162.000000
1715, 14628968.000000, 2173.375000, 8147.000000, 8175.500000, 8150.500000
1716, 14629128.000000, 2282.000000, 8156.000000, 8178.500000, 8149.000000
1717, 14629288.000000, 2296.250000, 8204.500000, 8329.000000, 8323.500000
1718, 14629448.000000, 2247.875000, 8546.500000, 7919.000000, 8089.000000
1719, 14629608.000000, 2155.125000, 7942.000000, 7830.000000, 7718.000000
1720, 14629768.000000, 2034.500000, 8134.500000, 8158.500000, 8104.500000
1721, 14629928.000000, 1900.000000, 8172.000000, 8240.500000, 8224.500000
1722, 14630088.000000, 1759.250000, 8183.500000, 8254.000000, 8245.500000
1723, 14630248.000000, 1633.250000, 8192.000000, 8261.000000, 8256.000000
1724, 14630408.000000, 1538.500000, 8208.500000, 8268.500000, 8267.000000
1725, 14630568.000000, 1482.000000, 8222.000000, 8272.500000, 8278.500000
1726, 14630728.000000, 1458.625000, 8241.500000, 8281.000000, 8299.000000
1727, 14630888.000000, 1457.875000, 8273.000000, 8298.500000, 8325.500000
1728, 14631048.000000, 1467.375000, 8306.500000, 8313.500000, 8348.500000
1729, 14631208.000000, 1471.000000, 8304.500000, 8312.000000, 8353.000000
1730, 14631368.000000, 1463.000000, 8287.500000, 8297.000000, 8328.500000
1731, 14631528.000000, 1437.875000, 8240.000000, 8262.500000, 8273.500000
1732, 14631688.000000, 1397.625000, 8181.000000, 8216.000000, 8206.000000
1733, 14631848.000000, 1348.875000, 8138.500000, 8189.500000, 8152.500000
1734, 14632008.000000, 1294.000000, 8114.000000, 8171.500000, 8138.500000
1735, 14632168.000000, 1234.000000, 8121.000000, 8178.000000, 8141.000000
1736, 14632328.000000, 1175.125000, 8132.500000, 8168.000000, 8141.000000
1737, 14632488.000000, 1122.125000, 8138.000000, 8177.500000, 8151.500000
1738, 14632648.000000, 1080.250000, 8146.500000, 8178.000000, 8149.000000
1739, 14632808.000000, 1046.875000, 8143.500000, 8172.500000, 8146.500000
1740, 14632968.000000, 1013.375000, 8140.500000, 8171.500000, 8140.500000
1741, 14633128.000000, 979.250000, 8143.000000, 8168.500000, 8142.500000
1742, 14633288.000000, 952.125000, 8147.000000, 8172.500000, 8144.500000
1743, 14633448.000000, 988.250000, 8148.500000, 8182.000000, 8161.500000
1744, 14633608.000000, 1162.000000, 8154.000000, 8187.500000, 8178.500000
1745, 14633768.000000, 1462.000000, 8161.500000, 8174.000000, 8158.000000
1746, 14633928.000000, 1805.500000, 8153.500000, 8172.500000, 8146.000000
1747, 14634088.000000, 2075.625000, 8145.500000, 8169.000000, 8140.500000
1748, 14634248.000000, 2239.125000, 8147.500000, 8167.000000, 8142.000000
1749, 14634408.000000, 2288.750000, 8208.000000, 8309.000000, 8312.500000
1750, 14634568.000000, 2259.750000, 8561.000000, 7930.000000, 8100.000000
1751, 14634728.000000, 2184.500000, 7956.500000, 7861.500000, 7759.000000
1752, 14634888.000000, 2086.875000, 8124.500000, 8134.500000, 8071.500000
1753, 14635048.000000, 1979.250000, 8169.500000, 8235.000000, 8216.500000
1754, 14635208.000000, 1857.875000, 8188.500000, 8237.000000, 8228.000000
1755, 14635368.000000, 1717.875000, 8201.000000, 8245.000000, 8244.000000
1756, 14635528.000000, 1602.500000, 8207.500000, 8257.000000, 8257.500000
1757, 14635688.000000, 1540.625000, 8228.000000, 8262.500000, 8273.500000
1758, 14635848.000000, 1522.125000, 8251.000000, 8282.500000, 8303.000000
1759, 14636008.000000, 1546.500000, 8271.500000, 8302.500000, 8335.500000
1760, 14636168.000000, 1584.000000, 8297.000000, 8311.500000, 8350.500000
1761, 14636328.000000, 1596.000000, 8301.000000, 8312.500000, 8354.000000
1762, 14636488.000000, 1581.500000, 8291.000000, 8294.000000, 8326.000000
1763, 14636648.000000, 1536.375000, 8237.500000, 8259.500000, 8277.000000
1764, 14636808.000000, 1479.500000, 8177.000000, 8210.500000, 8202.000000
1765, 14636968.000000, 1428.875000, 8138.500000, 8185.500000, 8160.000000
1766, 14637128.000000, 1375.250000, 8122.500000, 8174.500000, 8142.500000
1767, 14637288.000000, 1322.500000, 8130.500000, 8171.000000, 8143.500000
1768, 14637448.000000, 1277.250000, 8130.500000, 8172.500000, 8150.500000
1769, 14637608.000000, 1244.500000, 8139.500000, 8179.000000, 8156.000000
1770, 14637768.000000, 1220.000000, 8163.500000, 8174.500000, 8159.500000
1771, 14637928.000000, 1197.750000, 8146.500000, 8179.000000, 8158.000000
1772, 14638088.000000, 1170.625000, 8146.500000, 8175.500000, 8156.500000
1773, 14638248.000000, 1156.250000, 8145.000000, 8175.000000, 8154.000000
1774, 14638408.000000, 1221.875000, 8149.000000, 8172.000000, 8150.500000
1775, 14638568.000000, 1430.125000, 8160.000000, 8174.000000, 8157.000000
1776, 14638728.000000, 1753.125000, 8152.500000, 8186.500000, 8170.500000
1777, 14638888.000000, 2075.875000, 8153.500000, 8180.500000, 8174.000000
1778, 14639048.000000, 2306.625000, 8171.000000, 8174.000000, 8162.500000
1779, 14639208.000000, 2415.625000, 8152.000000, 8169.500000, 8146.500000
1780, 14639368.000000, 2435.500000, 8146.500000, 8176.500000, 8153.500000
1781, 14639528.000000, 2386.500000, 8162.000000, 8258.000000, 8236.500000
1782, 14639688.000000, 2297.625000, 8530.000000, 8115.000000, 8257.500000
1783, 14639848.000000, 2183.375000, 8144.500000, 7784.500000, 7779.000000
1784, 14640008.000000, 2052.000000, 8061.000000, 8023.000000, 7931.000000
1785, 14640168.000000, 1908.125000, 8174.000000, 8220.000000, 8200.500000
1786, 14640328.000000, 1766.625000, 8185.500000, 8239.000000, 8235.000000
1787, 14640488.000000, 1653.875000, 8193.500000, 8243.500000, 8238.000000
1788, 14640648.000000, 1587.625000, 8211.000000, 8248.500000, 8249.000000
1789, 14640808.000000, 1575.250000, 8220.500000, 8247.000000, 8256.000000
1790, 14640968.000000, 1600.250000, 8237.000000, 8263.500000, 8279.500000
1791, 14641128.000000, 1644.625000, 8258.000000, 8293.000000, 8315.000000
1792, 14641288.000000, 1681.000000, 8280.500000, 8303.000000, 8339.000000
1793, 14641448.000000, 1689.750000, 8299.000000, 8309.000000, 8344.500000
1794, 14641608.000000, 1666.875000, 8292.000000, 8300.500000, 8335.500000
1795, 14641768.000000, 1614.000000, 8247.500000, 8266.000000, 8288.000000
1796, 14641928.000000, 1549.750000, 8197.500000, 8213.500000, 8212.500000
1797, 14642088.000000, 1485.375000, 8151.500000, 8175.500000, 8157.500000
1798, 14642248.000000, 1426.375000, 8134.000000, 8156.000000, 8131.500000
1799, 14642408.000000, 1374.500000, 8127.000000, 8154.500000, 8127.500000
1800, 14642568.000000, 1327.875000, 8132.500000, 8155.500000, 8133.000000
1801, 14642728.000000, 1287.625000, 8146.000000, 8160.000000, 8139.000000
1802, 14642888.000000, 1253.500000, 8146.000000, 8163.500000, 8147.000000
1803, 14643048.000000, 1222.875000, 8149.000000, 8161.000000, 8146.000000
1804, 14643208.000000, 1188.250000, 8149.500000, 8162.000000, 8143.000000
1805, 14643368.000000, 1160.250000, 8156.000000, 8169.500000, 8148.500000
1806, 14643528.000000, 1204.750000, 8147.500000, 8163.500000, 8144.000000
1807, 14643688.000000, 1395.250000, 8150.500000, 8168.000000, 8144.500000
1808, 14643848.000000, 1721.875000, 8146.000000, 8166.500000, 8152.000000
1809, 14644008.000000, 2063.500000, 8156.000000, 8169.000000, 8158.000000
1810, 14644168.000000, 2316.625000, 8163.500000, 8173.000000, 8174.000000
1811, 14644328.000000, 2444.375000, 8169.000000, 8174.000000, 8161.000000
1812, 14644488.000000, 2471.500000, 8157.000000, 8161.500000, 8143.500000
1813, 14644648.000000, 2418.625000, 8160.500000, 8164.500000, 8145.000000
1814, 14644808.000000, 2320.125000, 8174.000000, 8256.500000, 8234.000000
1815, 14644968.000000, 2199.750000, 8515.000000, 8070.000000, 8216.500000
1816, 14645128.000000, 2069.125000, 8132.500000, 7727.000000, 7715.500000
1817, 14645288.000000, 1929.375000, 8078.500000, 8037.500000, 7949.000000
1818, 14645448.000000, 1787.375000, 8178.000000, 8225.000000, 8213.000000
1819, 14645608.000000, 1670.000000, 8181.000000, 8239.500000, 8233.500000
1820, 14645768.000000, 1592.750000, 8197.000000, 8249.000000, 8247.500000
1821, 14645928.000000, 1562.250000, 8205.000000, 8256.000000, 8262.000000
1822, 14646088.000000, 1566.125000, 8226.000000, 8267.500000, 8277.000000
1823, 14646248.000000, 1593.125000, 8244.000000, 8274.000000, 8295.500000
1824, 14646408.000000, 1619.875000, 8268.500000, 8292.000000, 8319.000000
1825, 14646568.000000, 1629.000000, 8289.500000, 8306.000000, 8344.000000
1826, 14646728.000000, 1616.625000, 8312.000000, 8320.000000, 8360.000000
1827, 14646888.000000, 1584.000000, 8299.000000, 8309.500000, 8345.000000
1828, 14647048.000000, 1538.500000, 8273.000000, 8280.000000, 8294.000000
1829, 14647208.000000, 1484.625000, 8208.000000, 8227.000000, 8219.000000
1830, 14647368.000000, 1425.125000, 8163.000000, 8193.000000, 8164.000000
1831, 14647528.000000, 1370.875000, 8140.000000, 8183.000000, 8144.500000
1832, 14647688.000000, 1325.250000, 8142.500000, 8174.500000, 8135.500000
1833, 14647848.000000, 1294.125000, 8141.500000, 8176.500000, 8135.500000
1834, 14648008.000000, 1269.875000, 8148.500000, 8177.000000, 8143.500000
1835, 14648168.000000, 1248.000000, 8159.000000, 8185.500000, 8153.500000
1836, 14648328.000000, 1228.750000, 8158.000000, 8180.500000, 8151.000000
1837, 14648488.000000, 1202.125000, 8157.000000, 8182.000000, 8151.000000
1838, 14648648.000000, 1189.500000, 8156.500000, 8182.000000, 8149.000000
1839, 14648808.000000, 1264.625000, 8151.000000, 8172.500000, 8140.500000
1840, 14648968.000000, 1509.250000, 8156.500000, 8176.500000, 8144.500000
1841, 14649128.000000, 1889.500000, 8154.000000, 8185.500000, 8157.500000
1842, 14649288.000000, 2281.625000, 8160.500000, 8186.000000, 8163.000000
1843, 14649448.000000, 2558.750000, 8165.000000, 8186.500000, 8177.500000
1844, 14649608.000000, 2701.625000, 8177.500000, 8178.500000, 8161.000000
1845, 14649768.000000, 2722.875000, 8156.500000, 8172.000000, 8144.000000
1846, 14649928.000000, 2675.125000, 8160.000000, 8171.500000, 8147.500000
1847, 14650088.000000, 2591.500000, 8159.000000, 8257.500000, 8232.000000
1848, 14650248.000000, 2496.250000, 8508.000000, 8089.000000, 8231.500000
1849, 14650408.000000, 2397.750000, 8169.500000, 7687.500000, 7697.000000
1850, 14650568.000000, 2291.625000, 8063.500000, 8032.000000, 7941.500000
1851, 14650728.000000, 2181.500000, 8162.500000, 8234.000000, 8220.000000
1852, 14650888.000000, 2078.625000, 8170.500000, 8253.500000, 8249.500000
1853, 14651048.000000, 2002.375000, 8186.500000, 8253.500000, 8250.000000
1854, 14651208.000000, 1963.250000, 8185.500000, 8265.000000, 8270.500000
1855, 14651368.000000, 1959.500000, 8213.000000, 8270.000000, 8288.000000
1856, 14651528.000000, 1977.000000, 8228.500000, 8287.000000, 8314.000000
1857, 14651688.000000, 1994.125000, 8248.000000, 8313.500000, 8350.000000
1858, 14651848.000000, 1995.500000, 8289.000000, 8326.500000, 8377.000000
1859, 14652008.000000, 1979.375000, 8286.000000, 8342.500000, 8386.500000
1860, 14652168.000000, 1948.750000, 8284.500000, 8331.000000, 8378.000000
1861, 14652328.000000, 1900.875000, 8248.500000, 8288.000000, 8318.500000
1862, 14652488.000000, 1845.125000, 8187.500000, 8226.500000, 8235.500000
1863, 14652648.000000, 1790.875000, 8141.000000, 8178.000000, 8166.000000
1864, 14652808.000000, 1744.000000, 8116.500000, 8162.000000, 8136.000000
1865, 14652968.000000, 1707.250000, 8110.000000, 8166.000000, 8139.500000
1866, 14653128.000000, 1673.375000, 8114.500000, 8164.000000, 8142.000000
1867, 14653288.000000, 1638.250000, 8126.000000, 8169.500000, 8150.500000
1868, 14653448.000000, 1601.875000, 8140.000000, 8162.500000, 8141.500000
1869, 14653608.000000, 1558.125000, 8140.500000, 8165.500000, 8146.500000
1870, 14653768.000000, 1507.250000, 8131.500000, 8172.500000, 8148.500000
1871, 14653928.000000, 1462.750000, 8139.500000, 8167.500000, 8148.000000
1872, 14654088.000000, 1506.750000, 8143.500000, 8166.500000, 8145.500000
1873, 14654248.000000, 1718.875000, 8143.000000, 8162.500000, 8140.500000
1874, 14654408.000000, 2099.750000, 8154.500000, 8156.500000, 8135.000000
1875, 14654568.000000, 2524.875000, 8144.000000, 8172.000000, 8148.000000
1876, 14654728.000000, 2877.125000, 8151.000000, 8165.500000, 8153.500000
1877, 14654888.000000, 3098.125000, 8169.500000, 8179.000000, 8172.500000
1878, 14655048.000000, 3212.500000, 8171.000000, 8164.500000, 8160.000000
1879, 14655208.000000, 3233.875000, 8164.500000, 8170.500000, 8151.500000
1880, 14655368.000000, 3186.125000, 8162.000000, 8160.500000, 8138.000000
1881, 14655528.000000, 3097.375000, 8161.000000, 8173.500000, 8145.500000
1882, 14655688.000000, 2987.000000, 8314.000000, 8306.000000, 8353.000000
1883, 14655848.000000, 2858.625000, 8509.500000, 7668.000000, 7828.500000
1884, 14656008.000000, 2713.625000, 7985.000000, 7869.000000, 7747.000000
1885, 14656168.000000, 2568.000000, 8170.500000, 8198.000000, 8174.000000
1886, 14656328.000000, 2446.375000, 8179.500000, 8239.500000, 8231.500000
1887, 14656488.000000, 2369.875000, 8188.500000, 8247.000000, 8239.000000
1888, 14656648.000000, 2345.000000, 8204.500000, 8246.500000, 8247.000000
1889, 14656808.000000, 2349.875000, 8215.500000, 8255.000000, 8262.500000
1890, 14656968.000000, 2358.000000, 8242.500000, 8273.000000, 8290.500000
1891, 14657128.000000, 2349.625000, 8255.000000, 8285.000000, 8310.000000
1892, 14657288.000000, 2323.000000, 8284.000000, 8303.500000, 8338.500000
1893, 14657448.000000, 2274.625000, 8305.500000, 8312.000000, 8355.500000
1894, 14657608.000000, 2208.250000, 8299.000000, 8310.000000, 8355.000000
1895, 14657768.000000, 2131.625000, 8282.500000, 8280.500000, 8317.000000
1896, 14657928.000000, 2052.000000, 8233.500000, 8242.500000, 8257.000000
1897, 14658088.000000, 1974.875000, 8183.500000, 8190.000000, 8182.000000
1898, 14658248.000000, 1900.500000, 8134.000000, 8166.000000, 8143.500000
1899, 14658408.000000, 1834.375000, 8136.500000, 8150.000000, 8123.500000
1900, 14658568.000000, 1775.375000, 8136.000000, 8151.500000, 8129.500000
1901, 14658728.000000, 1726.125000, 8148.500000, 8161.500000, 8140.000000
1902, 14658888.000000, 1686.125000, 8155.500000, 8159.000000, 8143.000000
1903, 14659048.000000, 1650.250000, 8146.000000, 8160.000000, 8143.000000
1904, 14659208.000000, 1609.500000, 8161.000000, 8159.000000, 8142.000000
1905, 14659368.000000, 1556.875000, 8162.000000, 8160.000000, 8144.500000
1906, 14659528.000000, 1525.375000, 8155.500000, 8160.500000, 8140.500000
1907, 14659688.000000, 1623.625000, 8161.000000, 8163.500000, 8139.000000
1908, 14659848.000000, 1909.375000, 8164.000000, 8167.000000, 8140.500000
1909, 14660008.000000, 2344.375000, 8170.000000, 8172.500000, 8153.000000
1910, 14660168.000000, 2773.375000, 8178.000000, 8182.000000, 8174.000000
1911, 14660328.000000, 3095.625000, 8180.500000, 8173.500000, 8156.000000
1912, 14660488.000000, 3285.625000, 8176.000000, 8170.000000, 8148.500000
1913, 14660648.000000, 3357.625000, 8170.500000, 8162.500000, 8131.500000
1914, 14660808.000000, 3335.500000, 8178.500000, 8180.000000, 8147.500000
1915, 14660968.000000, 3242.625000, 8320.000000, 8312.000000, 8356.000000
1916, 14661128.000000, 3113.750000, 8442.000000, 7843.500000, 7970.000000
1917, 14661288.000000, 2962.625000, 7986.500000, 7912.000000, 7796.500000
1918, 14661448.000000, 2800.750000, 8174.500000, 8180.500000, 8147.000000
1919, 14661608.000000, 2640.875000, 8195.500000, 8228.500000, 8210.500000
1920, 14661768.000000, 2506.625000, 8207.500000, 8235.000000, 8224.500000
1921, 14661928.000000, 2418.125000, 8210.500000, 8244.500000, 8242.000000
1922, 14662088.000000, 2371.875000, 8231.000000, 8238.500000, 8243.500000
1923, 14662248.000000, 2359.000000, 8248.500000, 8254.000000, 8262.500000
1924, 14662408.000000, 2361.125000, 8268.500000, 8269.500000, 8288.500000
1925, 14662568.000000, 2362.000000, 8285.500000, 8286.500000, 8315.000000
1926, 14662728.000000, 2351.875000, 8317.000000, 8291.000000, 8322.500000
1927, 14662888.000000, 2322.625000, 8309.000000, 8289.000000, 8323.000000
1928, 14663048.000000, 2275.000000, 8277.000000, 8264.500000, 8292.500000
1929, 14663208.000000, 2210.500000, 8229.000000, 8239.000000, 8239.500000
1930, 14663368.000000, 2133.875000, 8167.500000, 8196.500000, 8178.500000
1931, 14663528.000000, 2050.125000, 8137.000000, 8170.000000, 8141.500000
1932, 14663688.000000, 1966.000000, 8122.500000, 8164.500000, 8128.500000
1933, 14663848.000000, 1888.875000, 8120.500000, 8164.500000, 8135.500000
1934, 14664008.000000, 1823.000000, 8134.000000, 8165.500000, 8144.500000
1935, 14664168.000000, 1769.750000, 8142.000000, 8165.500000, 8148.500000
1936, 14664328.000000, 1725.875000, 8147.000000, 8163.500000, 8146.000000
1937, 14664488.000000, 1681.125000, 8138.000000, 8164.000000, 8149.500000
1938, 14664648.000000, 1631.750000, 8142.000000, 8166.000000, 8150.000000
1939, 14664808.000000, 1603.750000, 8128.000000, 8166.000000, 8154.500000
1940, 14664968.000000, 1655.125000, 8137.500000, 8164.000000, 8146.000000
1941, 14665128.000000, 1874.875000, 8139.000000, 8171.000000, 8162.000000
1942, 14665288.000000, 2240.250000, 8139.000000, 8176.500000, 8172.500000
1943, 14665448.000000, 2666.375000, 8140.500000, 8165.500000, 8168.000000
1944, 14665608.000000, 3037.125000, 8156.000000, 8175.000000, 8163.500000
1945, 14665768.000000, 3288.250000, 8124.500000, 8160.000000, 8137.500000
1946, 14665928.000000, 3408.125000, 8133.000000, 8164.000000, 8142.000000
1947, 14666088.000000, 3414.250000, 8166.000000, 8292.000000, 8294.500000
1948, 14666248.000000, 3347.875000, 8534.500000, 7959.500000, 8131.000000
1949, 14666408.000000, 3233.750000, 7969.000000, 7810.000000, 7732.500000
1950, 14666568.000000, 3091.125000, 8091.500000, 8109.500000, 8049.000000
1951, 14666728.000000, 2929.125000, 8163.000000, 8227.000000, 8223.000000
1952, 14666888.000000, 2762.000000, 8172.500000, 8248.000000, 8250.000000
1953, 14667048.000000, 2612.250000, 8178.000000, 8252.500000, 8258.000000
1954, 14667208.000000, 2497.625000, 8191.000000, 8255.500000, 8269.500000
1955, 14667368.000000, 2429.125000, 8213.000000, 8271.500000, 8290.500000
1956, 14667528.000000, 2404.000000, 8234.000000, 8282.500000, 8313.500000
1957, 14667688.000000, 2411.750000, 8261.000000, 8303.000000, 8340.000000
1958, 14667848.000000, 2428.500000, 8277.000000, 8324.000000, 8371.500000
1959, 14668008.000000, 2431.125000, 8290.500000, 8323.000000, 8375.500000
1960, 14668168.000000, 2408.250000, 8269.500000, 8308.500000, 8348.500000
1961, 14668328.000000, 2363.250000, 8226.500000, 8271.500000, 8298.500000
1962, 14668488.000000, 2300.375000, 8176.000000, 8207.000000, 8207.500000
1963, 14668648.000000, 2225.000000, 8132.000000, 8174.000000, 8157.000000
1964, 14668808.000000, 2139.625000, 8122.500000, 8164.000000, 8141.000000
1965, 14668968.000000, 2051.500000, 8125.000000, 8152.000000, 8136.500000
1966, 14669128.000000, 1966.000000, 8124.500000, 8160.500000, 8147.000000
1967, 14669288.000000, 1889.875000, 8142.500000, 8160.000000, 8147.500000
1968, 14669448.000000, 1820.625000, 8139.000000, 8160.500000, 8145.500000
1969, 14669608.000000, 1754.125000, 8141.000000, 8158.500000, 8149.500000
1970, 14669768.000000, 1685.500000, 8144.000000, 8166.000000, 8155.000000
1971, 14669928.000000, 1619.000000, 8142.500000, 8157.000000, 8143.500000
1972, 14670088.000000, 1596.500000, 8147.000000, 8159.500000, 8147.000000
1973, 14670248.000000, 1725.625000, 8143.500000, 8150.000000, 8135.000000
1974, 14670408.000000, 2041.500000, 8147.500000, 8158.500000, 8143.000000
1975, 14670568.000000, 2494.125000, 8150.500000, 8166.500000, 8158.000000
1976, 14670728.000000, 2942.875000, 8153.000000, 8176.500000, 8172.000000
1977, 14670888.000000, 3290.625000, 8166.000000, 8157.500000, 8160.500000
1978, 14671048.000000, 3497.750000, 8155.500000, 8165.500000, 8161.500000
1979, 14671208.000000, 3565.750000, 8146.000000, 8155.500000, 8138.000000
1980, 14671368.000000, 3532.500000, 8155.000000, 8161.500000, 8146.500000
1981, 14671528.000000, 3421.250000, 8171.500000, 8282.000000, 8279.500000
1982, 14671688.000000, 3262.875000, 8556.000000, 7970.500000, 8149.000000
1983, 14671848.000000, 3072.375000, 8027.000000, 7751.500000, 7691.000000
1984, 14672008.000000, 2861.500000, 8103.000000, 8084.500000, 8018.500000
1985, 14672168.000000, 2660.125000, 8171.500000, 8227.000000, 8223.500000
1986, 14672328.000000, 2490.250000, 8182.000000, 8235.500000, 8238.500000
1987, 14672488.000000, 2379.375000, 8186.500000, 8243.000000, 8247.500000
1988, 14672648.000000, 2327.000000, 8213.000000, 8253.000000, 8264.000000
1989, 14672808.000000, 2318.250000, 8219.500000, 8263.000000, 8283.500000
1990, 14672968.000000, 2326.125000, 8243.500000, 8277.500000, 8307.500000
1991, 14673128.000000, 2324.500000, 8271.000000, 8293.500000, 8332.000000
1992, 14673288.000000, 2297.750000, 8291.500000, 8316.500000, 8363.500000
1993, 14673448.000000, 2243.125000, 8304.500000, 8313.500000, 8364.500000
1994, 14673608.000000, 2167.625000, 8290.000000, 8305.500000, 8352.000000
1995, 14673768.000000, 2075.000000, 8244.500000, 8269.000000, 8298.000000
1996, 14673928.000000, 1972.875000, 8193.500000, 8209.000000, 8215.000000
1997, 14674088.000000, 1872.000000, 8140.000000, 8176.500000, 8160.500000
1998, 14674248.000000, 1776.625000, 8128.500000, 8161.000000, 8135.000000
1999, 14674408.000000, 1690.375000, 8135.000000, 8160.000000, 8134.000000
2000, 14674568.000000, 1610.250000, 8142.000000, 8170.000000, 8145.000000
2001, 14674728.000000, 1538.125000, 8143.500000, 8170.500000, 8147.500000
2002, 14674888.000000, 1474.000000, 8149.500000, 8173.000000, 8152.000000
2003, 14675048.000000, 1414.000000, 8160.500000, 8173.500000, 8154.500000
2004, 14675208.000000, 1352.625000, 8161.500000, 8173.000000, 8146.000000
2005, 14675368.000000, 1289.875000, 8152.000000, 8173.000000, 8150.500000
2006, 14675528.000000, 1290.875000, 8150.500000, 8173.500000, 8150.000000
2007, 14675688.000000, 1453.500000, 8147.500000, 8174.000000, 8148.500000
2008, 14675848.000000, 1805.500000, 8147.000000, 8168.000000, 8140.500000
2009, 14676008.000000, 2247.250000, 8156.000000, 8174.500000, 8148.500000
2010, 14676168.000000, 2661.625000, 8166.500000, 8180.000000, 8163.500000
2011, 14676328.000000, 2967.500000, 8167.000000, 8184.500000, 8172.000000
2012, 14676488.000000, 3150.250000, 8167.000000, 8181.500000, 8175.000000
2013, 14676648.000000, 3196.000000, 8175.000000, 8174.500000, 8163.500000
2014, 14676808.000000, 3140.750000, 8163.500000, 8169.000000, 8140.500000
2015, 14676968.000000, 3022.250000, 8159.000000, 8170.500000, 8145.000000
2016, 14677128.000000, 2870.875000, 8191.000000, 8301.500000, 8289.000000
2017, 14677288.000000, 2700.625000, 8550.500000, 7977.000000, 8141.000000
2018, 14677448.000000, 2518.875000, 8008.000000, 7763.500000, 7681.000000
2019, 14677608.000000, 2347.000000, 8116.500000, 8120.000000, 8053.000000
2020, 14677768.000000, 2206.625000, 8176.000000, 8239.500000, 8226.500000
2021, 14677928.000000, 2115.875000, 8189.500000, 8249.500000, 8239.500000
2022, 14678088.000000, 2067.875000, 8208.500000, 8256.500000, 8257.500000
2023, 14678248.000000, 2052.125000, 8217.000000, 8267.500000, 8273.000000
2024, 14678408.000000, 2045.375000, 8222.000000, 8275.500000, 8288.500000
2025, 14678568.000000, 2027.125000, 8257.000000, 8280.000000, 8305.500000
2026, 14678728.000000, 1991.500000, 8274.500000, 8309.000000, 8338.000000
2027, 14678888.000000, 1933.750000, 8299.000000, 8327.000000, 8372.500000
2028, 14679048.000000, 1864.000000, 8305.000000, 8324.500000, 8374.000000
2029, 14679208.000000, 1784.000000, 8288.000000, 8321.500000, 8365.500000
2030, 14679368.000000, 1700.750000, 8253.000000, 8277.500000, 8307.000000
2031, 14679528.000000, 1616.750000, 8179.500000, 8219.500000, 8226.500000
2032, 14679688.000000, 1534.125000, 8141.000000, 8177.000000, 8165.500000
2033, 14679848.000000, 1461.125000, 8119.000000, 8174.000000, 8151.500000
2034, 14680008.000000, 1401.125000, 8107.500000, 8163.000000, 8142.000000
2035, 14680168.000000, 1347.500000, 8119.000000, 8164.000000, 8147.500000
2036, 14680328.000000, 1299.500000, 8128.000000, 8174.500000, 8162.000000
2037, 14680488.000000, 1250.125000, 8122.500000, 8182.000000, 8171.000000
2038, 14680648.000000, 1207.125000, 8139.500000, 8168.000000, 8159.500000
2039, 14680808.000000, 1166.750000, 8146.500000, 8171.000000, 8160.000000
2040, 14680968.000000, 1124.625000, 8131.500000, 8176.500000, 8166.500000
2041, 14681128.000000, 1131.000000, 8142.500000, 8169.000000, 8158.500000
2042, 14681288.000000, 1274.375000, 8131.000000, 8169.000000, 8157.500000
2043, 14681448.000000, 1606.625000, 8143.500000, 8166.500000, 8152.500000
2044, 14681608.000000, 2041.750000, 8148.500000, 8167.500000, 8157.500000
2045, 14681768.000000, 2454.000000, 8155.500000, 8174.000000, 8167.000000
2046, 14681928.000000, 2762.000000, 8149.500000, 8171.500000, 8170.500000
2047, 14682088.000000, 2939.000000, 8165.000000, 8178.500000, 8182.500000
2048, 14682248.000000, 2991.375000, 8169.500000, 8175.500000, 8172.000000
2049, 14682408.000000, 2950.250000, 8152.500000, 8160.000000, 8145.000000
2050, 14682568.000000, 2850.750000, 8159.000000, 8164.500000, 8149.000000
2051, 14682728.000000, 2717.375000, 8174.000000, 8305.500000, 8298.500000
2052, 14682888.000000, 2562.625000, 8591.000000, 7923.500000, 8108.500000
2053, 14683048.000000, 2389.625000, 8038.500000, 7751.500000, 7691.500000
2054, 14683208.000000, 2212.625000, 8116.500000, 8109.000000, 8047.000000
2055, 14683368.000000, 2056.000000, 8175.500000, 8239.500000, 8229.000000
2056, 14683528.000000, 1945.125000, 8184.500000, 8248.500000, 8248.500000
2057, 14683688.000000, 1884.000000, 8198.000000, 8249.000000, 8255.000000
2058, 14683848.000000, 1862.875000, 8216.000000, 8253.000000, 8264.000000
2059, 14684008.000000, 1861.000000, 8232.000000, 8271.000000, 8284.500000
2060, 14684168.000000, 1856.375000, 8256.500000, 8277.500000, 8304.500000
2061, 14684328.000000, 1836.125000, 8275.000000, 8297.500000, 8332.000000
2062, 14684488.000000, 1796.375000, 8301.500000, 8313.000000, 8357.000000
2063, 14684648.000000, 1739.375000, 8308.000000, 8315.000000, 8357.500000
2064, 14684808.000000, 1668.250000, 8302.500000, 8297.000000, 8339.500000
2065, 14684968.000000, 1591.625000, 8257.500000, 8253.000000, 8276.000000
2066, 14685128.000000, 1513.375000, 8201.000000, 8211.000000, 8207.500000
2067, 14685288.000000, 1442.125000, 8155.000000, 8165.500000, 8150.000000
2068, 14685448.000000, 1376.625000, 8131.000000, 8151.500000, 8123.500000
2069, 14685608.000000, 1309.125000, 8139.000000, 8148.500000, 8128.500000
2070, 14685768.000000, 1243.875000, 8135.000000, 8164.500000, 8140.000000
2071, 14685928.000000, 1186.500000, 8151.000000, 8162.500000, 8143.500000
2072, 14686088.000000, 1141.250000, 8166.500000, 8163.000000, 8147.000000
2073, 14686248.000000, 1106.250000, 8156.500000, 8162.000000, 8145.500000
2074, 14686408.000000, 1070.875000, 8156.000000, 8157.500000, 8144.500000
2075, 14686568.000000, 1025.750000, 8155.000000, 8161.000000, 8142.000000
2076, 14686728.000000, 1003.250000, 8153.000000, 8160.000000, 8142.500000
2077, 14686888.000000, 1099.000000, 8157.500000, 8166.000000, 8153.500000
2078, 14687048.000000, 1373.375000, 8160.500000, 8171.000000, 8160.500000
2079, 14687208.000000, 1787.375000, 8171.000000, 8160.000000, 8159.000000
2080, 14687368.000000, 2196.875000, 8180.000000, 8163.500000, 8150.000000
2081, 14687528.000000, 2503.000000, 8162.000000, 8159.000000, 8138.000000
2082, 14687688.000000, 2673.375000, 8157.000000, 8158.000000, 8138.000000
2083, 14687848.000000, 2716.375000, 8186.000000, 8261.500000, 8248.000000
2084, 14688008.000000, 2673.500000, 8548.000000, 8073.000000, 8226.000000
2085, 14688168.000000, 2568.000000, 8046.500000, 7850.000000, 7797.000000
2086, 14688328.000000, 2433.625000, 8098.000000, 8057.000000, 7971.500000
2087, 14688488.000000, 2281.000000, 8191.500000, 8208.000000, 8190.000000
2088, 14688648.000000, 2112.500000, 8209.500000, 8227.000000, 8213.000000
2089, 14688808.000000, 1946.000000, 8210.500000, 8231.500000, 8224.500000
2090, 14688968.000000, 1802.125000, 8228.500000, 8238.500000, 8234.500000
2091, 14689128.000000, 1705.250000, 8241.000000, 8246.500000, 8247.000000
2092, 14689288.000000, 1657.125000, 8265.500000, 8250.000000, 8262.000000
2093, 14689448.000000, 1650.250000, 8293.500000, 8264.000000, 8285.000000
2094, 14689608.000000, 1661.750000, 8312.000000, 8274.000000, 8304.000000
2095, 14689768.000000, 1673.250000, 8328.000000, 8278.500000, 8306.000000
2096, 14689928.000000, 1664.875000, 8305.000000, 8266.000000, 8291.000000
2097, 14690088.000000, 1632.750000, 8261.000000, 8247.000000, 8258.000000
2098, 14690248.000000, 1580.000000, 8206.500000, 8213.500000, 8202.500000
2099, 14690408.000000, 1515.500000, 8167.500000, 8188.000000, 8159.000000
2100, 14690568.000000, 1443.375000, 8142.500000, 8177.500000, 8144.000000
2101, 14690728.000000, 1369.875000, 8139.000000, 8181.000000, 8148.000000
2102, 14690888.000000, 1296.500000, 8143.000000, 8177.000000, 8145.500000
2103, 14691048.000000, 1229.375000, 8156.000000, 8179.500000, 8150.000000
2104, 14691208.000000, 1169.125000, 8163.500000, 8180.000000, 8159.000000
2105, 14691368.000000, 1114.875000, 8158.500000, 8182.000000, 8162.000000
2106, 14691528.000000, 1066.625000, 8157.000000, 8175.500000, 8152.500000
2107, 14691688.000000, 1015.875000, 8156.500000, 8178.000000, 8158.000000
2108, 14691848.000000, 971.375000, 8147.000000, 8175.500000, 8161.500000
2109, 14692008.000000, 991.625000, 8161.000000, 8187.000000, 8186.500000
2110, 14692168.000000, 1142.875000, 8160.000000, 8172.000000, 8165.000000
2111, 14692328.000000, 1441.250000, 8144.000000, 8171.000000, 8150.000000
2112, 14692488.000000, 1800.500000, 8143.500000, 8162.000000, 8143.000000
2113, 14692648.000000, 2116.875000, 8162.500000, 8202.000000, 8182.000000
2114, 14692808.000000, 2329.875000, 8344.500000, 8275.500000, 8355.500000
2115, 14692968.000000, 2423.250000, 8271.000000, 7935.500000, 8001.000000
2116, 14693128.000000, 2424.500000, 8013.500000, 7962.000000, 7870.500000
2117, 14693288.000000, 2358.375000, 8157.000000, 8182.500000, 8165.500000
2118, 14693448.000000, 2264.750000, 8183.000000, 8217.500000, 8211.000000
2119, 14693608.000000, 2157.500000, 8193.000000, 8215.000000, 8217.000000
2120, 14693768.000000, 2035.500000, 8200.000000, 8235.000000, 8237.500000
2121, 14693928.000000, 1906.750000, 8197.000000, 8245.000000, 8252.500000
2122, 14694088.000000, 1794.625000, 8231.000000, 8243.500000, 8263.500000
2123, 14694248.000000, 1722.875000, 8263.500000, 8261.000000, 8285.000000
2124, 14694408.000000, 1694.875000, 8272.500000, 8283.000000, 8316.500000
2125, 14694568.000000, 1700.750000, 8297.500000, 8280.500000, 8315.000000
2126, 14694728.000000, 1718.000000, 8286.500000, 8282.500000, 8319.500000
2127, 14694888.000000, 1734.500000, 8261.500000, 8261.000000, 8282.500000
2128, 14695048.000000, 1735.375000, 8208.000000, 8214.500000, 8218.000000
2129, 14695208.000000, 1715.500000, 8171.000000, 8183.000000, 8176.500000
2130, 14695368.000000, 1676.750000, 8153.000000, 8165.000000, 8148.500000
2131, 14695528.000000, 1627.875000, 8144.500000, 8154.500000, 8132.500000
2132, 14695688.000000, 1572.000000, 8140.500000, 8167.500000, 8148.500000
2133, 14695848.000000, 1512.000000, 8157.000000, 8161.500000, 8145.500000
2134, 14696008.000000, 1450.000000, 8170.500000, 8165.000000, 8152.000000
2135, 14696168.000000, 1391.625000, 8161.500000, 8186.000000, 8172.000000
2136, 14696328.000000, 1337.375000, 8169.500000, 8173.000000, 8161.500000
2137, 14696488.000000, 1284.250000, 8174.000000, 8166.000000, 8155.500000
2138, 14696648.000000, 1231.375000, 8179.500000, 8176.000000, 8166.000000
2139, 14696808.000000, 1196.875000, 8181.500000, 8179.000000, 8173.500000
2140, 14696968.000000, 1239.125000, 8185.000000, 8165.500000, 8155.500000
2141, 14697128.000000, 1437.000000, 8174.500000, 8158.500000, 8141.000000
2142, 14697288.000000, 1755.625000, 8183.500000, 8164.500000, 8143.500000
2143, 14697448.000000, 2098.625000, 8203.500000, 8236.000000, 8228.000000
2144, 14697608.000000, 2366.250000, 8454.000000, 8204.500000, 8318.500000
2145, 14697768.000000, 2532.375000, 8135.000000, 7951.000000, 7938.500000
2146, 14697928.000000, 2604.000000, 8100.000000, 8032.500000, 7954.500000
2147, 14698088.000000, 2596.625000, 8195.500000, 8190.000000, 8175.000000
2148, 14698248.000000, 2533.000000, 8209.000000, 8209.000000, 8199.000000
2149, 14698408.000000, 2419.500000, 8213.500000, 8219.500000, 8211.500000
2150, 14698568.000000, 2270.875000, 8221.000000, 8218.000000, 8217.500000
2151, 14698728.000000, 2104.500000, 8236.000000, 8235.500000, 8237.000000
2152, 14698888.000000, 1942.625000, 8253.500000, 8230.500000, 8239.500000
2153, 14699048.000000, 1811.500000, 8261.000000, 8240.000000, 8259.000000
2154, 14699208.000000, 1726.375000, 8287.000000, 8266.000000, 8288.000000
2155, 14699368.000000, 1692.875000, 8296.000000, 8261.500000, 8285.000000
2156, 14699528.000000, 1698.125000, 8289.000000, 8257.500000, 8279.000000
2157, 14699688.000000, 1720.625000, 8253.500000, 8231.000000, 8243.000000
2158, 14699848.000000, 1735.000000, 8195.000000, 8207.500000, 8195.000000
2159, 14700008.000000, 1726.000000, 8166.000000, 8188.500000, 8165.500000
2160, 14700168.000000, 1696.125000, 8152.500000, 8179.500000, 8149.500000
2161, 14700328.000000, 1655.750000, 8151.500000, 8179.000000, 8151.500000
2162, 14700488.000000, 1607.250000, 8158.000000, 8172.000000, 8144.000000
2163, 14700648.000000, 1547.375000, 8160.500000, 8178.000000, 8157.000000
2164, 14700808.000000, 1478.250000, 8166.500000, 8185.000000, 8168.500000
2165, 14700968.000000, 1404.875000, 8171.500000, 8193.500000, 8172.500000
2166, 14701128.000000, 1331.625000, 8184.000000, 8202.000000, 8186.000000
2167, 14701288.000000, 1262.500000, 8175.500000, 8209.000000, 8198.000000
2168, 14701448.000000, 1198.375000, 8178.500000, 8195.000000, 8181.500000
2169, 14701608.000000, 1175.250000, 8173.500000, 8199.500000, 8181.500000
2170, 14701768.000000, 1265.250000, 8162.500000, 8193.500000, 8162.000000
2171, 14701928.000000, 1497.625000, 8157.000000, 8184.500000, 8156.500000
2172, 14702088.000000, 1797.875000, 8207.000000, 8302.000000, 8306.000000
2173, 14702248.000000, 2079.000000, 8429.000000, 8116.000000, 8222.000000
2174, 14702408.000000, 2296.000000, 7991.000000, 7997.500000, 7922.000000
2175, 14702568.000000, 2424.875000, 8123.000000, 8122.000000, 8061.000000
2176, 14702728.000000, 2452.750000, 8185.500000, 8230.500000, 8209.500000
2177, 14702888.000000, 2404.875000, 8185.500000, 8228.500000, 8210.500000
2178, 14703048.000000, 2312.625000, 8197.500000, 8236.500000, 8218.500000
2179, 14703208.000000, 2198.375000, 8210.500000, 8243.000000, 8238.500000
2180, 14703368.000000, 2063.750000, 8229.000000, 8255.500000, 8253.500000
2181, 14703528.000000, 1919.375000, 8235.500000, 8255.500000, 8263.500000
2182, 14703688.000000, 1785.375000, 8256.000000, 8270.500000, 8284.000000
2183, 14703848.000000, 1686.000000, 8289.000000, 8280.000000, 8305.000000
2184, 14704008.000000, 1633.750000, 8299.500000, 8279.500000, 8299.000000
2185, 14704168.000000, 1622.625000, 8261.500000, 8273.000000, 8287.500000
2186, 14704328.000000, 1636.000000, 8216.000000, 8242.500000, 8244.500000
2187, 14704488.000000, 1651.500000, 8171.000000, 8205.000000, 8190.500000
2188, 14704648.000000, 1653.250000, 8136.000000, 8183.500000, 8161.500000
2189, 14704808.000000, 1631.500000, 8133.500000, 8175.500000, 8151.000000
2190, 14704968.000000, 1586.250000, 8132.500000, 8167.500000, 8143.500000
2191, 14705128.000000, 1527.375000, 8142.500000, 8179.500000, 8162.500000
2192, 14705288.000000, 1466.000000, 8160.000000, 8179.000000, 8166.000000
2193, 14705448.000000, 1406.000000, 8149.500000, 8182.500000, 8170.500000
2194, 14705608.000000, 1345.875000, 8155.500000, 8191.500000, 8178.500000
2195, 14705768.000000, 1281.750000, 8163.500000, 8186.000000, 8176.000000
2196, 14705928.000000, 1218.500000, 8158.000000, 8192.500000, 8180.000000
2197, 14706088.000000, 1180.375000, 8164.000000, 8201.500000, 8204.000000
2198, 14706248.000000, 1219.125000, 8175.000000, 8182.500000, 8183.000000
2199, 14706408.000000, 1383.000000, 8158.000000, 8192.500000, 8184.000000
2200, 14706568.000000, 1654.125000, 8162.000000, 8179.500000, 8163.000000
2201, 14706728.000000, 1941.625000, 8157.000000, 8194.000000, 8176.000000
2202, 14706888.000000, 2162.875000, 8281.500000, 8310.500000, 8356.000000
2203, 14707048.000000, 2282.375000, 8377.000000, 7967.000000, 8066.500000
2204, 14707208.000000, 2319.375000, 8005.000000, 7960.000000, 7874.000000
2205, 14707368.000000, 2291.750000, 8154.500000, 8180.000000, 8152.000000
2206, 14707528.000000, 2229.250000, 8187.500000, 8220.500000, 8214.000000
2207, 14707688.000000, 2149.125000, 8196.500000, 8235.500000, 8234.500000
2208, 14707848.000000, 2049.250000, 8193.000000, 8238.500000, 8239.500000
2209, 14708008.000000, 1927.500000, 8212.000000, 8248.500000, 8255.500000
2210, 14708168.000000, 1798.000000, 8237.000000, 8253.000000, 8267.000000
2211, 14708328.000000, 1689.250000, 8230.000000, 8266.000000, 8286.000000
2212, 14708488.000000, 1612.750000, 8272.000000, 8285.000000, 8315.000000
2213, 14708648.000000, 1582.250000, 8287.000000, 8292.500000, 8325.000000
2214, 14708808.000000, 1583.875000, 8279.000000, 8300.500000, 8334.500000
2215, 14708968.000000, 1602.000000, 8268.000000, 8262.000000, 8287.500000
2216, 14709128.000000, 1615.375000, 8215.500000, 8239.000000, 8244.500000
2217, 14709288.000000, 1616.125000, 8164.000000, 8201.000000, 8191.500000
2218, 14709448.000000, 1600.625000, 8145.500000, 8174.500000, 8156.500000
2219, 14709608.000000, 1566.375000, 8131.000000, 8169.500000, 8151.000000
2220, 14709768.000000, 1519.375000, 8137.500000, 8168.500000, 8147.500000
2221, 14709928.000000, 1466.875000, 8147.500000, 8170.000000, 8151.500000
2222, 14710088.000000, 1416.750000, 8153.500000, 8175.500000, 8163.000000
2223, 14710248.000000, 1375.625000, 8159.000000, 8176.000000, 8162.500000
2224, 14710408.000000, 1338.000000, 8162.500000, 8179.500000, 8168.500000
2225, 14710568.000000, 1296.750000, 8158.000000, 8182.000000, 8169.000000
2226, 14710728.000000, 1249.125000, 8153.500000, 8172.500000, 8163.000000
2227, 14710888.000000, 1236.000000, 8161.000000, 8170.500000, 8169.000000
2228, 14711048.000000, 1321.750000, 8172.000000, 8178.500000, 8170.500000
2229, 14711208.000000, 1562.875000, 8166.000000, 8172.500000, 8169.500000
2230, 14711368.000000, 1874.500000, 8169.000000, 8176.500000, 8168.500000
2231, 14711528.000000, 2160.500000, 8147.500000, 8164.500000, 8146.500000
2232, 14711688.000000, 2353.625000, 8162.500000, 8165.000000, 8148.500000
2233, 14711848.000000, 2446.875000, 8197.000000, 8285.000000, 8295.000000
2234, 14712008.000000, 2448.875000, 8467.500000, 8071.000000, 8206.500000
2235, 14712168.000000, 2384.125000, 8019.500000, 7881.500000, 7823.000000
2236, 14712328.000000, 2286.625000, 8117.500000, 8081.500000, 8023.500000
2237, 14712488.000000, 2178.500000, 8175.000000, 8205.000000, 8196.000000
2238, 14712648.000000, 2067.125000, 8180.500000, 8221.500000, 8217.500000
2239, 14712808.000000, 1946.375000, 8198.000000, 8225.000000, 8228.000000
2240, 14712968.000000, 1817.875000, 8199.500000, 8232.500000, 8243.500000
2241, 14713128.000000, 1705.000000, 8226.000000, 8238.000000, 8254.000000
2242, 14713288.000000, 1625.375000, 8236.000000, 8252.500000, 8273.000000
2243, 14713448.000000, 1589.625000, 8258.000000, 8273.500000, 8301.500000
2244, 14713608.000000, 1586.375000, 8288.500000, 8282.500000, 8324.000000
2245, 14713768.000000, 1596.500000, 8291.500000, 8289.000000, 8329.500000
2246, 14713928.000000, 1601.875000, 8279.000000, 8272.500000, 8305.500000
2247, 14714088.000000, 1595.250000, 8231.000000, 8239.500000, 8258.500000
2248, 14714248.000000, 1568.000000, 8184.000000, 8201.000000, 8196.000000
2249, 14714408.000000, 1522.875000, 8145.500000, 8175.000000, 8160.500000
2250, 14714568.000000, 1464.875000, 8134.500000, 8159.000000, 8138.000000
2251, 14714728.000000, 1400.125000, 8132.000000, 8159.500000, 8138.500000
2252, 14714888.000000, 1330.625000, 8133.500000, 8163.500000, 8141.000000
2253, 14715048.000000, 1267.000000, 8145.500000, 8171.500000, 8153.500000
2254, 14715208.000000, 1213.750000, 8143.500000, 8176.000000, 8165.000000
2255, 14715368.000000, 1169.375000, 8157.000000, 8170.500000, 8160.500000
2256, 14715528.000000, 1127.750000, 8154.000000, 8175.500000, 8162.500000
2257, 14715688.000000, 1082.375000, 8143.500000, 8183.000000, 8168.000000
2258, 14715848.000000, 1058.500000, 8156.000000, 8167.000000, 8152.500000
2259, 14716008.000000, 1143.500000, 8148.000000, 8171.500000, 8156.500000
2260, 14716168.000000, 1370.750000, 8153.000000, 8173.000000, 8160.000000
2261, 14716328.000000, 1703.250000, 8153.500000, 8169.500000, 8154.500000
2262, 14716488.000000, 2020.625000, 8153.500000, 8169.000000, 8157.000000
2263, 14716648.000000, 2236.250000, 8157.000000, 8177.000000, 8167.000000
2264, 14716808.000000, 2333.750000, 8168.500000, 8176.000000, 8171.500000
2265, 14716968.000000, 2338.500000, 8173.000000, 8179.000000, 8184.000000
2266, 14717128.000000, 2283.250000, 8155.000000, 8175.500000, 8172.000000
2267, 14717288.000000, 2185.500000, 8176.500000, 8173.500000, 8166.500000
2268, 14717448.000000, 2075.000000, 8158.000000, 8164.500000, 8152.500000
2269, 14717608.000000, 1969.250000, 8179.000000, 8196.000000, 8186.500000
2270, 14717768.000000, 1846.750000, 8331.000000, 8290.000000, 8360.500000
2271, 14717928.000000, 1724.625000, 8340.500000, 7830.500000, 7924.500000
2272, 14718088.000000, 1622.625000, 8018.500000, 7942.000000, 7842.000000
2273, 14718248.000000, 1556.875000, 8172.500000, 8202.500000, 8195.000000
2274, 14718408.000000, 1545.750000, 8182.000000, 8230.500000, 8232.000000
2275, 14718568.000000, 1567.750000, 8193.500000, 8247.500000, 8254.500000
2276, 14718728.000000, 1588.125000, 8201.500000, 8257.000000, 8266.000000
2277, 14718888.000000, 1577.375000, 8218.000000, 8254.500000, 8275.000000
2278, 14719048.000000, 1536.875000, 8234.000000, 8261.500000, 8284.500000
2279, 14719208.000000, 1492.125000, 8248.500000, 8290.000000, 8320.500000
2280, 14719368.000000, 1441.250000, 8274.500000, 8308.500000, 8351.500000
2281, 14719528.000000, 1384.625000, 8285.500000, 8331.500000, 8382.000000
2282, 14719688.000000, 1326.250000, 8290.000000, 8326.000000, 8370.500000
2283, 14719848.000000, 1273.125000, 8282.000000, 8305.500000, 8347.500000
2284, 14720008.000000, 1232.125000, 8225.000000, 8242.000000, 8260.000000
2285, 14720168.000000, 1198.500000, 8184.000000, 8199.000000, 8196.000000
2286, 14720328.000000, 1171.000000, 8142.000000, 8175.500000, 8161.500000
2287, 14720488.000000, 1153.875000, 8131.500000, 8172.000000, 8153.000000
2288, 14720648.000000, 1143.625000, 8140.500000, 8162.000000, 8144.000000
2289, 14720808.000000, 1135.500000, 8150.500000, 8168.000000, 8157.000000
2290, 14720968.000000, 1122.125000, 8149.000000, 8166.500000, 8161.500000
2291, 14721128.000000, 1100.125000, 8152.000000, 8170.000000, 8157.500000
2292, 14721288.000000, 1070.250000, 8147.000000, 8183.000000, 8171.500000
2293, 14721448.000000, 1076.375000, 8160.500000, 8175.500000, 8170.000000
2294, 14721608.000000, 1205.500000, 8148.000000, 8174.500000, 8163.500000
2295, 14721768.000000, 1504.375000, 8155.500000, 8163.500000, 8155.500000
2296, 14721928.000000, 1886.875000, 8159.000000, 8176.500000, 8161.500000
2297, 14722088.000000, 2229.125000, 8153.000000, 8163.500000, 8151.500000
2298, 14722248.000000, 2463.625000, 8152.000000, 8165.500000, 8152.000000
2299, 14722408.000000, 2568.500000, 8158.500000, 8164.500000, 8154.500000
2300, 14722568.000000, 2565.000000, 8157.000000, 8176.500000, 8160.500000
2301, 14722728.000000, 2487.875000, 8162.500000, 8157.000000, 8144.500000
2302, 14722888.000000, 2388.125000, 8163.000000, 8164.000000, 8154.000000
2303, 14723048.000000, 2292.250000, 8159.500000, 8172.000000, 8167.500000
2304, 14723208.000000, 2196.250000, 8168.000000, 8178.000000, 8177.000000
2305, 14723368.000000, 2093.250000, 8170.500000, 8178.000000, 8184.500000
2306, 14723528.000000, 1974.000000, 8174.500000, 8173.000000, 8174.500000
2307, 14723688.000000, 1857.500000, 8171.000000, 8163.500000, 8156.500000
2308, 14723848.000000, 1764.500000, 8158.000000, 8158.000000, 8151.000000
2309, 14724008.000000, 1708.000000, 8175.500000, 8236.000000, 8229.000000
2310, 14724168.000000, 1685.750000, 8415.000000, 8175.500000, 8289.500000
2311, 14724328.000000, 1686.875000, 8264.000000, 7713.500000, 7757.500000
2312, 14724488.000000, 1694.125000, 8060.500000, 7988.000000, 7900.500000
2313, 14724648.000000, 1692.500000, 8172.000000, 8213.500000, 8217.500000
2314, 14724808.000000, 1672.375000, 8192.000000, 8237.500000, 8243.500000
2315, 14724968.000000, 1634.750000, 8196.000000, 8247.000000, 8255.500000
2316, 14725128.000000, 1583.125000, 8201.000000, 8252.000000, 8268.000000
2317, 14725288.000000, 1524.375000, 8219.000000, 8261.000000, 8281.000000
2318, 14725448.000000, 1459.875000, 8234.500000, 8278.000000, 8302.000000
2319, 14725608.000000, 1395.125000, 8254.500000, 8289.000000, 8326.500000
2320, 14725768.000000, 1330.875000, 8279.000000, 8314.500000, 8358.500000
2321, 14725928.000000, 1274.500000, 8302.500000, 8321.500000, 8372.000000
2322, 14726088.000000, 1228.000000, 8297.000000, 8310.000000, 8363.000000
2323, 14726248.000000, 1191.875000, 8273.500000, 8282.000000, 8317.500000
2324, 14726408.000000, 1164.875000, 8215.500000, 8236.500000, 8252.500000
2325, 14726568.000000, 1144.625000, 8169.000000, 8179.500000, 8173.500000
2326, 14726728.000000, 1131.625000, 8140.000000, 8166.000000, 8144.500000
2327, 14726888.000000, 1124.125000, 8133.500000, 8158.000000, 8135.000000
2328, 14727048.000000, 1113.250000, 8135.500000, 8165.000000, 8140.000000
2329, 14727208.000000, 1099.875000, 8135.000000, 8160.500000, 8144.500000
2330, 14727368.000000, 1082.875000, 8153.500000, 8171.000000, 8148.500000
2331, 14727528.000000, 1055.875000, 8147.000000, 8168.500000, 8156.000000
2332, 14727688.000000, 1023.000000, 8146.000000, 8168.500000, 8155.000000
2333, 14727848.000000, 1023.125000, 8153.500000, 8167.500000, 8155.000000
2334, 14728008.000000, 1145.875000, 8152.000000, 8173.500000, 8155.500000
2335, 14728168.000000, 1430.625000, 8149.500000, 8165.000000, 8147.000000
2336, 14728328.000000, 1799.375000, 8141.000000, 8169.000000, 8151.500000
2337, 14728488.000000, 2127.500000, 8152.000000, 8170.000000, 8149.000000
2338, 14728648.000000, 2328.500000, 8143.000000, 8164.500000, 8147.000000
2339, 14728808.000000, 2392.750000, 8154.000000, 8171.000000, 8155.000000
2340, 14728968.000000, 2374.250000, 8158.500000, 8171.000000, 8149.000000
2341, 14729128.000000, 2311.500000, 8153.500000, 8169.500000, 8152.500000
2342, 14729288.000000, 2231.750000, 8147.000000, 8171.000000, 8156.000000
2343, 14729448.000000, 2148.375000, 8157.000000, 8177.000000, 8166.000000
2344, 14729608.000000, 2061.375000, 8170.000000, 8182.000000, 8167.000000
2345, 14729768.000000, 1964.750000, 8171.000000, 8187.500000, 8185.000000
2346, 14729928.000000, 1852.250000, 8163.500000, 8190.500000, 8193.500000
2347, 14730088.000000, 1742.375000, 8175.500000, 8185.500000, 8188.500000
2348, 14730248.000000, 1658.125000, 8168.500000, 8188.500000, 8184.500000
2349, 14730408.000000, 1611.875000, 8167.000000, 8179.000000, 8166.000000
2350, 14730568.000000, 1601.625000, 8158.000000, 8180.500000, 8173.000000
2351, 14730728.000000, 1619.625000, 8238.000000, 8351.500000, 8381.500000
2352, 14730888.000000, 1640.875000, 8483.000000, 7792.000000, 7956.000000
2353, 14731048.000000, 1652.625000, 7966.000000, 7857.000000, 7742.500000
2354, 14731208.000000, 1645.000000, 8171.500000, 8191.500000, 8170.000000
2355, 14731368.000000, 1618.875000, 8184.000000, 8249.000000, 8249.000000
2356, 14731528.000000, 1577.500000, 8181.500000, 8269.500000, 8273.500000
2357, 14731688.000000, 1526.500000, 8207.000000, 8266.000000, 8276.000000
2358, 14731848.000000, 1476.500000, 8209.000000, 8278.500000, 8296.000000
2359, 14732008.000000, 1427.125000, 8230.500000, 8286.000000, 8311.500000
2360, 14732168.000000, 1384.250000, 8239.000000, 8304.000000, 8338.500000
2361, 14732328.000000, 1352.125000, 8270.500000, 8321.500000, 8365.500000
2362, 14732488.000000, 1328.125000, 8297.500000, 8345.500000, 8398.000000
2363, 14732648.000000, 1312.875000, 8298.000000, 8347.000000, 8405.000000
2364, 14732808.000000, 1302.500000, 8292.500000, 8330.500000, 8383.500000
2365, 14732968.000000, 1291.875000, 8259.500000, 8269.500000, 8303.500000
2366, 14733128.000000, 1278.500000, 8189.000000, 8228.000000, 8238.000000
2367, 14733288.000000, 1269.125000, 8138.000000, 8189.500000, 8179.000000
2368, 14733448.000000, 1262.875000, 8140.500000, 8158.000000, 8139.000000
2369, 14733608.000000, 1258.750000, 8130.000000, 8173.500000, 8152.500000
2370, 14733768.000000, 1255.125000, 8137.000000, 8161.500000, 8144.500000
2371, 14733928.000000, 1256.625000, 8139.500000, 8162.500000, 8146.000000
2372, 14734088.000000, 1259.875000, 8148.500000, 8169.500000, 8160.000000
2373, 14734248.000000, 1254.500000, 8140.000000, 8177.500000, 8164.500000
2374, 14734408.000000, 1238.750000, 8150.500000, 8173.000000, 8164.500000
2375, 14734568.000000, 1260.250000, 8151.000000, 8167.500000, 8157.500000
2376, 14734728.000000, 1432.125000, 8145.000000, 8168.500000, 8154.500000
2377, 14734888.000000, 1773.000000, 8137.000000, 8171.500000, 8161.000000
2378, 14735048.000000, 2186.125000, 8156.500000, 8162.000000, 8148.500000
2379, 14735208.000000, 2517.500000, 8155.000000, 8166.000000, 8151.000000
2380, 14735368.000000, 2715.000000, 8153.000000, 8165.000000, 8150.500000
2381, 14735528.000000, 2779.250000, 8153.000000, 8171.000000, 8157.500000
2382, 14735688.000000, 2750.250000, 8157.500000, 8172.000000, 8155.000000
2383, 14735848.000000, 2661.750000, 8152.000000, 8164.500000, 8152.000000
2384, 14736008.000000, 2549.125000, 8162.000000, 8167.500000, 8155.000000
2385, 14736168.000000, 2433.875000, 8167.500000, 8178.500000, 8173.500000
2386, 14736328.000000, 2321.500000, 8165.000000, 8181.000000, 8181.000000
2387, 14736488.000000, 2206.375000, 8177.000000, 8176.500000, 8179.500000
2388, 14736648.000000, 2080.875000, 8176.000000, 8178.000000, 8176.500000
2389, 14736808.000000, 1960.250000, 8161.000000, 8178.000000, 8164.500000
2390, 14736968.000000, 1864.500000, 8166.500000, 8163.500000, 8153.000000
2391, 14737128.000000, 1807.625000, 8181.000000, 8286.500000, 8279.500000
2392, 14737288.000000, 1790.250000, 8544.000000, 7983.500000, 8147.000000
2393, 14737448.000000, 1802.375000, 8107.500000, 7701.500000, 7670.500000
2394, 14737608.000000, 1822.625000, 8108.000000, 8087.500000, 8023.500000
2395, 14737768.000000, 1830.000000, 8177.500000, 8237.000000, 8237.000000
2396, 14737928.000000, 1813.250000, 8184.000000, 8256.000000, 8260.000000
2397, 14738088.000000, 1771.500000, 8201.000000, 8258.500000, 8267.500000
2398, 14738248.000000, 1719.125000, 8205.000000, 8266.500000, 8280.000000
2399, 14738408.000000, 1661.625000, 8231.000000, 8265.500000, 8288.500000
2400, 14738568.000000, 1603.125000, 8250.000000, 8281.000000, 8309.500000
2401, 14738728.000000, 1547.875000, 8267.000000, 8294.500000, 8334.500000
2402, 14738888.000000, 1496.500000, 8289.500000, 8318.000000, 8368.000000
2403, 14739048.000000, 1450.375000, 8321.500000, 8316.000000, 8373.500000
2404, 14739208.000000, 1411.375000, 8318.500000, 8311.500000, 8366.000000
2405, 14739368.000000, 1380.125000, 8279.000000, 8272.500000, 8312.500000
2406, 14739528.000000, 1352.625000, 8207.000000, 8224.500000, 8238.500000
2407, 14739688.000000, 1328.375000, 8158.000000, 8178.000000, 8170.500000
2408, 14739848.000000, 1309.125000, 8129.000000, 8162.000000, 8136.500000
2409, 14740008.000000, 1293.250000, 8127.000000, 8164.500000, 8136.500000
2410, 14740168.000000, 1276.375000, 8119.000000, 8163.000000, 8138.500000
2411, 14740328.000000, 1262.250000, 8130.000000, 8160.000000, 8140.000000
2412, 14740488.000000, 1250.375000, 8138.500000, 8167.000000, 8150.500000
2413, 14740648.000000, 1236.250000, 8152.000000, 8163.000000, 8144.000000
2414, 14740808.000000, 1214.625000, 8147.500000, 8171.000000, 8153.000000
2415, 14740968.000000, 1194.750000, 8138.000000, 8170.000000, 8154.000000
2416, 14741128.000000, 1257.625000, 8139.000000, 8164.500000, 8145.500000
2417, 14741288.000000, 1481.250000, 8140.500000, 8165.000000, 8144.000000
2418, 14741448.000000, 1838.500000, 8136.000000, 8163.500000, 8142.500000
2419, 14741608.000000, 2208.000000, 8141.000000, 8168.000000, 8151.500000
2420, 14741768.000000, 2484.875000, 8138.000000, 8172.000000, 8155.000000
2421, 14741928.000000, 2614.125000, 8147.500000, 8165.000000, 8147.500000
2422, 14742088.000000, 2624.250000, 8152.500000, 8170.000000, 8151.000000
2423, 14742248.000000, 2549.000000, 8145.500000, 8171.000000, 8157.500000
2424, 14742408.000000, 2439.375000, 8154.500000, 8184.000000, 8179.500000
2425, 14742568.000000, 2328.125000, 8165.000000, 8176.500000, 8176.500000
2426, 14742728.000000, 2221.875000, 8165.000000, 8176.500000, 8178.500000
2427, 14742888.000000, 2115.500000, 8157.000000, 8184.500000, 8181.500000
2428, 14743048.000000, 2002.500000, 8147.000000, 8176.500000, 8162.000000
2429, 14743208.000000, 1899.875000, 8159.500000, 8179.500000, 8169.000000
2430, 14743368.000000, 1824.375000, 8221.000000, 8353.500000, 8374.000000
2431, 14743528.000000, 1784.375000, 8578.500000, 7774.000000, 7976.500000
2432, 14743688.000000, 1780.750000, 7971.500000, 7837.000000, 7728.500000
2433, 14743848.000000, 1802.500000, 8148.000000, 8201.500000, 8171.500000
2434, 14744008.000000, 1831.125000, 8188.500000, 8262.500000, 8261.500000
2435, 14744168.000000, 1847.875000, 8182.500000, 8268.500000, 8273.500000
2436, 14744328.000000, 1846.250000, 8185.500000, 8277.000000, 8288.000000
2437, 14744488.000000, 1826.750000, 8212.500000, 8249.000000, 8270.500000
2438, 14744648.000000, 1793.000000, 8216.000000, 8252.000000, 8286.000000
2439, 14744808.000000, 1750.750000, 8237.000000, 8258.000000, 8302.000000
2440, 14744968.000000, 1704.875000, 8263.000000, 8278.000000, 8337.000000
2441, 14745128.000000, 1663.625000, 8292.000000, 8294.500000, 8361.000000
2442, 14745288.000000, 1626.000000, 8303.500000, 8296.500000, 8365.000000
2443, 14745448.000000, 1586.000000, 8283.000000, 8278.500000, 8341.500000
2444, 14745608.000000, 1546.125000, 8246.500000, 8226.500000, 8273.000000
2445, 14745768.000000, 1510.250000, 8186.500000, 8168.000000, 8190.000000
2446, 14745928.000000, 1477.625000, 8126.000000, 8138.500000, 8137.500000
2447, 14746088.000000, 1452.375000, 8103.000000, 8116.000000, 8100.000000
2448, 14746248.000000, 1435.375000, 8104.500000, 8118.500000, 8105.500000
2449, 14746408.000000, 1729.000000, 8119.500000, 8121.500000, 8108.500000
2450, 14746568.000000, 1993.625000, 8121.500000, 8123.500000, 8113.000000
2451, 14746728.000000, 2038.375000, 8123.000000, 8137.500000, 8123.000000
2452, 14746888.000000, 2047.125000, 8134.000000, 8134.000000, 8120.500000
2453, 14747048.000000, 2048.000000, 8136.000000, 8134.000000, 8126.000000
2454, 14747208.000000, 2048.000000, 8136.500000, 8131.000000, 8118.500000
2455, 14747368.000000, 2048.000000, 8127.500000, 8138.500000, 8125.000000
2456, 14747528.000000, 2048.000000, 8133.000000, 8143.000000, 8128.000000
2457, 14747688.000000, 2048.000000, 8135.000000, 8145.000000, 8129.500000
2458, 14747848.000000, 2048.000000, 8137.500000, 8140.500000, 8122.500000
2459, 14748008.000000, 2048.000000, 8143.000000, 8148.500000, 8138.500000
2460, 14748168.000000, 2048.000000, 8142.000000, 8143.500000, 8131.500000
2461, 14748328.000000, 2048.000000, 8150.000000, 8152.500000, 8149.000000
2462, 14748488.000000, 2048.000000, 8152.500000, 8166.000000, 8161.000000
2463, 14748648.000000, 2048.000000, 8164.000000, 8156.000000, 8163.000000
2464, 14748808.000000, 2021.750000, 8162.000000, 8162.000000, 8154.500000
2465, 14748968.000000, 1944.500000, 8155.000000, 8147.000000, 8132.500000
2466, 14749128.000000, 1843.625000, 8146.000000, 8154.500000, 8142.000000
2467, 14749288.000000, 1737.375000, 8197.000000, 8305.000000, 8299.500000
2468, 14749448.000000, 1642.250000, 8649.000000, 7846.000000, 8071.000000
2469, 14749608.000000, 1580.750000, 7998.500000, 7779.500000, 7694.000000
2470, 14749768.000000, 1561.750000, 8133.500000, 8136.000000, 8087.000000
2471, 14749928.000000, 1589.625000, 8180.500000, 8229.000000, 8221.000000
2472, 14750088.000000, 1645.125000, 8190.500000, 8246.000000, 8244.000000
2473, 14750248.000000, 1704.125000, 8199.000000, 8248.500000, 8258.500000
2474, 14750408.000000, 1745.125000, 8225.000000, 8258.000000, 8270.000000
2475, 14750568.000000, 1758.625000, 8227.000000, 8266.500000, 8287.000000
2476, 14750728.000000, 1750.750000, 8255.500000, 8287.000000, 8316.000000
2477, 14750888.000000, 1720.250000, 8296.000000, 8293.000000, 8332.000000
2478, 14751048.000000, 1679.750000, 8321.500000, 8301.000000, 8354.500000
2479, 14751208.000000, 1637.000000, 8335.000000, 8305.000000, 8361.000000
2480, 14751368.000000, 1594.875000, 8327.500000, 8293.000000, 8343.500000
2481, 14751528.000000, 1551.375000, 8282.000000, 8252.000000, 8286.000000
2482, 14751688.000000, 1509.250000, 8215.500000, 8218.500000, 8219.500000
2483, 14751848.000000, 1478.125000, 8167.000000, 8182.500000, 8158.500000
2484, 14752008.000000, 1452.750000, 8143.000000, 8168.500000, 8134.000000
2485, 14752168.000000, 1430.625000, 8138.000000, 8166.000000, 8129.000000
2486, 14752328.000000, 1415.250000, 8144.500000, 8177.500000, 8147.000000
2487, 14752488.000000, 1403.750000, 8153.000000, 8205.000000, 8179.500000
2488, 14752648.000000, 1400.875000, 8161.000000, 8211.500000, 8182.000000
2489, 14752808.000000, 1396.750000, 8168.500000, 8204.500000, 8180.500000
2490, 14752968.000000, 1385.125000, 8168.000000, 8210.500000, 8177.000000
2491, 14753128.000000, 1372.125000, 8159.500000, 8209.500000, 8176.000000
2492, 14753288.000000, 1407.375000, 8152.500000, 8208.000000, 8176.000000
2493, 14753448.000000, 1588.875000, 8157.000000, 8208.500000, 8178.500000
2494, 14753608.000000, 1911.000000, 8163.500000, 8204.500000, 8168.500000
2495, 14753768.000000, 2284.750000, 8162.000000, 8210.000000, 8181.000000
2496, 14753928.000000, 2579.000000, 8166.000000, 8214.500000, 8191.500000
2497, 14754088.000000, 2751.125000, 8174.000000, 8225.000000, 8213.500000
2498, 14754248.000000, 2811.000000, 8186.500000, 8215.500000, 8195.500000
2499, 14754408.000000, 2782.000000, 8167.500000, 8197.000000, 8171.000000
2500, 14754568.000000, 2697.500000, 8162.500000, 8193.500000, 8167.500000
2501, 14754728.000000, 2582.000000, 8160.500000, 8217.500000, 8179.500000
2502, 14754888.000000, 2458.750000, 8338.500000, 8323.000000, 8378.500000
2503, 14755048.000000, 2332.500000, 8546.000000, 7754.500000, 7930.500000
2504, 14755208.000000, 2201.750000, 7983.000000, 7937.500000, 7808.500000
2505, 14755368.000000, 2084.750000, 8169.500000, 8216.000000, 8190.000000
2506, 14755528.000000, 1998.125000, 8183.500000, 8255.000000, 8243.500000
2507, 14755688.000000, 1958.625000, 8192.000000, 8267.500000, 8266.500000
2508, 14755848.000000, 1958.250000, 8199.500000, 8270.500000, 8276.500000
2509, 14756008.000000, 1989.375000, 8223.500000, 8276.000000, 8291.000000
2510, 14756168.000000, 2030.000000, 8239.000000, 8283.000000, 8310.500000
2511, 14756328.000000, 2064.875000, 8252.000000, 8294.500000, 8327.500000
2512, 14756488.000000, 2077.875000, 8289.500000, 8320.000000, 8367.000000
2513, 14756648.000000, 2066.375000, 8309.500000, 8326.000000, 8378.500000
2514, 14756808.000000, 2039.125000, 8309.000000, 8328.000000, 8385.000000
2515, 14756968.000000, 1998.375000, 8296.500000, 8283.500000, 8332.500000
2516, 14757128.000000, 1950.250000, 8232.500000, 8230.500000, 8250.500000
2517, 14757288.000000, 1894.625000, 8162.000000, 8181.500000, 8178.000000
2518, 14757448.000000, 1834.875000, 8129.500000, 8147.000000, 8130.000000
2519, 14757608.000000, 1776.875000, 8114.000000, 8139.000000, 8120.500000
2520, 14757768.000000, 1731.875000, 8126.000000, 8137.500000, 8113.500000
2521, 14757928.000000, 1693.250000, 8123.500000, 8135.500000, 8120.000000
2522, 14758088.000000, 1659.750000, 8144.000000, 8144.000000, 8130.000000
2523, 14758248.000000, 1635.375000, 8138.000000, 8141.000000, 8128.500000
2524, 14758408.000000, 1611.625000, 8152.000000, 8136.000000, 8126.000000
2525, 14758568.000000, 1581.250000, 8148.500000, 8141.500000, 8132.000000
2526, 14758728.000000, 1548.500000, 8151.500000, 8144.000000, 8130.000000
2527, 14758888.000000, 1570.125000, 8134.500000, 8149.500000, 8130.500000
2528, 14759048.000000, 1749.625000, 8155.500000, 8151.000000, 8146.000000
2529, 14759208.000000, 2101.125000, 8159.000000, 8157.000000, 8159.000000
2530, 14759368.000000, 2529.125000, 8163.000000, 8152.500000, 8152.500000
2531, 14759528.000000, 2883.750000, 8153.500000, 8157.000000, 8145.000000
2532, 14759688.000000, 3102.625000, 8153.500000, 8144.000000, 8127.500000
2533, 14759848.000000, 3171.000000, 8156.000000, 8148.000000, 8132.000000
2534, 14760008.000000, 3137.875000, 8195.000000, 8305.500000, 8314.500000
2535, 14760168.000000, 3041.250000, 8602.000000, 7864.500000, 8055.000000
2536, 14760328.000000, 2915.375000, 7978.500000, 7812.500000, 7727.500000
2537, 14760488.000000, 2777.750000, 8133.000000, 8124.000000, 8069.000000
2538, 14760648.000000, 2632.625000, 8170.000000, 8216.000000, 8204.500000
2539, 14760808.000000, 2488.000000, 8187.500000, 8231.500000, 8233.500000
2540, 14760968.000000, 2358.625000, 8197.500000, 8266.500000, 8269.000000
2541, 14761128.000000, 2266.250000, 8219.500000, 8277.500000, 8288.000000
2542, 14761288.000000, 2222.750000, 8237.500000, 8287.500000, 8302.000000
2543, 14761448.000000, 2229.625000, 8250.500000, 8297.000000, 8322.000000
2544, 14761608.000000, 2266.250000, 8282.000000, 8317.000000, 8350.000000
2545, 14761768.000000, 2307.750000, 8305.000000, 8328.000000, 8370.500000
2546, 14761928.000000, 2332.375000, 8314.000000, 8330.000000, 8376.500000
2547, 14762088.000000, 2330.875000, 8297.000000, 8316.000000, 8355.000000
2548, 14762248.000000, 2302.625000, 8253.500000, 8273.500000, 8292.500000
2549, 14762408.000000, 2248.000000, 8198.500000, 8210.000000, 8209.500000
2550, 14762568.000000, 2177.250000, 8149.500000, 8186.500000, 8168.500000
2551, 14762728.000000, 2100.625000, 8132.500000, 8175.500000, 8150.500000
2552, 14762888.000000, 2026.500000, 8131.500000, 8178.500000, 8156.500000
2553, 14763048.000000, 1956.500000, 8145.000000, 8176.500000, 8157.500000
2554, 14763208.000000, 1892.125000, 8150.500000, 8176.500000, 8162.000000
2555, 14763368.000000, 1835.875000, 8155.500000, 8177.500000, 8163.500000
2556, 14763528.000000, 1786.500000, 8163.500000, 8182.500000, 8163.500000
2557, 14763688.000000, 1733.625000, 8159.500000, 8184.000000, 8169.500000
2558, 14763848.000000, 1674.000000, 8164.500000, 8184.000000, 8175.000000
2559, 14764008.000000, 1633.125000, 8169.500000, 8187.500000, 8189.500000
2560, 14764168.000000, 1714.750000, 8170.500000, 8180.000000, 8176.000000
2561, 14764328.000000, 1985.375000, 8155.500000, 8178.000000, 8156.000000
2562, 14764488.000000, 2396.375000, 8155.000000, 8171.000000, 8152.000000
2563, 14764648.000000, 2789.500000, 8153.500000, 8210.500000, 8181.000000
2564, 14764808.000000, 3075.375000, 8354.000000, 8294.500000, 8365.500000
2565, 14764968.000000, 3217.500000, 8369.000000, 7813.000000, 7924.000000
2566, 14765128.000000, 3246.625000, 7989.500000, 7941.000000, 7818.500000
2567, 14765288.000000, 3199.250000, 8167.000000, 8206.500000, 8182.500000
2568, 14765448.000000, 3099.000000, 8184.500000, 8244.500000, 8226.000000
2569, 14765608.000000, 2967.750000, 8193.500000, 8243.000000, 8235.500000
2570, 14765768.000000, 2816.000000, 8204.000000, 8253.500000, 8247.000000
2571, 14765928.000000, 2654.375000, 8228.000000, 8254.500000, 8260.500000
2572, 14766088.000000, 2498.125000, 8252.000000, 8272.500000, 8277.500000
2573, 14766248.000000, 2373.750000, 8268.000000, 8286.000000, 8306.000000
2574, 14766408.000000, 2301.375000, 8297.000000, 8289.000000, 8320.000000
2575, 14766568.000000, 2284.625000, 8321.500000, 8298.000000, 8336.500000
2576, 14766728.000000, 2300.250000, 8313.500000, 8299.000000, 8337.000000
2577, 14766888.000000, 2324.000000, 8294.500000, 8282.000000, 8305.000000
2578, 14767048.000000, 2335.750000, 8227.000000, 8235.000000, 8236.500000
2579, 14767208.000000, 2321.750000, 8157.500000, 8205.000000, 8182.500000
2580, 14767368.000000, 2284.625000, 8131.500000, 8184.500000, 8148.500000
2581, 14767528.000000, 2231.625000, 8117.000000, 8176.500000, 8140.000000
2582, 14767688.000000, 2177.375000, 8130.000000, 8177.000000, 8145.000000
2583, 14767848.000000, 2128.125000, 8135.000000, 8187.500000, 8162.000000
2584, 14768008.000000, 2074.125000, 8153.000000, 8179.500000, 8159.500000
2585, 14768168.000000, 2008.250000, 8154.500000, 8185.000000, 8159.500000
2586, 14768328.000000, 1927.750000, 8140.500000, 8182.000000, 8167.000000
2587, 14768488.000000, 1845.000000, 8155.500000, 8195.500000, 8180.500000
2588, 14768648.000000, 1771.875000, 8169.500000, 8190.500000, 8180.000000
2589, 14768808.000000, 1761.125000, 8154.500000, 8181.000000, 8175.500000
2590, 14768968.000000, 1897.000000, 8164.000000, 8184.500000, 8166.000000
2591, 14769128.000000, 2204.250000, 8153.500000, 8175.000000, 8153.500000
2592, 14769288.000000, 2593.375000, 8150.000000, 8184.000000, 8160.000000
2593, 14769448.000000, 2953.375000, 8181.000000, 8306.000000, 8299.000000
2594, 14769608.000000, 3215.125000, 8559.500000, 7939.500000, 8116.500000
2595, 14769768.000000, 3348.375000, 7982.500000, 7784.500000, 7707.000000
2596, 14769928.000000, 3377.375000, 8121.500000, 8122.000000, 8060.500000
2597, 14770088.000000, 3327.125000, 8175.000000, 8242.000000, 8230.000000
2598, 14770248.000000, 3242.875000, 8182.000000, 8267.500000, 8265.000000
2599, 14770408.000000, 3132.375000, 8191.000000, 8264.000000, 8268.500000
2600, 14770568.000000, 2993.500000, 8195.500000, 8270.000000, 8278.000000
2601, 14770728.000000, 2842.500000, 8227.500000, 8282.500000, 8299.000000
2602, 14770888.000000, 2707.250000, 8240.000000, 8297.000000, 8322.000000
2603, 14771048.000000, 2604.125000, 8278.500000, 8314.500000, 8351.500000
2604, 14771208.000000, 2538.500000, 8293.500000, 8329.000000, 8376.500000
2605, 14771368.000000, 2520.750000, 8307.000000, 8334.500000, 8383.000000
2606, 14771528.000000, 2527.875000, 8292.000000, 8314.000000, 8355.500000
2607, 14771688.000000, 2539.625000, 8239.000000, 8275.000000, 8298.500000
2608, 14771848.000000, 2522.375000, 8173.500000, 8224.000000, 8221.000000
2609, 14772008.000000, 2480.250000, 8140.500000, 8176.500000, 8159.500000
2610, 14772168.000000, 2419.625000, 8127.000000, 8167.000000, 8141.000000
2611, 14772328.000000, 2347.250000, 8120.000000, 8165.500000, 8137.000000
2612, 14772488.000000, 2271.125000, 8134.500000, 8173.000000, 8151.000000
2613, 14772648.000000, 2194.875000, 8142.500000, 8175.000000, 8155.500000
2614, 14772808.000000, 2119.250000, 8152.000000, 8169.000000, 8153.500000
2615, 14772968.000000, 2043.625000, 8144.000000, 8172.500000, 8158.500000
2616, 14773128.000000, 1958.625000, 8157.000000, 8164.500000, 8146.500000
2617, 14773288.000000, 1871.000000, 8154.500000, 8176.500000, 8167.000000
2618, 14773448.000000, 1818.625000, 8163.500000, 8186.000000, 8181.500000
2619, 14773608.000000, 1904.125000, 8160.500000, 8178.000000, 8176.500000
2620, 14773768.000000, 2177.500000, 8153.500000, 8173.500000, 8163.000000
2621, 14773928.000000, 2595.000000, 8149.000000, 8164.500000, 8144.000000
2622, 14774088.000000, 3004.250000, 8151.000000, 8164.000000, 8139.000000
2623, 14774248.000000, 3305.625000, 8174.500000, 8297.000000, 8280.000000
2624, 14774408.000000, 3470.625000, 8558.000000, 7938.000000, 8113.000000
2625, 14774568.000000, 3520.375000, 8011.500000, 7735.500000, 7665.500000
2626, 14774728.000000, 3477.625000, 8112.500000, 8108.500000, 8044.000000
2627, 14774888.000000, 3373.375000, 8164.000000, 8233.500000, 8221.000000
2628, 14775048.000000, 3235.125000, 8170.000000, 8251.500000, 8244.500000
2629, 14775208.000000, 3069.875000, 8195.000000, 8253.500000, 8255.500000
2630, 14775368.000000, 2887.750000, 8210.500000, 8251.000000, 8260.500000
2631, 14775528.000000, 2710.750000, 8228.500000, 8268.000000, 8282.500000
2632, 14775688.000000, 2566.250000, 8246.500000, 8280.500000, 8303.500000
2633, 14775848.000000, 2471.500000, 8281.500000, 8303.000000, 8337.500000
2634, 14776008.000000, 2422.625000, 8295.000000, 8308.000000, 8352.000000
2635, 14776168.000000, 2405.125000, 8316.500000, 8309.500000, 8359.500000
2636, 14776328.000000, 2396.000000, 8300.500000, 8299.500000, 8337.000000
2637, 14776488.000000, 2370.500000, 8247.000000, 8257.500000, 8282.500000
2638, 14776648.000000, 2329.375000, 8173.500000, 8217.500000, 8211.500000
2639, 14776808.000000, 2269.875000, 8138.000000, 8173.000000, 8151.000000
2640, 14776968.000000, 2188.625000, 8121.500000, 8165.500000, 8135.500000
2641, 14777128.000000, 2095.000000, 8125.000000, 8169.000000, 8139.500000
2642, 14777288.000000, 1994.875000, 8135.000000, 8172.500000, 8147.500000
2643, 14777448.000000, 1892.375000, 8151.500000, 8178.500000, 8150.500000
2644, 14777608.000000, 1793.375000, 8147.500000, 8179.000000, 8154.500000
2645, 14777768.000000, 1704.125000, 8162.000000, 8170.500000, 8144.000000
2646, 14777928.000000, 1616.500000, 8165.500000, 8177.500000, 8146.500000
2647, 14778088.000000, 1529.375000, 8155.000000, 8178.000000, 8149.500000
2648, 14778248.000000, 1492.625000, 8160.000000, 8185.000000, 8164.000000
2649, 14778408.000000, 1598.625000, 8172.500000, 8196.000000, 8182.500000
2650, 14778568.000000, 1890.125000, 8166.000000, 8181.500000, 8164.500000
2651, 14778728.000000, 2293.000000, 8160.500000, 8179.500000, 8151.000000
2652, 14778888.000000, 2689.875000, 8154.000000, 8169.500000, 8133.500000
2653, 14779048.000000, 2987.500000, 8157.000000, 8176.000000, 8144.000000
2654, 14779208.000000, 3155.875000, 8216.000000, 8326.500000, 8332.000000
2655, 14779368.000000, 3200.625000, 8573.500000, 7804.000000, 7990.500000
2656, 14779528.000000, 3163.375000, 7941.000000, 7827.000000, 7705.000000
2657, 14779688.000000, 3078.625000, 8150.000000, 8182.500000, 8147.500000
2658, 14779848.000000, 2966.750000, 8174.000000, 8230.500000, 8228.500000
2659, 14780008.000000, 2828.250000, 8175.500000, 8256.000000, 8252.000000
2660, 14780168.000000, 2662.625000, 8181.000000, 8260.000000, 8266.000000
2661, 14780328.000000, 2497.625000, 8196.500000, 8268.000000, 8277.000000
2662, 14780488.000000, 2363.875000, 8212.500000, 8279.000000, 8303.500000
2663, 14780648.000000, 2277.375000, 8235.000000, 8292.500000, 8324.000000
2664, 14780808.000000, 2240.375000, 8272.500000, 8312.000000, 8358.000000
2665, 14780968.000000, 2233.375000, 8290.500000, 8323.000000, 8379.500000
2666, 14781128.000000, 2233.750000, 8296.500000, 8329.500000, 8386.000000
2667, 14781288.000000, 2222.000000, 8279.000000, 8304.500000, 8354.500000
2668, 14781448.000000, 2189.500000, 8220.000000, 8258.000000, 8289.500000
2669, 14781608.000000, 2132.750000, 8156.000000, 8212.500000, 8216.500000
2670, 14781768.000000, 2059.125000, 8103.500000, 8189.000000, 8169.500000
2671, 14781928.000000, 1978.375000, 8104.500000, 8172.500000, 8152.500000
2672, 14782088.000000, 1893.875000, 8112.000000, 8177.500000, 8158.500000
2673, 14782248.000000, 1813.000000, 8120.500000, 8171.500000, 8160.000000
2674, 14782408.000000, 1734.250000, 8142.000000, 8171.500000, 8160.500000
2675, 14782568.000000, 1659.250000, 8125.500000, 8186.500000, 8175.500000
2676, 14782728.000000, 1586.125000, 8141.500000, 8174.000000, 8166.500000
2677, 14782888.000000, 1508.000000, 8136.000000, 8168.500000, 8155.500000
2678, 14783048.000000, 1439.125000, 8133.000000, 8175.000000, 8163.000000
2679, 14783208.000000, 1439.375000, 8141.000000, 8184.500000, 8180.500000
2680, 14783368.000000, 1605.125000, 8145.000000, 8178.500000, 8182.000000
2681, 14783528.000000, 1944.000000, 8139.500000, 8189.000000, 8183.500000
2682, 14783688.000000, 2372.375000, 8135.500000, 8171.500000, 8161.500000
2683, 14783848.000000, 2770.000000, 8129.500000, 8155.500000, 8136.000000
2684, 14784008.000000, 3068.000000, 8135.000000, 8177.000000, 8152.500000
2685, 14784168.000000, 3220.375000, 8249.500000, 8321.000000, 8358.500000
2686, 14784328.000000, 3252.250000, 8579.000000, 7620.500000, 7821.500000
2687, 14784488.000000, 3199.250000, 7961.000000, 7864.500000, 7735.500000
2688, 14784648.000000, 3101.250000, 8135.000000, 8200.000000, 8182.000000
2689, 14784808.000000, 2977.625000, 8159.000000, 8242.000000, 8233.000000
2690, 14784968.000000, 2829.000000, 8168.500000, 8252.500000, 8250.000000
2691, 14785128.000000, 2661.875000, 8189.500000, 8260.000000, 8265.000000
2692, 14785288.000000, 2495.625000, 8203.500000, 8266.000000, 8279.000000
2693, 14785448.000000, 2358.375000, 8219.000000, 8272.000000, 8289.000000
2694, 14785608.000000, 2261.375000, 8247.000000, 8285.500000, 8312.500000
2695, 14785768.000000, 2204.625000, 8265.500000, 8304.500000, 8341.500000
2696, 14785928.000000, 2181.250000, 8296.000000, 8314.000000, 8358.500000
2697, 14786088.000000, 2165.625000, 8293.500000, 8315.500000, 8358.000000
2698, 14786248.000000, 2143.125000, 8277.000000, 8278.000000, 8313.500000
2699, 14786408.000000, 2095.000000, 8218.500000, 8230.500000, 8241.500000
2700, 14786568.000000, 2021.625000, 8162.500000, 8185.000000, 8171.500000
2701, 14786728.000000, 1929.625000, 8121.000000, 8160.000000, 8129.000000
2702, 14786888.000000, 1832.250000, 8114.000000, 8150.500000, 8119.000000
2703, 14787048.000000, 1737.250000, 8121.000000, 8154.500000, 8123.500000
2704, 14787208.000000, 1643.500000, 8138.500000, 8147.000000, 8119.000000
2705, 14787368.000000, 1555.125000, 8138.000000, 8153.000000, 8130.000000
2706, 14787528.000000, 1471.125000, 8148.500000, 8155.000000, 8126.500000
2707, 14787688.000000, 1390.375000, 8143.500000, 8150.500000, 8124.500000
2708, 14787848.000000, 1307.750000, 8142.000000, 8149.000000, 8119.000000
2709, 14788008.000000, 1232.000000, 8147.500000, 8151.500000, 8131.000000
2710, 14788168.000000, 1227.375000, 8151.000000, 8167.500000, 8150.500000
2711, 14788328.000000, 1372.875000, 8158.500000, 8154.000000, 8138.000000
2712, 14788488.000000, 1698.125000, 8146.000000, 8151.000000, 8126.500000
2713, 14788648.000000, 2120.125000, 8134.500000, 8142.000000, 8103.000000
2714, 14788808.000000, 2529.625000, 8136.500000, 8139.500000, 8101.000000
2715, 14788968.000000, 2832.000000, 8163.500000, 8258.000000, 8223.000000
2716, 14789128.000000, 2996.000000, 8566.500000, 7968.000000, 8133.500000
2717, 14789288.000000, 3016.375000, 7984.000000, 7738.000000, 7646.500000
2718, 14789448.000000, 2957.500000, 8099.000000, 8086.000000, 7998.500000
2719, 14789608.000000, 2858.500000, 8160.500000, 8204.000000, 8169.000000
2720, 14789768.000000, 2730.750000, 8165.500000, 8221.000000, 8192.500000
2721, 14789928.000000, 2572.875000, 8182.000000, 8231.000000, 8208.500000
2722, 14790088.000000, 2399.500000, 8195.500000, 8240.000000, 8227.500000
2723, 14790248.000000, 2239.125000, 8212.000000, 8248.500000, 8243.000000
2724, 14790408.000000, 2113.375000, 8245.500000, 8260.000000, 8262.000000
2725, 14790568.000000, 2038.250000, 8267.000000, 8275.500000, 8290.500000
2726, 14790728.000000, 2008.750000, 8295.000000, 8288.000000, 8313.500000
2727, 14790888.000000, 2009.250000, 8305.500000, 8289.500000, 8321.000000
2728, 14791048.000000, 2007.375000, 8286.500000, 8280.000000, 8301.000000
2729, 14791208.000000, 1983.000000, 8251.500000, 8246.000000, 8252.500000
2730, 14791368.000000, 1926.500000, 8171.000000, 8197.000000, 8176.500000
2731, 14791528.000000, 1849.750000, 8129.500000, 8165.000000, 8127.500000
2732, 14791688.000000, 1758.125000, 8100.500000, 8161.500000, 8117.000000
2733, 14791848.000000, 1661.875000, 8111.500000, 8152.500000, 8114.000000
2734, 14792008.000000, 1570.500000, 8122.000000, 8157.500000, 8120.500000
2735, 14792168.000000, 1482.750000, 8125.500000, 8158.500000, 8126.500000
2736, 14792328.000000, 1402.125000, 8142.500000, 8158.500000, 8131.000000
2737, 14792488.000000, 1328.500000, 8138.000000, 8173.000000, 8144.500000
2738, 14792648.000000, 1257.375000, 8140.500000, 8172.000000, 8156.000000
2739, 14792808.000000, 1187.750000, 8161.500000, 8175.500000, 8169.500000
2740, 14792968.000000, 1149.750000, 8148.500000, 8173.000000, 8157.000000
2741, 14793128.000000, 1238.750000, 8139.500000, 8167.500000, 8135.000000
2742, 14793288.000000, 1500.750000, 8145.500000, 8159.500000, 8122.000000
2743, 14793448.000000, 1901.875000, 8136.000000, 8192.500000, 8152.500000
2744, 14793608.000000, 2307.125000, 8351.000000, 8257.000000, 8322.000000
2745, 14793768.000000, 2617.625000, 8471.500000, 7617.000000, 7757.500000
2746, 14793928.000000, 2786.000000, 7989.000000, 7928.500000, 7798.500000
2747, 14794088.000000, 2825.750000, 8160.500000, 8208.500000, 8180.000000
2748, 14794248.000000, 2789.625000, 8165.000000, 8244.500000, 8227.000000
2749, 14794408.000000, 2712.750000, 8178.500000, 8252.000000, 8243.500000
2750, 14794568.000000, 2617.250000, 8193.500000, 8249.500000, 8242.000000
2751, 14794728.000000, 2488.125000, 8213.500000, 8267.000000, 8268.500000
2752, 14794888.000000, 2322.375000, 8234.500000, 8279.500000, 8291.500000
2753, 14795048.000000, 2149.500000, 8254.000000, 8292.000000, 8312.500000
2754, 14795208.000000, 1994.750000, 8284.000000, 8309.500000, 8344.000000
2755, 14795368.000000, 1887.750000, 8300.500000, 8312.500000, 8353.500000
2756, 14795528.000000, 1824.375000, 8291.500000, 8307.000000, 8343.500000
2757, 14795688.000000, 1802.875000, 8263.000000, 8275.500000, 8297.000000
2758, 14795848.000000, 1795.500000, 8200.500000, 8237.500000, 8233.500000
2759, 14796008.000000, 1782.000000, 8158.500000, 8171.500000, 8151.500000
2760, 14796168.000000, 1745.500000, 8126.500000, 8162.000000, 8133.500000
2761, 14796328.000000, 1688.125000, 8124.500000, 8162.500000, 8131.500000
2762, 14796488.000000, 1607.500000, 8147.000000, 8167.000000, 8143.000000
2763, 14796648.000000, 1514.250000, 8151.000000, 8160.500000, 8142.500000
2764, 14796808.000000, 1422.500000, 8157.000000, 8161.000000, 8144.000000
2765, 14796968.000000, 1333.125000, 8153.500000, 8164.500000, 8144.500000
2766, 14797128.000000, 1249.000000, 8156.500000, 8170.000000, 8161.000000
2767, 14797288.000000, 1166.125000, 8165.000000, 8180.000000, 8179.000000
2768, 14797448.000000, 1084.500000, 8175.500000, 8162.000000, 8157.000000
2769, 14797608.000000, 1044.875000, 8153.000000, 8164.500000, 8148.000000
2770, 14797768.000000, 1121.000000, 8152.500000, 8154.500000, 8130.500000
2771, 14797928.000000, 1358.000000, 8153.000000, 8166.000000, 8142.000000
2772, 14798088.000000, 1692.500000, 8241.500000, 8324.000000, 8351.000000
2773, 14798248.000000, 2028.125000, 8548.000000, 7808.000000, 7989.500000
2774, 14798408.000000, 2281.500000, 7971.000000, 7857.500000, 7750.500000
2775, 14798568.000000, 2408.500000, 8156.500000, 8169.500000, 8132.000000
2776, 14798728.000000, 2412.125000, 8180.500000, 8222.000000, 8211.000000
2777, 14798888.000000, 2334.000000, 8192.500000, 8235.000000, 8228.500000
2778, 14799048.000000, 2217.500000, 8194.500000, 8234.500000, 8238.000000
2779, 14799208.000000, 2079.125000, 8224.000000, 8240.000000, 8249.500000
2780, 14799368.000000, 1920.500000, 8240.000000, 8249.500000, 8268.500000
2781, 14799528.000000, 1747.875000, 8261.500000, 8265.500000, 8291.000000
2782, 14799688.000000, 1565.000000, 8287.500000, 8278.500000, 8317.000000
2783, 14799848.000000, 1437.625000, 8303.500000, 8285.000000, 8327.000000
2784, 14800008.000000, 1397.875000, 8305.500000, 8281.500000, 8320.500000
2785, 14800168.000000, 1397.625000, 8291.500000, 8262.000000, 8288.000000
2786, 14800328.000000, 1393.250000, 8225.000000, 8226.500000, 8232.500000
2787, 14800488.000000, 1357.750000, 8177.500000, 8195.500000, 8181.000000
2788, 14800648.000000, 1288.500000, 8142.000000, 8178.500000, 8152.500000
2789, 14800808.000000, 1215.250000, 8133.000000, 8177.000000, 8147.000000
2790, 14800968.000000, 1135.875000, 8144.000000, 8174.500000, 8145.000000
2791, 14801128.000000, 1056.000000, 8156.000000, 8175.500000, 8155.000000
2792, 14801288.000000, 977.250000, 8171.000000, 8185.000000, 8163.500000
2793, 14801448.000000, 900.000000, 8174.000000, 8177.000000, 8156.500000
2794, 14801608.000000, 824.375000, 8170.500000, 8182.000000, 8167.000000
2795, 14801768.000000, 766.625000, 8178.500000, 8187.000000, 8170.500000
2796, 14801928.000000, 779.875000, 8182.000000, 8195.500000, 8188.500000
2797, 14802088.000000, 955.000000, 8179.000000, 8184.500000, 8169.500000
2798, 14802248.000000, 1271.625000, 8169.000000, 8167.500000, 8141.500000
2799, 14802408.000000, 1639.125000, 8169.000000, 8170.000000, 8142.000000
2800, 14802568.000000, 1923.500000, 8165.000000, 8237.000000, 8203.500000
2801, 14802728.000000, 2081.750000, 8443.000000, 8218.500000, 8322.500000
2802, 14802888.000000, 2123.000000, 8286.000000, 7785.000000, 7840.000000
2803, 14803048.000000, 2078.500000, 8042.500000, 7992.500000, 7877.000000
2804, 14803208.000000, 1992.750000, 8175.500000, 8215.500000, 8194.000000
2805, 14803368.000000, 1882.250000, 8186.500000, 8240.500000, 8230.000000
2806, 14803528.000000, 1755.000000, 8196.000000, 8249.000000, 8241.000000
2807, 14803688.000000, 1613.125000, 8211.000000, 8258.000000, 8260.500000
2808, 14803848.000000, 1471.625000, 8217.000000, 8259.500000, 8275.500000
2809, 14804008.000000, 1363.375000, 8223.500000, 8278.500000, 8297.500000
2810, 14804168.000000, 1312.000000, 8263.500000, 8288.500000, 8325.500000
2811, 14804328.000000, 1312.625000, 8288.000000, 8302.500000, 8346.500000
2812, 14804488.000000, 1347.000000, 8293.500000, 8322.500000, 8366.000000
2813, 14804648.000000, 1382.875000, 8286.000000, 8297.500000, 8345.500000
2814, 14804808.000000, 1395.625000, 8249.000000, 8269.000000, 8302.000000
2815, 14804968.000000, 1378.500000, 8182.500000, 8233.500000, 8245.500000
2816, 14805128.000000, 1337.500000, 8138.500000, 8190.000000, 8183.500000
2817, 14805288.000000, 1285.875000, 8113.500000, 8175.000000, 8160.000000
2818, 14805448.000000, 1229.125000, 8119.000000, 8170.000000, 8161.500000
2819, 14805608.000000, 1170.375000, 8140.000000, 8177.500000, 8170.500000
2820, 14805768.000000, 1110.000000, 8138.500000, 8180.500000, 8175.500000
2821, 14805928.000000, 1053.875000, 8161.500000, 8172.500000, 8176.500000
2822, 14806088.000000, 1000.500000, 8144.500000, 8171.500000, 8168.000000
2823, 14806248.000000, 952.375000, 8147.000000, 8171.500000, 8171.500000
2824, 14806408.000000, 946.250000, 8157.000000, 8170.500000, 8166.500000
2825, 14806568.000000, 1050.250000, 8147.000000, 8189.000000, 8188.000000
2826, 14806728.000000, 1315.375000, 8165.500000, 8192.500000, 8206.000000
2827, 14806888.000000, 1684.875000, 8167.500000, 8183.500000, 8186.000000
2828, 14807048.000000, 2049.750000, 8160.000000, 8168.000000, 8162.000000
2829, 14807208.000000, 2301.000000, 8144.500000, 8169.000000, 8156.500000
2830, 14807368.000000, 2418.375000, 8155.500000, 8194.500000, 8181.500000
2831, 14807528.000000, 2413.750000, 8281.000000, 8327.500000, 8379.000000
2832, 14807688.000000, 2338.250000, 8490.500000, 7720.500000, 7887.500000
2833, 14807848.000000, 2237.125000, 7983.500000, 7890.500000, 7780.500000
2834, 14808008.000000, 2127.125000, 8158.500000, 8201.500000, 8187.500000
2835, 14808168.000000, 2001.875000, 8174.000000, 8246.500000, 8244.000000
2836, 14808328.000000, 1865.250000, 8184.500000, 8261.000000, 8268.000000
2837, 14808488.000000, 1737.625000, 8200.500000, 8255.000000, 8265.500000
2838, 14808648.000000, 1643.875000, 8212.000000, 8261.500000, 8280.000000
2839, 14808808.000000, 1595.500000, 8225.500000, 8271.000000, 8295.500000
2840, 14808968.000000, 1587.625000, 8255.000000, 8284.000000, 8317.000000
2841, 14809128.000000, 1601.750000, 8271.000000, 8307.000000, 8349.500000
2842, 14809288.000000, 1615.125000, 8299.000000, 8315.000000, 8365.500000
2843, 14809448.000000, 1606.625000, 8297.500000, 8309.000000, 8357.500000
2844, 14809608.000000, 1575.500000, 8274.000000, 8287.000000, 8323.500000
2845, 14809768.000000, 1520.000000, 8223.000000, 8237.000000, 8257.000000
2846, 14809928.000000, 1454.375000, 8170.000000, 8195.000000, 8191.000000
2847, 14810088.000000, 1381.250000, 8130.000000, 8171.500000, 8156.500000
2848, 14810248.000000, 1306.250000, 8133.500000, 8166.500000, 8145.000000
2849, 14810408.000000, 1231.875000, 8134.000000, 8161.500000, 8149.000000
2850, 14810568.000000, 1164.000000, 8145.500000, 8168.000000, 8156.500000
2851, 14810728.000000, 1108.500000, 8156.000000, 8169.500000, 8164.500000
2852, 14810888.000000, 1059.625000, 8159.000000, 8174.500000, 8168.500000
2853, 14811048.000000, 1012.125000, 8164.500000, 8163.000000, 8156.000000
2854, 14811208.000000, 998.375000, 8159.500000, 8166.500000, 8154.500000
2855, 14811368.000000, 1098.750000, 8156.000000, 8167.500000, 8159.000000
2856, 14811528.000000, 1372.125000, 8158.000000, 8167.000000, 8156.500000
2857, 14811688.000000, 1760.250000, 8161.000000, 8178.500000, 8171.000000
2858, 14811848.000000, 2145.250000, 8161.000000, 8180.000000, 8179.500000
2859, 14812008.000000, 2411.375000, 8162.000000, 8183.500000, 8186.500000
2860, 14812168.000000, 2534.250000, 8175.000000, 8175.500000, 8166.500000
2861, 14812328.000000, 2524.125000, 8159.000000, 8166.000000, 8147.500000
2862, 14812488.000000, 2451.375000, 8159.000000, 8169.000000, 8144.500000
2863, 14812648.000000, 2357.625000, 8191.500000, 8279.500000, 8261.500000
2864, 14812808.000000, 2258.750000, 8532.000000, 8037.500000, 8185.000000
2865, 14812968.000000, 2144.125000, 8064.500000, 7750.000000, 7701.000000
2866, 14813128.000000, 2004.500000, 8107.500000, 8089.000000, 8005.000000
2867, 14813288.000000, 1856.375000, 8188.500000, 8234.000000, 8216.000000
2868, 14813448.000000, 1731.000000, 8196.000000, 8248.000000, 8242.000000
2869, 14813608.000000, 1648.375000, 8215.000000, 8253.000000, 8252.500000
2870, 14813768.000000, 1610.375000, 8218.500000, 8262.500000, 8262.000000
2871, 14813928.000000, 1605.250000, 8236.500000, 8280.000000, 8289.500000
2872, 14814088.000000, 1611.000000, 8252.500000, 8289.500000, 8306.500000
2873, 14814248.000000, 1603.000000, 8292.500000, 8293.500000, 8322.500000
2874, 14814408.000000, 1570.750000, 8304.000000, 8313.500000, 8348.500000
2875, 14814568.000000, 1517.375000, 8308.500000, 8322.000000, 8360.500000
2876, 14814728.000000, 1447.500000, 8307.000000, 8304.000000, 8339.500000
2877, 14814888.000000, 1376.875000, 8268.000000, 8272.500000, 8292.500000
2878, 14815048.000000, 1302.250000, 8217.000000, 8237.000000, 8232.000000
2879, 14815208.000000, 1227.250000, 8158.500000, 8208.000000, 8188.000000
2880, 14815368.000000, 1155.625000, 8134.000000, 8178.000000, 8154.000000
2881, 14815528.000000, 1095.500000, 8139.500000, 8178.500000, 8156.000000
2882, 14815688.000000, 1050.125000, 8150.500000, 8189.500000, 8169.000000
2883, 14815848.000000, 1014.250000, 8151.000000, 8179.500000, 8167.500000
2884, 14816008.000000, 974.875000, 8143.000000, 8181.000000, 8171.500000
2885, 14816168.000000, 931.375000, 8149.000000, 8179.500000, 8173.000000
2886, 14816328.000000, 908.250000, 8143.000000, 8180.500000, 8168.000000
2887, 14816488.000000, 980.625000, 8136.000000, 8182.000000, 8168.000000
2888, 14816648.000000, 1245.000000, 8144.500000, 8177.000000, 8165.500000
2889, 14816808.000000, 1670.875000, 8140.000000, 8183.500000, 8171.000000
2890, 14816968.000000, 2123.375000, 8128.000000, 8186.500000, 8174.000000
2891, 14817128.000000, 2448.125000, 8142.500000, 8179.500000, 8171.000000
2892, 14817288.000000, 2617.375000, 8141.500000, 8192.000000, 8179.500000
2893, 14817448.000000, 2649.125000, 8145.500000, 8186.500000, 8176.000000
2894, 14817608.000000, 2607.625000, 8156.000000, 8181.500000, 8174.500000
2895, 14817768.000000, 2536.875000, 8161.000000, 8191.500000, 8191.000000
2896, 14817928.000000, 2461.500000, 8154.500000, 8211.500000, 8221.500000
2897, 14818088.000000, 2386.750000, 8172.000000, 8188.000000, 8194.500000
2898, 14818248.000000, 2293.625000, 8157.000000, 8177.000000, 8170.000000
2899, 14818408.000000, 2178.375000, 8159.000000, 8177.500000, 8163.000000
2900, 14818568.000000, 2056.500000, 8155.000000, 8206.500000, 8188.500000
2901, 14818728.000000, 1955.500000, 8327.500000, 8292.000000, 8362.000000
2902, 14818888.000000, 1892.375000, 8475.000000, 7648.000000, 7806.000000
2903, 14819048.000000, 1871.125000, 8000.000000, 7910.000000, 7798.500000
2904, 14819208.000000, 1873.500000, 8167.500000, 8223.500000, 8213.500000
2905, 14819368.000000, 1878.375000, 8186.500000, 8260.000000, 8257.500000
2906, 14819528.000000, 1868.000000, 8185.000000, 8267.000000, 8275.000000
2907, 14819688.000000, 1839.625000, 8192.500000, 8275.000000, 8284.000000
2908, 14819848.000000, 1794.500000, 8206.500000, 8279.500000, 8296.000000
2909, 14820008.000000, 1740.625000, 8232.000000, 8285.500000, 8310.500000
2910, 14820168.000000, 1676.375000, 8248.000000, 8306.000000, 8340.000000
2911, 14820328.000000, 1606.500000, 8269.500000, 8324.000000, 8369.000000
2912, 14820488.000000, 1538.875000, 8282.000000, 8340.500000, 8388.500000
2913, 14820648.000000, 1478.000000, 8282.500000, 8331.500000, 8380.000000
2914, 14820808.000000, 1421.375000, 8272.000000, 8320.000000, 8359.500000
2915, 14820968.000000, 1371.125000, 8241.500000, 8266.500000, 8296.500000
2916, 14821128.000000, 1325.875000, 8188.500000, 8220.500000, 8222.500000
2917, 14821288.000000, 1286.625000, 8151.500000, 8180.500000, 8173.000000
2918, 14821448.000000, 1251.375000, 8133.000000, 8169.500000, 8155.500000
2919, 14821608.000000, 1221.125000, 8132.000000, 8178.000000, 8167.000000
2920, 14821768.000000, 1192.625000, 8141.500000, 8173.500000, 8165.500000
2921, 14821928.000000, 1166.125000, 8158.000000, 8175.000000, 8165.000000
2922, 14822088.000000, 1136.875000, 8154.000000, 8175.000000, 8166.000000
2923, 14822248.000000, 1090.125000, 8158.500000, 8170.500000, 8164.500000
2924, 14822408.000000, 1077.875000, 8152.500000, 8166.000000, 8158.000000
2925, 14822568.000000, 1222.250000, 8146.000000, 8165.500000, 8154.000000
2926, 14822728.000000, 1565.500000, 8148.000000, 8169.500000, 8158.500000
2927, 14822888.000000, 2030.125000, 8163.500000, 8169.000000, 8151.500000
2928, 14823048.000000, 2465.000000, 8159.000000, 8170.500000, 8149.000000
2929, 14823208.000000, 2791.125000, 8159.000000, 8171.500000, 8150.500000
2930, 14823368.000000, 2966.625000, 8164.500000, 8173.500000, 8152.500000
2931, 14823528.000000, 2990.125000, 8168.000000, 8174.500000, 8153.500000
2932, 14823688.000000, 2926.250000, 8167.500000, 8173.500000, 8154.500000
2933, 14823848.000000, 2828.625000, 8181.500000, 8188.500000, 8175.000000
2934, 14824008.000000, 2729.875000, 8179.500000, 8197.500000, 8186.500000
2935, 14824168.000000, 2624.500000, 8190.500000, 8184.000000, 8179.500000
2936, 14824328.000000, 2499.000000, 8183.000000, 8183.000000, 8171.000000
2937, 14824488.000000, 2358.000000, 8179.500000, 8177.000000, 8154.000000
2938, 14824648.000000, 2220.875000, 8176.500000, 8178.000000, 8157.000000
2939, 14824808.000000, 2113.500000, 8211.000000, 8306.000000, 8294.000000
2940, 14824968.000000, 2046.125000, 8569.500000, 7959.500000, 8126.000000
2941, 14825128.000000, 2022.500000, 8017.500000, 7787.000000, 7702.000000
2942, 14825288.000000, 2020.000000, 8139.000000, 8129.500000, 8061.500000
2943, 14825448.000000, 2016.500000, 8191.500000, 8243.000000, 8226.000000
2944, 14825608.000000, 1989.000000, 8200.000000, 8260.000000, 8251.500000
2945, 14825768.000000, 1939.375000, 8216.500000, 8277.000000, 8274.000000
2946, 14825928.000000, 1867.125000, 8232.500000, 8267.000000, 8270.000000
2947, 14826088.000000, 1783.500000, 8239.500000, 8277.500000, 8287.000000
2948, 14826248.000000, 1691.500000, 8265.000000, 8287.500000, 8305.000000
2949, 14826408.000000, 1605.375000, 8285.000000, 8312.000000, 8341.000000
2950, 14826568.000000, 1526.250000, 8307.500000, 8322.500000, 8359.500000
2951, 14826728.000000, 1454.125000, 8315.500000, 8333.500000, 8373.500000
2952, 14826888.000000, 1390.000000, 8303.500000, 8319.500000, 8360.500000
2953, 14827048.000000, 1330.625000, 8265.500000, 8290.500000, 8319.500000
2954, 14827208.000000, 1277.750000, 8223.500000, 8237.500000, 8247.500000
2955, 14827368.000000, 1232.750000, 8159.500000, 8195.500000, 8188.000000
2956, 14827528.000000, 1193.250000, 8136.000000, 8170.000000, 8152.000000
2957, 14827688.000000, 1162.750000, 8134.000000, 8173.000000, 8148.500000
2958, 14827848.000000, 1140.000000, 8136.500000, 8179.500000, 8163.000000
2959, 14828008.000000, 1120.625000, 8144.000000, 8176.500000, 8167.500000
2960, 14828168.000000, 1106.375000, 8150.000000, 8175.500000, 8168.000000
2961, 14828328.000000, 1087.125000, 8144.500000, 8175.500000, 8161.000000
2962, 14828488.000000, 1062.000000, 8140.000000, 8176.500000, 8165.500000
2963, 14828648.000000, 1109.875000, 8133.000000, 8180.500000, 8167.500000
2964, 14828808.000000, 1322.500000, 8136.500000, 8174.000000, 8156.500000
2965, 14828968.000000, 1751.500000, 8142.000000, 8177.000000, 8157.000000
2966, 14829128.000000, 2257.875000, 8136.000000, 8176.000000, 8165.000000
2967, 14829288.000000, 2688.625000, 8133.000000, 8184.000000, 8169.000000
2968, 14829448.000000, 2952.125000, 8131.000000, 8170.500000, 8159.500000
2969, 14829608.000000, 3067.375000, 8147.000000, 8181.500000, 8171.000000
2970, 14829768.000000, 3079.625000, 8139.500000, 8183.500000, 8173.000000
2971, 14829928.000000, 3037.250000, 8150.000000, 8175.500000, 8162.500000
2972, 14830088.000000, 2982.000000, 8155.500000, 8178.000000, 8176.000000
2973, 14830248.000000, 2913.625000, 8152.000000, 8196.500000, 8200.500000
2974, 14830408.000000, 2821.375000, 8168.000000, 8183.000000, 8181.500000
2975, 14830568.000000, 2700.500000, 8163.000000, 8187.000000, 8183.000000
2976, 14830728.000000, 2566.500000, 8158.000000, 8174.000000, 8164.500000
2977, 14830888.000000, 2447.375000, 8165.500000, 8170.500000, 8161.000000
2978, 14831048.000000, 2366.500000, 8195.000000, 8336.500000, 8346.500000
2979, 14831208.000000, 2333.875000, 8599.000000, 7790.500000, 7992.000000
2980, 14831368.000000, 2333.375000, 7992.500000, 7792.500000, 7702.000000
2981, 14831528.000000, 2340.250000, 8137.500000, 8163.500000, 8120.500000
2982, 14831688.000000, 2332.875000, 8176.500000, 8247.000000, 8244.000000
2983, 14831848.000000, 2305.625000, 8179.000000, 8266.000000, 8267.500000
2984, 14832008.000000, 2249.750000, 8194.500000, 8269.500000, 8277.500000
2985, 14832168.000000, 2178.625000, 8211.500000, 8270.000000, 8282.000000
2986, 14832328.000000, 2098.875000, 8231.000000, 8279.500000, 8303.500000
2987, 14832488.000000, 2014.750000, 8243.500000, 8303.000000, 8327.500000
2988, 14832648.000000, 1928.750000, 8270.000000, 8310.500000, 8350.500000
2989, 14832808.000000, 1845.375000, 8287.000000, 8331.000000, 8376.000000
2990, 14832968.000000, 1766.125000, 8291.500000, 8335.000000, 8383.500000
2991, 14833128.000000, 1692.500000, 8288.000000, 8321.000000, 8365.000000
2992, 14833288.000000, 1626.875000, 8252.500000, 8290.000000, 8320.500000
2993, 14833448.000000, 1566.000000, 8213.000000, 8229.000000, 8239.000000
2994, 14833608.000000, 1507.375000, 8158.500000, 8185.000000, 8178.000000
2995, 14833768.000000, 1458.125000, 8142.500000, 8168.500000, 8150.000000
2996, 14833928.000000, 1411.500000, 8132.000000, 8169.000000, 8147.500000
2997, 14834088.000000, 1363.750000, 8148.000000, 8172.500000, 8156.500000
2998, 14834248.000000, 1321.250000, 8151.000000, 8164.500000, 8153.500000
2999, 14834408.000000, 1286.250000, 8159.000000, 8166.500000, 8153.000000
3000, 14834568.000000, 1245.500000, 8156.000000, 8164.500000, 8153.500000
3001, 14834728.000000, 1197.625000, 8164.000000, 8159.000000, 8143.500000
3002, 14834888.000000, 1199.875000, 8150.000000, 8155.000000, 8140.500000
3003, 14835048.000000, 1384.875000, 8156.500000, 8159.000000, 8138.500000
3004, 14835208.000000, 1766.250000, 8153.000000, 8155.000000, 8133.500000
3005, 14835368.000000, 2269.125000, 8161.000000, 8159.000000, 8137.000000
3006, 14835528.000000, 2739.125000, 8161.500000, 8161.500000, 8141.500000
3007, 14835688.000000, 3094.500000, 8157.000000, 8158.000000, 8141.000000
3008, 14835848.000000, 3287.875000, 8158.500000, 8164.500000, 8144.500000
3009, 14836008.000000, 3331.625000, 8161.000000, 8161.500000, 8140.500000
3010, 14836168.000000, 3272.375000, 8162.000000, 8165.000000, 8144.500000
3011, 14836328.000000, 3168.250000, 8170.000000, 8165.000000, 8148.000000
3012, 14836488.000000, 3046.375000, 8177.000000, 8175.500000, 8165.000000
3013, 14836648.000000, 2907.750000, 8180.000000, 8179.000000, 8179.000000
3014, 14836808.000000, 2750.750000, 8186.000000, 8180.500000, 8178.500000
3015, 14836968.000000, 2587.000000, 8190.500000, 8173.000000, 8162.000000
3016, 14837128.000000, 2444.000000, 8174.500000, 8165.500000, 8148.000000
3017, 14837288.000000, 2343.250000, 8175.500000, 8172.500000, 8153.000000
3018, 14837448.000000, 2296.125000, 8229.000000, 8313.500000, 8328.000000
3019, 14837608.000000, 2289.250000, 8575.000000, 7890.000000, 8071.500000
3020, 14837768.000000, 2300.250000, 7981.500000, 7838.000000, 7742.000000
3021, 14837928.000000, 2299.500000, 8148.500000, 8150.000000, 8099.500000
3022, 14838088.000000, 2273.625000, 8191.500000, 8229.000000, 8219.000000
3023, 14838248.000000, 2218.125000, 8209.500000, 8237.500000, 8242.000000
3024, 14838408.000000, 2139.750000, 8222.500000, 8250.500000, 8253.000000
3025, 14838568.000000, 2051.250000, 8217.500000, 8253.000000, 8266.000000
3026, 14838728.000000, 1954.125000, 8235.000000, 8258.000000, 8276.000000
3027, 14838888.000000, 1855.000000, 8250.500000, 8270.500000, 8301.500000
3028, 14839048.000000, 1760.625000, 8279.000000, 8288.500000, 8323.500000
3029, 14839208.000000, 1675.000000, 8283.500000, 8301.000000, 8349.000000
3030, 14839368.000000, 1601.625000, 8300.000000, 8315.000000, 8360.000000
3031, 14839528.000000, 1535.750000, 8281.500000, 8303.500000, 8345.500000
3032, 14839688.000000, 1474.125000, 8257.000000, 8277.000000, 8307.000000
3033, 14839848.000000, 1419.500000, 8214.000000, 8228.500000, 8240.000000
3034, 14840008.000000, 1373.000000, 8172.000000, 8192.000000, 8187.000000
3035, 14840168.000000, 1337.500000, 8148.000000, 8175.500000, 8164.500000
3036, 14840328.000000, 1312.750000, 8142.500000, 8180.000000, 8165.000000
3037, 14840488.000000, 1290.625000, 8141.500000, 8180.000000, 8166.000000
3038, 14840648.000000, 1268.875000, 8150.000000, 8173.500000, 8164.000000
3039, 14840808.000000, 1248.000000, 8170.000000, 8169.000000, 8163.500000
3040, 14840968.000000, 1223.500000, 8148.500000, 8175.500000, 8166.000000
3041, 14841128.000000, 1190.875000, 8155.500000, 8176.500000, 8159.500000
3042, 14841288.000000, 1178.750000, 8155.000000, 8169.500000, 8155.000000
3043, 14841448.000000, 1316.750000, 8140.000000, 8179.000000, 8160.500000
3044, 14841608.000000, 1665.375000, 8152.000000, 8166.500000, 8151.000000
3045, 14841768.000000, 2188.125000, 8146.000000, 8171.000000, 8150.500000
3046, 14841928.000000, 2718.750000, 8153.000000, 8173.000000, 8154.500000
3047, 14842088.000000, 3148.250000, 8151.000000, 8170.000000, 8154.000000
3048, 14842248.000000, 3411.750000, 8163.000000, 8176.500000, 8164.500000
3049, 14842408.000000, 3505.000000, 8160.500000, 8175.500000, 8166.000000
3050, 14842568.000000, 3471.750000, 8162.000000, 8185.500000, 8185.500000
3051, 14842728.000000, 3370.625000, 8176.000000, 8177.500000, 8176.000000
3052, 14842888.000000, 3246.500000, 8155.500000, 8176.000000, 8161.000000
3053, 14843048.000000, 3111.375000, 8164.000000, 8163.500000, 8148.000000
3054, 14843208.000000, 2954.750000, 8167.000000, 8255.000000, 8236.000000
3055, 14843368.000000, 2790.375000, 8524.500000, 8109.500000, 8261.500000
3056, 14843528.000000, 2637.250000, 8171.000000, 7762.000000, 7767.000000
3057, 14843688.000000, 2523.125000, 8057.500000, 8028.500000, 7939.000000
3058, 14843848.000000, 2459.500000, 8180.500000, 8212.000000, 8203.500000
3059, 14844008.000000, 2441.750000, 8199.500000, 8237.000000, 8237.000000
3060, 14844168.000000, 2443.125000, 8200.500000, 8246.000000, 8247.500000
3061, 14844328.000000, 2440.500000, 8209.000000, 8246.000000, 8260.000000
3062, 14844488.000000, 2415.750000, 8221.000000, 8256.500000, 8272.500000
3063, 14844648.000000, 2365.625000, 8234.500000, 8264.500000, 8283.000000
3064, 14844808.000000, 2296.125000, 8265.000000, 8279.500000, 8313.000000
3065, 14844968.000000, 2212.875000, 8295.000000, 8296.500000, 8334.000000
3066, 14845128.000000, 2113.875000, 8294.500000, 8306.500000, 8347.000000
3067, 14845288.000000, 2009.125000, 8288.000000, 8299.500000, 8333.500000
3068, 14845448.000000, 1901.875000, 8263.500000, 8278.000000, 8304.500000
3069, 14845608.000000, 1802.250000, 8219.000000, 8230.500000, 8240.500000
3070, 14845768.000000, 1710.750000, 8179.000000, 8192.000000, 8186.500000
3071, 14845928.000000, 1629.625000, 8147.500000, 8160.500000, 8145.500000
3072, 14846088.000000, 1556.625000, 8136.000000, 8165.000000, 8150.000000
3073, 14846248.000000, 1491.375000, 8159.500000, 8154.000000, 8137.500000
3074, 14846408.000000, 1433.375000, 8158.000000, 8162.000000, 8146.500000
3075, 14846568.000000, 1383.125000, 8167.500000, 8164.500000, 8155.500000
3076, 14846728.000000, 1338.750000, 8158.500000, 8163.000000, 8150.000000
3077, 14846888.000000, 1289.250000, 8162.500000, 8167.000000, 8147.000000
3078, 14847048.000000, 1234.000000, 8157.500000, 8161.500000, 8142.500000
3079, 14847208.000000, 1234.250000, 8157.000000, 8161.500000, 8141.500000
3080, 14847368.000000, 1426.250000, 8157.500000, 8167.500000, 8138.500000
3081, 14847528.000000, 1824.375000, 8159.500000, 8162.500000, 8140.000000
3082, 14847688.000000, 2324.500000, 8157.500000, 8172.500000, 8146.000000
3083, 14847848.000000, 2779.500000, 8167.000000, 8166.500000, 8137.500000
3084, 14848008.000000, 3120.625000, 8161.000000, 8175.000000, 8149.500000
3085, 14848168.000000, 3301.625000, 8177.500000, 8172.500000, 8149.000000
3086, 14848328.000000, 3344.250000, 8170.000000, 8187.000000, 8167.500000
3087, 14848488.000000, 3282.875000, 8185.500000, 8185.500000, 8175.500000
3088, 14848648.000000, 3164.000000, 8184.500000, 8176.500000, 8162.000000
3089, 14848808.000000, 3013.750000, 8177.500000, 8175.500000, 8154.500000
3090, 14848968.000000, 2837.625000, 8165.000000, 8173.500000, 8144.000000
3091, 14849128.000000, 2647.500000, 8168.000000, 8198.000000, 8164.500000
3092, 14849288.000000, 2465.000000, 8332.000000, 8302.000000, 8352.500000
3093, 14849448.000000, 2318.500000, 8451.500000, 7768.000000, 7892.000000
3094, 14849608.000000, 2217.750000, 7993.500000, 7916.000000, 7787.000000
3095, 14849768.000000, 2166.875000, 8165.000000, 8203.500000, 8175.500000
3096, 14849928.000000, 2153.125000, 8187.000000, 8230.000000, 8217.000000
3097, 14850088.000000, 2155.000000, 8197.000000, 8246.500000, 8239.500000
