743, 50065576.000000, 1402.875000, 8208.000000, 8157.000000, 8207.000000
744, 50065736.000000, 1533.750000, 8211.500000, 8173.000000, 8232.000000
745, 50065896.000000, 1764.375000, 8209.000000, 8184.000000, 8246.500000
746, 50066056.000000, 2085.250000, 8201.500000, 8176.500000, 8228.500000
747, 50066216.000000, 2419.125000, 8175.000000, 8167.000000, 8188.000000
748, 50066376.000000, 2685.750000, 8173.500000, 8162.500000, 8177.000000
749, 50066536.000000, 2841.125000, 8183.000000, 8164.000000, 8176.000000
750, 50066696.000000, 2910.875000, 8194.500000, 8163.500000, 8173.000000
751, 50066856.000000, 2905.875000, 8218.000000, 8202.500000, 8228.500000
752, 50067016.000000, 2808.625000, 8508.500000, 8000.500000, 8179.500000
753, 50067176.000000, 2576.250000, 8290.000000, 7938.500000, 7985.000000
754, 50067336.000000, 2202.125000, 8242.000000, 8145.000000, 8164.500000
755, 50067496.000000, 1752.250000, 8242.000000, 8195.000000, 8210.500000
756, 50067656.000000, 1324.000000, 8251.000000, 8202.500000, 8218.000000
757, 50067816.000000, 1028.000000, 8257.000000, 8211.000000, 8228.000000
758, 50067976.000000, 908.500000, 8267.000000, 8217.500000, 8237.500000
759, 50068136.000000, 1007.375000, 8280.000000, 8217.500000, 8242.500000
760, 50068296.000000, 1263.750000, 8291.500000, 8222.500000, 8248.000000
761, 50068456.000000, 1581.750000, 8300.000000, 8233.000000, 8264.000000
762, 50068616.000000, 1876.875000, 8301.000000, 8235.500000, 8263.000000
763, 50068776.000000, 2167.750000, 8294.500000, 8239.000000, 8269.000000
764, 50068936.000000, 2509.375000, 8283.000000, 8236.500000, 8264.000000
765, 50069096.000000, 2872.125000, 8265.000000, 8211.000000, 8234.000000
766, 50069256.000000, 3173.500000, 8253.500000, 8192.500000, 8210.500000
767, 50069416.000000, 3333.000000, 8240.000000, 8180.500000, 8188.500000
768, 50069576.000000, 3371.250000, 8234.000000, 8187.000000, 8193.000000
769, 50069736.000000, 3349.125000, 8234.500000, 8183.500000, 8189.500000
770, 50069896.000000, 3335.750000, 8240.500000, 8186.500000, 8192.000000
771, 50070056.000000, 3369.125000, 8243.500000, 8186.000000, 8193.000000
772, 50070216.000000, 3436.500000, 8246.000000, 8186.500000, 8193.500000
773, 50070376.000000, 3491.125000, 8251.000000, 8190.500000, 8197.000000
774, 50070536.000000, 3488.000000, 8232.000000, 8183.000000, 8187.500000
775, 50070696.000000, 3399.375000, 8233.000000, 8191.000000, 8202.500000
776, 50070856.000000, 3235.500000, 8244.000000, 8202.000000, 8226.500000
777, 50071016.000000, 3012.000000, 8249.500000, 8196.000000, 8221.500000
778, 50071176.000000, 2777.625000, 8236.500000, 8197.000000, 8204.000000
779, 50071336.000000, 2611.875000, 8221.000000, 8172.000000, 8168.500000
780, 50071496.000000, 2558.125000, 8211.500000, 8169.000000, 8159.500000
781, 50071656.000000, 2565.250000, 8214.000000, 8171.500000, 8158.500000
782, 50071816.000000, 2535.500000, 8208.500000, 8187.000000, 8170.500000
783, 50071976.000000, 2377.250000, 8331.000000, 8202.500000, 8255.000000
784, 50072136.000000, 2076.250000, 8499.000000, 7971.500000, 8127.000000
785, 50072296.000000, 1641.125000, 8186.500000, 8024.500000, 8012.000000
786, 50072456.000000, 1081.500000, 8218.000000, 8173.000000, 8166.500000
787, 50072616.000000, 431.500000, 8217.500000, 8211.000000, 8207.500000
788, 50072776.000000, 79.750000, 8215.000000, 8223.000000, 8221.500000
789, 50072936.000000, 15.125000, 8216.000000, 8230.500000, 8229.500000
790, 50073096.000000, 2.875000, 8213.000000, 8237.000000, 8238.000000
791, 50073256.000000, 1.000000, 8212.000000, 8245.500000, 8247.500000
792, 50073416.000000, 1.000000, 8218.500000, 8260.000000, 8262.500000
793, 50073576.000000, 1.000000, 8221.500000, 8275.000000, 8281.500000
794, 50073736.000000, 16.875000, 8213.500000, 8283.500000, 8284.000000
795, 50073896.000000, 67.875000, 8202.500000, 8283.500000, 8283.500000
796, 50074056.000000, 145.500000, 8189.000000, 8271.500000, 8268.500000
797, 50074216.000000, 249.500000, 8165.500000, 8250.500000, 8236.500000
798, 50074376.000000, 355.500000, 8155.500000, 8243.500000, 8232.500000
799, 50074536.000000, 445.500000, 8137.000000, 8238.500000, 8215.000000
800, 50074696.000000, 543.375000, 8134.000000, 8239.500000, 8212.500000
801, 50074856.000000, 662.125000, 8135.000000, 8240.000000, 8213.000000
802, 50075016.000000, 806.625000, 8137.000000, 8240.500000, 8213.000000
803, 50075176.000000, 994.250000, 8137.000000, 8240.500000, 8213.500000
804, 50075336.000000, 1198.750000, 8135.500000, 8241.500000, 8213.000000
805, 50075496.000000, 1376.625000, 8130.500000, 8237.500000, 8205.500000
806, 50075656.000000, 1558.250000, 8123.000000, 8237.500000, 8203.000000
807, 50075816.000000, 1740.375000, 8121.000000, 8235.000000, 8199.000000
808, 50075976.000000, 1919.625000, 8120.500000, 8236.000000, 8204.000000
809, 50076136.000000, 2113.375000, 8128.500000, 8249.000000, 8229.000000
810, 50076296.000000, 2338.250000, 8142.000000, 8256.500000, 8256.000000
811, 50076456.000000, 2535.000000, 8144.000000, 8244.500000, 8240.000000
812, 50076616.000000, 2685.250000, 8134.000000, 8227.500000, 8205.500000
813, 50076776.000000, 2783.875000, 8121.000000, 8213.000000, 8175.000000
814, 50076936.000000, 2813.000000, 8123.000000, 8208.500000, 8168.500000
815, 50077096.000000, 2775.875000, 8122.000000, 8205.500000, 8164.500000
816, 50077256.000000, 2713.750000, 8109.000000, 8237.000000, 8191.000000
817, 50077416.000000, 2650.375000, 8284.500000, 8166.500000, 8223.000000
818, 50077576.000000, 2590.125000, 8396.500000, 7847.000000, 7949.500000
819, 50077736.000000, 2535.500000, 8125.500000, 8138.000000, 8096.000000
820, 50077896.000000, 2492.375000, 8133.500000, 8237.500000, 8205.500000
821, 50078056.000000, 2468.250000, 8128.500000, 8246.500000, 8210.500000
822, 50078216.000000, 2466.750000, 8134.500000, 8251.500000, 8219.500000
823, 50078376.000000, 2488.500000, 8140.500000, 8254.500000, 8225.500000
824, 50078536.000000, 2523.875000, 8143.000000, 8256.000000, 8228.500000
825, 50078696.000000, 2560.125000, 8151.000000, 8260.000000, 8236.000000
826, 50078856.000000, 2588.125000, 8158.000000, 8265.500000, 8244.000000
827, 50079016.000000, 2607.375000, 8163.500000, 8271.500000, 8252.000000
828, 50079176.000000, 2621.625000, 8161.000000, 8273.500000, 8255.500000
829, 50079336.000000, 2631.875000, 8155.500000, 8270.500000, 8250.500000
830, 50079496.000000, 2635.750000, 8150.000000, 8253.500000, 8233.000000
831, 50079656.000000, 2625.250000, 8140.500000, 8230.000000, 8206.000000
832, 50079816.000000, 2605.750000, 8129.500000, 8216.500000, 8186.000000
833, 50079976.000000, 2580.750000, 8129.500000, 8212.000000, 8180.500000
834, 50080136.000000, 2552.625000, 8132.000000, 8210.500000, 8181.500000
835, 50080296.000000, 2523.875000, 8139.000000, 8209.500000, 8183.500000
836, 50080456.000000, 2489.125000, 8141.000000, 8209.000000, 8184.000000
837, 50080616.000000, 2447.750000, 8143.500000, 8207.500000, 8183.500000
838, 50080776.000000, 2396.000000, 8147.000000, 8205.500000, 8186.500000
839, 50080936.000000, 2334.375000, 8143.500000, 8200.500000, 8177.500000
840, 50081096.000000, 2276.625000, 8147.000000, 8198.000000, 8177.000000
841, 50081256.000000, 2241.250000, 8158.000000, 8202.000000, 8189.500000
842, 50081416.000000, 2265.375000, 8167.000000, 8213.000000, 8212.500000
843, 50081576.000000, 2356.750000, 8174.500000, 8218.500000, 8230.000000
844, 50081736.000000, 2479.750000, 8173.500000, 8210.500000, 8219.000000
845, 50081896.000000, 2577.375000, 8155.000000, 8189.500000, 8167.500000
846, 50082056.000000, 2628.750000, 8144.000000, 8180.000000, 8147.500000
847, 50082216.000000, 2629.250000, 8143.000000, 8178.000000, 8145.000000
848, 50082376.000000, 2595.500000, 8143.000000, 8179.000000, 8146.000000
849, 50082536.000000, 2543.250000, 8118.500000, 8220.500000, 8177.000000
850, 50082696.000000, 2485.000000, 8399.000000, 8007.500000, 8122.500000
851, 50082856.000000, 2425.000000, 8313.500000, 7872.500000, 7912.500000
852, 50083016.000000, 2366.500000, 8153.500000, 8166.500000, 8141.500000
853, 50083176.000000, 2322.625000, 8149.000000, 8220.000000, 8191.000000
854, 50083336.000000, 2297.375000, 8149.000000, 8229.000000, 8202.000000
855, 50083496.000000, 2290.375000, 8150.500000, 8232.500000, 8204.500000
856, 50083656.000000, 2289.000000, 8157.000000, 8234.500000, 8211.500000
857, 50083816.000000, 2285.500000, 8164.500000, 8239.500000, 8221.500000
858, 50083976.000000, 2270.000000, 8173.500000, 8247.500000, 8233.500000
859, 50084136.000000, 2243.250000, 8179.000000, 8252.000000, 8241.000000
860, 50084296.000000, 2207.000000, 8183.500000, 8254.000000, 8244.500000
861, 50084456.000000, 2164.750000, 8178.000000, 8251.500000, 8241.500000
862, 50084616.000000, 2123.000000, 8171.000000, 8249.500000, 8239.000000
863, 50084776.000000, 2083.000000, 8165.000000, 8234.500000, 8225.500000
864, 50084936.000000, 2043.125000, 8151.500000, 8214.000000, 8196.500000
865, 50085096.000000, 2007.875000, 8145.500000, 8201.000000, 8178.500000
866, 50085256.000000, 1978.750000, 8144.000000, 8199.500000, 8176.500000
867, 50085416.000000, 1953.750000, 8147.500000, 8200.500000, 8178.000000
868, 50085576.000000, 1933.125000, 8155.000000, 8200.500000, 8183.500000
869, 50085736.000000, 1917.250000, 8160.000000, 8199.500000, 8185.500000
870, 50085896.000000, 1903.375000, 8160.000000, 8197.000000, 8183.000000
871, 50086056.000000, 1892.500000, 8160.000000, 8195.000000, 8181.000000
872, 50086216.000000, 1880.125000, 8162.500000, 8192.500000, 8178.000000
873, 50086376.000000, 1863.875000, 8162.500000, 8191.500000, 8177.000000
874, 50086536.000000, 1867.375000, 8161.500000, 8189.500000, 8173.500000
875, 50086696.000000, 1919.625000, 8161.500000, 8187.000000, 8171.000000
876, 50086856.000000, 2023.125000, 8176.500000, 8201.000000, 8201.500000
877, 50087016.000000, 2139.875000, 8186.000000, 8213.500000, 8228.500000
878, 50087176.000000, 2225.500000, 8184.000000, 8208.500000, 8220.500000
879, 50087336.000000, 2259.750000, 8174.000000, 8195.500000, 8194.500000
880, 50087496.000000, 2253.750000, 8158.500000, 8178.500000, 8151.500000
881, 50087656.000000, 2224.250000, 8156.000000, 8172.000000, 8145.500000
882, 50087816.000000, 2183.750000, 8155.500000, 8174.000000, 8146.000000
883, 50087976.000000, 2137.125000, 8145.000000, 8194.500000, 8157.500000
884, 50088136.000000, 2087.625000, 8261.000000, 8192.000000, 8235.000000
885, 50088296.000000, 2042.375000, 8444.500000, 7828.000000, 7962.500000
886, 50088456.000000, 2007.875000, 8143.500000, 8066.500000, 8025.500000
887, 50088616.000000, 1990.500000, 8165.000000, 8204.500000, 8185.500000
888, 50088776.000000, 1989.250000, 8159.000000, 8225.000000, 8202.500000
889, 50088936.000000, 1994.250000, 8160.500000, 8226.000000, 8204.500000
890, 50089096.000000, 1996.000000, 8164.500000, 8228.000000, 8207.000000
891, 50089256.000000, 1993.125000, 8170.000000, 8232.500000, 8215.500000
892, 50089416.000000, 1981.125000, 8178.500000, 8239.500000, 8229.000000
893, 50089576.000000, 1963.000000, 8186.000000, 8246.500000, 8241.500000
894, 50089736.000000, 1939.750000, 8190.000000, 8250.000000, 8246.000000
895, 50089896.000000, 1914.750000, 8186.500000, 8250.000000, 8244.500000
896, 50090056.000000, 1888.625000, 8179.000000, 8248.500000, 8241.500000
897, 50090216.000000, 1862.750000, 8174.500000, 8240.000000, 8236.500000
898, 50090376.000000, 1841.125000, 8168.500000, 8221.000000, 8214.500000
899, 50090536.000000, 1825.250000, 8159.000000, 8204.000000, 8190.500000
900, 50090696.000000, 1811.375000, 8152.500000, 8197.500000, 8179.500000
901, 50090856.000000, 1800.500000, 8158.000000, 8197.000000, 8180.000000
902, 50091016.000000, 1787.375000, 8161.500000, 8198.000000, 8184.000000
903, 50091176.000000, 1776.500000, 8165.500000, 8199.000000, 8188.500000
904, 50091336.000000, 1766.500000, 8168.000000, 8197.000000, 8186.500000
905, 50091496.000000, 1756.500000, 8167.500000, 8192.500000, 8180.500000
906, 50091656.000000, 1748.500000, 8169.000000, 8190.500000, 8179.500000
907, 50091816.000000, 1737.500000, 8168.000000, 8187.000000, 8172.500000
908, 50091976.000000, 1729.250000, 8167.000000, 8186.000000, 8172.500000
909, 50092136.000000, 1752.250000, 8168.000000, 8184.500000, 8171.000000
910, 50092296.000000, 1823.250000, 8168.000000, 8183.500000, 8168.500000
911, 50092456.000000, 1935.375000, 8181.500000, 8198.000000, 8201.000000
912, 50092616.000000, 2038.875000, 8188.500000, 8210.000000, 8223.500000
913, 50092776.000000, 2097.750000, 8185.500000, 8206.500000, 8219.000000
914, 50092936.000000, 2106.500000, 8181.000000, 8194.500000, 8197.000000
915, 50093096.000000, 2085.250000, 8158.000000, 8176.500000, 8150.000000
916, 50093256.000000, 2044.875000, 8155.500000, 8170.000000, 8137.000000
917, 50093416.000000, 2000.750000, 8156.000000, 8170.000000, 8139.500000
918, 50093576.000000, 1959.000000, 8144.500000, 8186.000000, 8147.000000
919, 50093736.000000, 1919.625000, 8239.500000, 8191.500000, 8214.000000
920, 50093896.000000, 1886.875000, 8442.500000, 7846.000000, 7984.000000
921, 50094056.000000, 1870.500000, 8140.000000, 8048.500000, 8001.000000
922, 50094216.000000, 1868.000000, 8164.500000, 8198.500000, 8176.500000
923, 50094376.000000, 1870.250000, 8157.000000, 8217.500000, 8191.500000
924, 50094536.000000, 1875.125000, 8157.500000, 8222.500000, 8197.000000
925, 50094696.000000, 1873.750000, 8163.000000, 8223.000000, 8201.000000
926, 50094856.000000, 1865.500000, 8167.500000, 8228.000000, 8209.000000
927, 50095016.000000, 1855.500000, 8174.000000, 8236.000000, 8220.500000
928, 50095176.000000, 1846.750000, 8181.000000, 8241.500000, 8230.500000
929, 50095336.000000, 1839.500000, 8187.000000, 8243.500000, 8235.500000
930, 50095496.000000, 1829.500000, 8183.000000, 8243.500000, 8234.500000
931, 50095656.000000, 1818.875000, 8174.000000, 8242.000000, 8229.000000
932, 50095816.000000, 1805.250000, 8171.000000, 8237.000000, 8229.000000
933, 50095976.000000, 1793.125000, 8167.500000, 8220.000000, 8212.000000
934, 50096136.000000, 1785.500000, 8154.000000, 8205.000000, 8187.000000
935, 50096296.000000, 1778.375000, 8147.000000, 8194.000000, 8169.000000
936, 50096456.000000, 1773.875000, 8149.500000, 8195.000000, 8173.000000
937, 50096616.000000, 1770.750000, 8152.500000, 8197.000000, 8177.000000
938, 50096776.000000, 1768.875000, 8157.500000, 8198.500000, 8181.000000
939, 50096936.000000, 1765.375000, 8159.000000, 8196.500000, 8179.500000
940, 50097096.000000, 1766.250000, 8160.000000, 8192.500000, 8174.500000
941, 50097256.000000, 1770.625000, 8161.500000, 8189.000000, 8171.000000
942, 50097416.000000, 1772.000000, 8160.500000, 8188.000000, 8169.500000
943, 50097576.000000, 1772.000000, 8160.000000, 8186.000000, 8167.000000
944, 50097736.000000, 1782.625000, 8164.500000, 8189.500000, 8175.500000
945, 50097896.000000, 1830.500000, 8175.500000, 8203.000000, 8204.000000
946, 50098056.000000, 1924.375000, 8186.500000, 8211.500000, 8229.000000
947, 50098216.000000, 2026.750000, 8185.500000, 8206.000000, 8220.500000
948, 50098376.000000, 2100.000000, 8165.000000, 8185.000000, 8167.500000
949, 50098536.000000, 2121.625000, 8153.500000, 8172.500000, 8143.000000
950, 50098696.000000, 2105.250000, 8152.000000, 8171.000000, 8139.500000
951, 50098856.000000, 2064.125000, 8153.500000, 8170.500000, 8138.000000
952, 50099016.000000, 2015.500000, 8137.000000, 8211.500000, 8171.500000
953, 50099176.000000, 1964.500000, 8404.500000, 8029.000000, 8141.500000
954, 50099336.000000, 1917.000000, 8310.500000, 7889.500000, 7928.500000
955, 50099496.000000, 1882.125000, 8162.500000, 8161.000000, 8139.000000
956, 50099656.000000, 1864.875000, 8160.000000, 8207.000000, 8181.000000
957, 50099816.000000, 1869.750000, 8160.000000, 8218.000000, 8195.000000
958, 50099976.000000, 1890.250000, 8161.000000, 8220.500000, 8197.000000
959, 50100136.000000, 1915.250000, 8166.000000, 8225.000000, 8205.000000
960, 50100296.000000, 1933.625000, 8170.500000, 8228.000000, 8210.000000
961, 50100456.000000, 1941.625000, 8179.500000, 8234.000000, 8222.000000
962, 50100616.000000, 1936.625000, 8186.500000, 8240.500000, 8232.000000
963, 50100776.000000, 1925.250000, 8185.000000, 8241.000000, 8232.000000
964, 50100936.000000, 1908.125000, 8178.500000, 8238.500000, 8227.000000
965, 50101096.000000, 1885.125000, 8172.500000, 8232.500000, 8221.000000
966, 50101256.000000, 1856.625000, 8170.500000, 8223.500000, 8216.500000
967, 50101416.000000, 1831.750000, 8165.000000, 8209.500000, 8200.500000
968, 50101576.000000, 1808.125000, 8153.500000, 8199.000000, 8182.500000
969, 50101736.000000, 1792.875000, 8153.000000, 8195.000000, 8176.500000
970, 50101896.000000, 1782.375000, 8157.500000, 8195.500000, 8180.000000
971, 50102056.000000, 1770.500000, 8163.000000, 8196.000000, 8184.000000
972, 50102216.000000, 1757.125000, 8168.500000, 8197.500000, 8188.000000
973, 50102376.000000, 1741.875000, 8167.000000, 8196.500000, 8185.000000
974, 50102536.000000, 1729.250000, 8168.500000, 8190.500000, 8179.000000
975, 50102696.000000, 1714.250000, 8165.500000, 8187.500000, 8171.000000
976, 50102856.000000, 1698.000000, 8165.000000, 8184.000000, 8169.000000
977, 50103016.000000, 1677.000000, 8170.000000, 8189.500000, 8177.500000
978, 50103176.000000, 1670.000000, 8183.500000, 8205.500000, 8211.000000
979, 50103336.000000, 1718.875000, 8194.500000, 8216.000000, 8239.500000
980, 50103496.000000, 1846.125000, 8190.500000, 8204.500000, 8220.500000
981, 50103656.000000, 2010.625000, 8176.500000, 8187.000000, 8178.000000
982, 50103816.000000, 2147.125000, 8167.500000, 8173.500000, 8151.500000
983, 50103976.000000, 2200.625000, 8165.500000, 8174.000000, 8151.500000
984, 50104136.000000, 2188.875000, 8167.500000, 8173.500000, 8151.500000
985, 50104296.000000, 2134.125000, 8152.500000, 8213.000000, 8182.000000
986, 50104456.000000, 2055.500000, 8426.500000, 8069.500000, 8193.000000
987, 50104616.000000, 1961.000000, 8331.500000, 7899.500000, 7953.500000
988, 50104776.000000, 1863.625000, 8172.500000, 8153.000000, 8138.500000
989, 50104936.000000, 1789.000000, 8173.000000, 8204.500000, 8189.000000
990, 50105096.000000, 1750.625000, 8170.000000, 8211.500000, 8194.000000
991, 50105256.000000, 1757.250000, 8170.500000, 8215.500000, 8199.500000
992, 50105416.000000, 1791.875000, 8174.500000, 8221.500000, 8207.000000
993, 50105576.000000, 1829.750000, 8181.000000, 8227.500000, 8218.500000
994, 50105736.000000, 1848.125000, 8185.000000, 8230.500000, 8221.500000
995, 50105896.000000, 1845.500000, 8192.500000, 8235.000000, 8230.500000
996, 50106056.000000, 1830.125000, 8191.500000, 8235.500000, 8230.500000
997, 50106216.000000, 1809.375000, 8187.000000, 8234.500000, 8228.500000
998, 50106376.000000, 1788.000000, 8179.000000, 8232.000000, 8225.000000
999, 50106536.000000, 1769.625000, 8179.000000, 8223.500000, 8220.500000
1000, 50106696.000000, 1750.000000, 8169.500000, 8207.000000, 8200.500000
1001, 50106856.000000, 1730.000000, 8158.500000, 8198.500000, 8184.500000
1002, 50107016.000000, 1708.875000, 8156.000000, 8196.000000, 8179.000000
1003, 50107176.000000, 1685.750000, 8163.000000, 8197.500000, 8185.500000
1004, 50107336.000000, 1663.875000, 8168.500000, 8199.000000, 8190.500000
1005, 50107496.000000, 1642.625000, 8172.000000, 8197.500000, 8188.500000
1006, 50107656.000000, 1625.500000, 8173.000000, 8193.000000, 8186.000000
1007, 50107816.000000, 1612.625000, 8173.500000, 8192.500000, 8184.500000
1008, 50107976.000000, 1591.750000, 8173.000000, 8190.000000, 8181.000000
1009, 50108136.000000, 1563.875000, 8170.000000, 8188.500000, 8177.500000
1010, 50108296.000000, 1530.375000, 8178.000000, 8197.500000, 8199.000000
1011, 50108456.000000, 1507.125000, 8194.500000, 8209.000000, 8223.000000
1012, 50108616.000000, 1533.625000, 8198.500000, 8210.500000, 8235.000000
1013, 50108776.000000, 1668.625000, 8199.000000, 8199.000000, 8214.500000
1014, 50108936.000000, 1874.375000, 8175.000000, 8177.500000, 8161.500000
1015, 50109096.000000, 2063.000000, 8176.500000, 8169.000000, 8152.000000
1016, 50109256.000000, 2162.625000, 8175.000000, 8167.500000, 8146.500000
1017, 50109416.000000, 2166.500000, 8173.500000, 8176.000000, 8151.000000
1018, 50109576.000000, 2108.125000, 8256.500000, 8202.500000, 8231.500000
1019, 50109736.000000, 2020.375000, 8496.000000, 7910.500000, 8085.000000
1020, 50109896.000000, 1909.875000, 8163.000000, 8020.500000, 7986.500000
1021, 50110056.000000, 1788.000000, 8197.000000, 8179.000000, 8173.500000
1022, 50110216.000000, 1688.875000, 8192.500000, 8200.000000, 8193.500000
1023, 50110376.000000, 1649.250000, 8190.500000, 8204.500000, 8200.000000
1024, 50110536.000000, 1669.750000, 8198.500000, 8208.500000, 8204.000000
1025, 50110696.000000, 1735.375000, 8206.000000, 8210.000000, 8210.500000
1026, 50110856.000000, 1815.875000, 8215.000000, 8213.500000, 8219.500000
1027, 50111016.000000, 1882.500000, 8225.000000, 8219.500000, 8226.500000
1028, 50111176.000000, 1916.375000, 8232.500000, 8221.000000, 8234.000000
1029, 50111336.000000, 1909.750000, 8225.500000, 8220.500000, 8230.000000
1030, 50111496.000000, 1862.375000, 8220.000000, 8222.000000, 8231.500000
1031, 50111656.000000, 1780.500000, 8216.500000, 8219.500000, 8229.000000
1032, 50111816.000000, 1682.875000, 8207.500000, 8210.000000, 8218.500000
1033, 50111976.000000, 1585.250000, 8193.500000, 8201.500000, 8203.500000
1034, 50112136.000000, 1493.875000, 8183.000000, 8194.000000, 8189.000000
1035, 50112296.000000, 1413.000000, 8182.500000, 8194.500000, 8188.500000
1036, 50112456.000000, 1340.750000, 8187.000000, 8196.000000, 8192.000000
1037, 50112616.000000, 1282.500000, 8193.000000, 8196.500000, 8194.500000
1038, 50112776.000000, 1241.625000, 8193.500000, 8196.500000, 8199.500000
1039, 50112936.000000, 1219.250000, 8194.500000, 8193.000000, 8193.500000
1040, 50113096.000000, 1205.375000, 8193.500000, 8194.000000, 8195.000000
1041, 50113256.000000, 1193.250000, 8203.000000, 8206.000000, 8220.000000
1042, 50113416.000000, 1176.375000, 8211.500000, 8219.500000, 8252.500000
1043, 50113576.000000, 1165.125000, 8208.000000, 8212.500000, 8238.500000
1044, 50113736.000000, 1165.375000, 8191.500000, 8192.000000, 8194.000000
1045, 50113896.000000, 1226.625000, 8174.000000, 8176.500000, 8159.500000
1046, 50114056.000000, 1387.500000, 8171.000000, 8175.000000, 8156.000000
1047, 50114216.000000, 1637.875000, 8175.500000, 8174.500000, 8157.000000
1048, 50114376.000000, 1884.000000, 8153.000000, 8210.000000, 8183.000000
1049, 50114536.000000, 2052.250000, 8390.500000, 8142.500000, 8245.000000
1050, 50114696.000000, 2124.250000, 8394.500000, 7902.000000, 7999.000000
1051, 50114856.000000, 2124.500000, 8160.000000, 8118.500000, 8092.500000
1052, 50115016.000000, 2075.375000, 8175.000000, 8204.000000, 8190.000000
1053, 50115176.000000, 1988.000000, 8172.000000, 8213.500000, 8198.500000
1054, 50115336.000000, 1882.875000, 8173.000000, 8218.500000, 8203.500000
1055, 50115496.000000, 1792.875000, 8176.000000, 8222.500000, 8209.000000
1056, 50115656.000000, 1752.875000, 8180.500000, 8225.500000, 8213.000000
1057, 50115816.000000, 1763.500000, 8190.000000, 8235.000000, 8229.000000
1058, 50115976.000000, 1813.000000, 8198.500000, 8241.000000, 8238.500000
1059, 50116136.000000, 1874.000000, 8199.000000, 8241.000000, 8237.000000
1060, 50116296.000000, 1926.750000, 8190.000000, 8238.000000, 8232.000000
1061, 50116456.000000, 1946.875000, 8184.000000, 8233.500000, 8226.500000
1062, 50116616.000000, 1941.750000, 8186.000000, 8226.000000, 8228.000000
1063, 50116776.000000, 1910.625000, 8174.500000, 8211.500000, 8207.000000
1064, 50116936.000000, 1868.500000, 8163.500000, 8202.000000, 8192.000000
1065, 50117096.000000, 1818.500000, 8158.500000, 8196.000000, 8182.000000
1066, 50117256.000000, 1769.750000, 8165.000000, 8197.000000, 8187.000000
1067, 50117416.000000, 1732.125000, 8169.500000, 8198.500000, 8191.000000
1068, 50117576.000000, 1707.875000, 8176.000000, 8197.000000, 8192.000000
1069, 50117736.000000, 1688.250000, 8175.000000, 8194.500000, 8188.500000
1070, 50117896.000000, 1675.500000, 8174.000000, 8190.500000, 8183.500000
1071, 50118056.000000, 1666.750000, 8173.000000, 8189.000000, 8182.000000
1072, 50118216.000000, 1658.250000, 8180.000000, 8198.500000, 8201.500000
1073, 50118376.000000, 1640.375000, 8189.500000, 8208.500000, 8222.000000
1074, 50118536.000000, 1622.750000, 8194.000000, 8213.000000, 8236.000000
1075, 50118696.000000, 1636.625000, 8192.500000, 8202.500000, 8219.000000
1076, 50118856.000000, 1728.125000, 8170.500000, 8182.000000, 8168.000000
1077, 50119016.000000, 1928.000000, 8164.000000, 8174.000000, 8153.000000
1078, 50119176.000000, 2180.500000, 8162.500000, 8174.000000, 8150.000000
1079, 50119336.000000, 2383.250000, 8154.000000, 8179.500000, 8148.500000
1080, 50119496.000000, 2484.500000, 8213.500000, 8195.000000, 8200.500000
1081, 50119656.000000, 2486.875000, 8458.500000, 7896.500000, 8056.000000
1082, 50119816.000000, 2418.750000, 8158.500000, 8021.500000, 7989.500000
1083, 50119976.000000, 2298.000000, 8172.500000, 8193.500000, 8180.000000
1084, 50120136.000000, 2141.375000, 8166.000000, 8213.000000, 8194.000000
1085, 50120296.000000, 1979.125000, 8166.500000, 8220.000000, 8201.500000
1086, 50120456.000000, 1867.125000, 8171.000000, 8220.500000, 8205.500000
1087, 50120616.000000, 1835.375000, 8172.500000, 8227.500000, 8214.000000
1088, 50120776.000000, 1871.250000, 8180.000000, 8233.500000, 8222.500000
1089, 50120936.000000, 1945.625000, 8186.000000, 8236.500000, 8228.000000
1090, 50121096.000000, 2019.000000, 8189.000000, 8238.000000, 8233.000000
1091, 50121256.000000, 2064.250000, 8186.500000, 8237.500000, 8230.000000
1092, 50121416.000000, 2068.000000, 8177.500000, 8239.000000, 8231.500000
1093, 50121576.000000, 2037.375000, 8176.000000, 8233.000000, 8228.000000
1094, 50121736.000000, 1992.625000, 8175.000000, 8218.000000, 8215.000000
1095, 50121896.000000, 1947.375000, 8163.000000, 8201.500000, 8191.500000
1096, 50122056.000000, 1909.375000, 8161.500000, 8196.500000, 8184.500000
1097, 50122216.000000, 1883.000000, 8162.500000, 8196.500000, 8186.000000
1098, 50122376.000000, 1856.875000, 8169.000000, 8201.000000, 8193.000000
1099, 50122536.000000, 1838.625000, 8172.500000, 8197.500000, 8191.000000
1100, 50122696.000000, 1823.625000, 8176.000000, 8196.000000, 8191.000000
1101, 50122856.000000, 1822.000000, 8174.000000, 8193.500000, 8188.500000
1102, 50123016.000000, 1824.250000, 8176.500000, 8192.500000, 8188.500000
1103, 50123176.000000, 1827.000000, 8180.500000, 8198.500000, 8202.000000
1104, 50123336.000000, 1817.125000, 8189.000000, 8206.000000, 8219.000000
1105, 50123496.000000, 1802.500000, 8198.500000, 8212.500000, 8240.000000
1106, 50123656.000000, 1825.250000, 8196.000000, 8205.500000, 8227.500000
1107, 50123816.000000, 1971.875000, 8177.000000, 8185.500000, 8178.000000
1108, 50123976.000000, 2265.250000, 8164.500000, 8175.000000, 8155.000000
1109, 50124136.000000, 2595.875000, 8161.500000, 8171.500000, 8147.500000
1110, 50124296.000000, 2838.625000, 8160.000000, 8172.000000, 8146.000000
1111, 50124456.000000, 2926.750000, 8162.500000, 8195.500000, 8170.000000
1112, 50124616.000000, 2900.000000, 8449.500000, 7945.500000, 8096.000000
1113, 50124776.000000, 2802.625000, 8212.000000, 7968.000000, 7960.500000
1114, 50124936.000000, 2673.000000, 8171.500000, 8182.500000, 8170.000000
1115, 50125096.000000, 2526.500000, 8165.500000, 8209.000000, 8188.500000
1116, 50125256.000000, 2382.625000, 8165.000000, 8216.500000, 8197.500000
1117, 50125416.000000, 2277.875000, 8166.500000, 8221.000000, 8202.500000
1118, 50125576.000000, 2244.750000, 8173.000000, 8226.500000, 8213.500000
1119, 50125736.000000, 2278.750000, 8175.500000, 8229.000000, 8217.500000
1120, 50125896.000000, 2348.875000, 8183.000000, 8234.000000, 8225.000000
1121, 50126056.000000, 2422.250000, 8188.500000, 8238.000000, 8232.000000
1122, 50126216.000000, 2468.125000, 8184.000000, 8238.500000, 8230.500000
1123, 50126376.000000, 2472.875000, 8175.000000, 8235.000000, 8223.000000
1124, 50126536.000000, 2450.250000, 8171.500000, 8230.000000, 8219.500000
1125, 50126696.000000, 2410.125000, 8173.000000, 8217.500000, 8212.500000
1126, 50126856.000000, 2358.500000, 8166.000000, 8203.000000, 8193.000000
1127, 50127016.000000, 2305.250000, 8159.000000, 8197.500000, 8184.500000
1128, 50127176.000000, 2252.500000, 8162.000000, 8198.000000, 8185.500000
1129, 50127336.000000, 2203.500000, 8165.000000, 8196.500000, 8186.000000
1130, 50127496.000000, 2153.625000, 8171.000000, 8196.500000, 8189.500000
1131, 50127656.000000, 2108.375000, 8173.000000, 8196.500000, 8191.000000
1132, 50127816.000000, 2068.125000, 8176.000000, 8194.500000, 8189.500000
1133, 50127976.000000, 2034.125000, 8174.000000, 8193.000000, 8186.500000
1134, 50128136.000000, 2012.000000, 8172.000000, 8189.000000, 8180.000000
1135, 50128296.000000, 1991.375000, 8185.000000, 8201.000000, 8209.500000
1136, 50128456.000000, 1966.125000, 8194.500000, 8211.500000, 8231.500000
1137, 50128616.000000, 1968.750000, 8196.000000, 8210.000000, 8234.000000
1138, 50128776.000000, 2080.000000, 8188.000000, 8199.500000, 8210.000000
1139, 50128936.000000, 2337.000000, 8167.000000, 8176.000000, 8157.500000
1140, 50129096.000000, 2680.375000, 8165.000000, 8170.500000, 8147.500000
1141, 50129256.000000, 2964.500000, 8166.000000, 8169.500000, 8145.500000
1142, 50129416.000000, 3116.375000, 8145.500000, 8192.000000, 8157.000000
1143, 50129576.000000, 3126.875000, 8308.000000, 8182.000000, 8247.500000
1144, 50129736.000000, 3045.875000, 8447.500000, 7861.000000, 8000.500000
1145, 50129896.000000, 2910.875000, 8151.000000, 8095.000000, 8062.000000
1146, 50130056.000000, 2744.500000, 8171.500000, 8199.500000, 8183.000000
1147, 50130216.000000, 2578.250000, 8168.000000, 8212.000000, 8195.000000
1148, 50130376.000000, 2450.625000, 8167.500000, 8218.000000, 8200.000000
1149, 50130536.000000, 2390.125000, 8167.000000, 8219.000000, 8200.000000
1150, 50130696.000000, 2398.125000, 8174.500000, 8223.500000, 8209.000000
1151, 50130856.000000, 2451.625000, 8181.500000, 8230.500000, 8219.000000
1152, 50131016.000000, 2507.250000, 8187.500000, 8236.000000, 8228.500000
1153, 50131176.000000, 2543.625000, 8189.000000, 8238.500000, 8233.500000
1154, 50131336.000000, 2545.125000, 8182.000000, 8233.500000, 8224.000000
1155, 50131496.000000, 2514.125000, 8174.500000, 8229.500000, 8217.000000
1156, 50131656.000000, 2462.125000, 8176.500000, 8225.000000, 8219.000000
1157, 50131816.000000, 2402.375000, 8173.000000, 8213.000000, 8208.000000
1158, 50131976.000000, 2348.375000, 8163.000000, 8202.000000, 8192.000000
1159, 50132136.000000, 2297.125000, 8157.000000, 8194.500000, 8178.500000
1160, 50132296.000000, 2251.875000, 8164.000000, 8194.500000, 8181.500000
1161, 50132456.000000, 2213.875000, 8170.000000, 8197.500000, 8189.000000
1162, 50132616.000000, 2190.125000, 8173.000000, 8198.500000, 8191.500000
1163, 50132776.000000, 2173.875000, 8176.000000, 8197.500000, 8192.500000
1164, 50132936.000000, 2165.875000, 8175.000000, 8194.000000, 8187.000000
1165, 50133096.000000, 2164.375000, 8173.000000, 8190.500000, 8179.500000
1166, 50133256.000000, 2158.125000, 8172.000000, 8187.000000, 8176.000000
1167, 50133416.000000, 2132.875000, 8180.000000, 8197.000000, 8197.000000
1168, 50133576.000000, 2105.750000, 8188.000000, 8206.500000, 8216.500000
1169, 50133736.000000, 2133.375000, 8197.000000, 8213.000000, 8236.500000
1170, 50133896.000000, 2301.375000, 8193.500000, 8203.000000, 8220.000000
1171, 50134056.000000, 2610.250000, 8173.000000, 8182.500000, 8168.000000
1172, 50134216.000000, 2953.625000, 8164.500000, 8174.500000, 8151.500000
1173, 50134376.000000, 3185.250000, 8163.500000, 8175.500000, 8150.000000
1174, 50134536.000000, 3277.000000, 8158.000000, 8177.000000, 8145.500000
1175, 50134696.000000, 3245.750000, 8193.500000, 8199.000000, 8188.500000
1176, 50134856.000000, 3147.500000, 8465.000000, 7924.000000, 8083.000000
1177, 50135016.000000, 3008.500000, 8173.500000, 7996.500000, 7966.500000
1178, 50135176.000000, 2841.375000, 8172.500000, 8189.000000, 8173.500000
1179, 50135336.000000, 2674.625000, 8164.500000, 8211.000000, 8189.000000
1180, 50135496.000000, 2540.000000, 8166.500000, 8217.000000, 8197.500000
1181, 50135656.000000, 2460.625000, 8169.500000, 8219.000000, 8201.500000
1182, 50135816.000000, 2420.750000, 8175.500000, 8223.000000, 8209.000000
1183, 50135976.000000, 2395.125000, 8181.000000, 8228.000000, 8218.000000
1184, 50136136.000000, 2361.375000, 8187.000000, 8231.000000, 8223.000000
1185, 50136296.000000, 2296.375000, 8190.500000, 8234.000000, 8227.500000
1186, 50136456.000000, 2186.375000, 8187.000000, 8234.500000, 8225.500000
1187, 50136616.000000, 2037.375000, 8181.000000, 8234.500000, 8226.500000
1188, 50136776.000000, 1878.625000, 8179.500000, 8231.000000, 8227.000000
1189, 50136936.000000, 1745.000000, 8180.000000, 8220.000000, 8219.000000
1190, 50137096.000000, 1638.250000, 8171.000000, 8204.500000, 8197.500000
1191, 50137256.000000, 1545.500000, 8164.500000, 8198.000000, 8188.000000
1192, 50137416.000000, 1454.625000, 8168.000000, 8199.000000, 8192.000000
1193, 50137576.000000, 1371.250000, 8172.000000, 8201.500000, 8196.500000
1194, 50137736.000000, 1313.250000, 8176.000000, 8200.500000, 8197.000000
1195, 50137896.000000, 1289.500000, 8179.500000, 8199.500000, 8197.500000
1196, 50138056.000000, 1296.375000, 8182.000000, 8198.000000, 8198.000000
1197, 50138216.000000, 1329.000000, 8178.000000, 8194.500000, 8190.500000
1198, 50138376.000000, 1376.625000, 8177.000000, 8193.500000, 8190.500000
1199, 50138536.000000, 1433.000000, 8178.000000, 8192.000000, 8188.000000
1200, 50138696.000000, 1502.500000, 8190.000000, 8206.000000, 8218.000000
1201, 50138856.000000, 1617.125000, 8202.000000, 8217.500000, 8246.500000
1202, 50139016.000000, 1856.000000, 8199.000000, 8210.500000, 8234.500000
1203, 50139176.000000, 2255.000000, 8181.000000, 8190.500000, 8188.500000
1204, 50139336.000000, 2744.625000, 8167.000000, 8177.000000, 8156.000000
1205, 50139496.000000, 3165.375000, 8168.500000, 8173.000000, 8151.500000
1206, 50139656.000000, 3435.625000, 8166.500000, 8173.000000, 8149.500000
1207, 50139816.000000, 3537.875000, 8149.500000, 8215.000000, 8182.000000
1208, 50139976.000000, 3535.000000, 8430.500000, 8054.000000, 8183.000000
1209, 50140136.000000, 3457.625000, 8312.500000, 7905.000000, 7948.000000
1210, 50140296.000000, 3338.125000, 8172.500000, 8162.000000, 8148.500000
1211, 50140456.000000, 3196.375000, 8169.000000, 8208.000000, 8190.000000
1212, 50140616.000000, 3071.625000, 8167.000000, 8216.000000, 8197.000000
1213, 50140776.000000, 3010.875000, 8167.000000, 8219.500000, 8200.000000
1214, 50140936.000000, 3010.625000, 8173.000000, 8222.000000, 8206.500000
1215, 50141096.000000, 3051.500000, 8178.000000, 8225.500000, 8214.500000
1216, 50141256.000000, 3087.125000, 8186.000000, 8231.500000, 8222.500000
1217, 50141416.000000, 3067.500000, 8189.500000, 8234.500000, 8228.000000
1218, 50141576.000000, 2972.250000, 8187.000000, 8235.000000, 8226.000000
1219, 50141736.000000, 2817.625000, 8177.500000, 8230.000000, 8214.000000
1220, 50141896.000000, 2633.750000, 8170.500000, 8223.500000, 8207.500000
1221, 50142056.000000, 2454.250000, 8170.000000, 8217.000000, 8202.000000
1222, 50142216.000000, 2296.375000, 8162.000000, 8203.000000, 8186.000000
1223, 50142376.000000, 2169.000000, 8152.000000, 8196.000000, 8170.000000
1224, 50142536.000000, 2061.125000, 8153.000000, 8192.500000, 8167.500000
1225, 50142696.000000, 1969.125000, 8158.000000, 8193.000000, 8172.000000
1226, 50142856.000000, 1889.750000, 8163.500000, 8196.000000, 8179.500000
1227, 50143016.000000, 1829.625000, 8169.500000, 8197.500000, 8186.000000
1228, 50143176.000000, 1780.750000, 8171.500000, 8195.500000, 8185.000000
1229, 50143336.000000, 1734.125000, 8171.500000, 8192.000000, 8180.500000
1230, 50143496.000000, 1695.250000, 8168.000000, 8188.000000, 8173.000000
1231, 50143656.000000, 1664.750000, 8168.500000, 8186.000000, 8171.500000
1232, 50143816.000000, 1644.250000, 8173.000000, 8188.000000, 8179.500000
1233, 50143976.000000, 1642.000000, 8185.500000, 8203.000000, 8209.500000
1234, 50144136.000000, 1728.375000, 8197.500000, 8213.000000, 8237.500000
1235, 50144296.000000, 1965.000000, 8194.000000, 8204.000000, 8220.500000
1236, 50144456.000000, 2345.625000, 8176.000000, 8186.000000, 8177.500000
1237, 50144616.000000, 2729.875000, 8165.000000, 8176.000000, 8153.000000
1238, 50144776.000000, 3010.000000, 8164.000000, 8174.000000, 8150.500000
1239, 50144936.000000, 3115.875000, 8164.500000, 8173.500000, 8147.500000
1240, 50145096.000000, 3096.750000, 8163.000000, 8212.000000, 8185.000000
1241, 50145256.000000, 2989.250000, 8470.000000, 8001.000000, 8154.500000
1242, 50145416.000000, 2821.375000, 8244.500000, 7945.000000, 7949.000000
1243, 50145576.000000, 2614.000000, 8173.500000, 8176.500000, 8163.500000
1244, 50145736.000000, 2395.500000, 8167.000000, 8208.000000, 8188.500000
1245, 50145896.000000, 2237.000000, 8165.000000, 8214.000000, 8193.000000
1246, 50146056.000000, 2170.125000, 8169.000000, 8217.500000, 8200.500000
1247, 50146216.000000, 2195.500000, 8172.000000, 8221.500000, 8205.500000
1248, 50146376.000000, 2264.875000, 8178.500000, 8227.500000, 8216.000000
1249, 50146536.000000, 2333.125000, 8185.500000, 8230.000000, 8222.000000
1250, 50146696.000000, 2363.375000, 8192.000000, 8231.500000, 8226.500000
1251, 50146856.000000, 2354.125000, 8190.000000, 8232.500000, 8225.500000
1252, 50147016.000000, 2315.500000, 8179.000000, 8230.500000, 8221.000000
1253, 50147176.000000, 2268.375000, 8177.000000, 8229.500000, 8222.500000
1254, 50147336.000000, 2225.250000, 8178.000000, 8221.000000, 8219.000000
1255, 50147496.000000, 2196.375000, 8169.500000, 8207.000000, 8199.500000
1256, 50147656.000000, 2174.875000, 8160.000000, 8198.000000, 8184.000000
1257, 50147816.000000, 2156.625000, 8161.500000, 8197.000000, 8184.000000
1258, 50147976.000000, 2132.625000, 8167.000000, 8201.000000, 8191.500000
1259, 50148136.000000, 2102.875000, 8175.000000, 8201.000000, 8197.000000
1260, 50148296.000000, 2067.125000, 8176.000000, 8198.000000, 8192.500000
1261, 50148456.000000, 2035.375000, 8177.500000, 8197.500000, 8193.000000
1262, 50148616.000000, 2019.375000, 8177.000000, 8194.500000, 8189.500000
1263, 50148776.000000, 2009.500000, 8173.500000, 8192.000000, 8184.000000
1264, 50148936.000000, 1999.250000, 8175.000000, 8187.000000, 8179.000000
1265, 50149096.000000, 1979.750000, 8174.000000, 8185.500000, 8176.500000
1266, 50149256.000000, 1967.000000, 8181.000000, 8194.500000, 8196.000000
1267, 50149416.000000, 2035.000000, 8188.500000, 8206.500000, 8217.500000
1268, 50149576.000000, 2264.500000, 8198.000000, 8212.000000, 8237.000000
1269, 50149736.000000, 2626.125000, 8194.000000, 8203.500000, 8221.000000
1270, 50149896.000000, 2996.000000, 8176.500000, 8182.500000, 8170.500000
1271, 50150056.000000, 3249.375000, 8166.000000, 8174.500000, 8151.500000
1272, 50150216.000000, 3357.875000, 8164.500000, 8173.500000, 8151.500000
1273, 50150376.000000, 3341.000000, 8156.000000, 8182.000000, 8149.500000
1274, 50150536.000000, 3241.375000, 8237.000000, 8209.500000, 8229.500000
1275, 50150696.000000, 3093.125000, 8495.500000, 7922.000000, 8096.500000
1276, 50150856.000000, 2914.375000, 8149.000000, 8029.500000, 7986.500000
1277, 50151016.000000, 2758.875000, 8172.500000, 8192.500000, 8179.000000
1278, 50151176.000000, 2667.375000, 8167.000000, 8213.500000, 8195.000000
1279, 50151336.000000, 2660.625000, 8166.000000, 8216.000000, 8197.000000
1280, 50151496.000000, 2706.000000, 8169.000000, 8218.000000, 8200.000000
1281, 50151656.000000, 2766.375000, 8175.000000, 8222.500000, 8208.500000
1282, 50151816.000000, 2801.375000, 8181.500000, 8226.500000, 8217.000000
1283, 50151976.000000, 2788.000000, 8189.000000, 8230.000000, 8223.500000
1284, 50152136.000000, 2722.375000, 8192.500000, 8233.500000, 8229.000000
1285, 50152296.000000, 2615.000000, 8187.000000, 8230.500000, 8224.500000
1286, 50152456.000000, 2488.500000, 8177.000000, 8229.000000, 8219.000000
1287, 50152616.000000, 2361.375000, 8179.500000, 8229.000000, 8227.000000
1288, 50152776.000000, 2242.375000, 8183.000000, 8220.000000, 8220.000000
1289, 50152936.000000, 2136.375000, 8172.500000, 8206.000000, 8200.500000
1290, 50153096.000000, 2039.500000, 8165.000000, 8197.000000, 8184.500000
1291, 50153256.000000, 1956.250000, 8171.000000, 8198.000000, 8190.500000
1292, 50153416.000000, 1887.625000, 8175.500000, 8200.000000, 8195.500000
1293, 50153576.000000, 1826.250000, 8184.500000, 8199.500000, 8199.500000
1294, 50153736.000000, 1773.750000, 8189.000000, 8198.500000, 8197.500000
1295, 50153896.000000, 1733.250000, 8189.000000, 8190.500000, 8192.500000
1296, 50154056.000000, 1702.500000, 8194.000000, 8188.500000, 8192.500000
1297, 50154216.000000, 1670.000000, 8194.000000, 8187.500000, 8189.500000
1298, 50154376.000000, 1624.375000, 8195.000000, 8184.500000, 8188.500000
1299, 50154536.000000, 1571.750000, 8196.000000, 8182.000000, 8186.000000
1300, 50154696.000000, 1549.000000, 8207.000000, 8184.000000, 8202.000000
1301, 50154856.000000, 1656.500000, 8219.500000, 8190.000000, 8216.500000
1302, 50155016.000000, 1939.375000, 8231.000000, 8202.500000, 8246.500000
1303, 50155176.000000, 2346.375000, 8236.000000, 8195.000000, 8237.500000
1304, 50155336.000000, 2715.375000, 8218.000000, 8175.500000, 8192.000000
1305, 50155496.000000, 2951.500000, 8212.500000, 8167.000000, 8171.000000
1306, 50155656.000000, 3041.750000, 8211.000000, 8161.500000, 8166.500000
1307, 50155816.000000, 3003.625000, 8212.500000, 8170.000000, 8171.000000
1308, 50155976.000000, 2875.750000, 8264.500000, 8201.000000, 8235.500000
1309, 50156136.000000, 2718.500000, 8541.500000, 8028.500000, 8221.500000
1310, 50156296.000000, 2550.625000, 8233.500000, 7994.500000, 8009.500000
1311, 50156456.000000, 2425.875000, 8209.000000, 8148.500000, 8152.000000
1312, 50156616.000000, 2381.500000, 8211.000000, 8189.000000, 8191.000000
1313, 50156776.000000, 2416.625000, 8205.000000, 8198.500000, 8200.000000
1314, 50156936.000000, 2494.250000, 8213.000000, 8201.500000, 8204.500000
1315, 50157096.000000, 2588.750000, 8216.000000, 8205.500000, 8209.500000
1316, 50157256.000000, 2655.250000, 8226.000000, 8210.000000, 8219.000000
1317, 50157416.000000, 2666.500000, 8228.500000, 8217.000000, 8227.500000
1318, 50157576.000000, 2632.125000, 8238.500000, 8219.500000, 8232.500000
1319, 50157736.000000, 2561.375000, 8233.500000, 8221.500000, 8232.000000
1320, 50157896.000000, 2478.625000, 8226.500000, 8223.000000, 8231.000000
1321, 50158056.000000, 2389.500000, 8219.500000, 8226.500000, 8235.000000
1322, 50158216.000000, 2294.375000, 8214.500000, 8220.500000, 8232.500000
1323, 50158376.000000, 2221.125000, 8195.500000, 8209.500000, 8213.000000
1324, 50158536.000000, 2175.500000, 8184.500000, 8201.500000, 8198.000000
1325, 50158696.000000, 2154.500000, 8184.000000, 8200.000000, 8196.000000
1326, 50158856.000000, 2151.125000, 8188.500000, 8202.500000, 8198.500000
1327, 50159016.000000, 2153.250000, 8195.000000, 8204.500000, 8206.500000
1328, 50159176.000000, 2163.375000, 8197.500000, 8201.500000, 8204.000000
1329, 50159336.000000, 2171.500000, 8197.500000, 8198.000000, 8202.500000
1330, 50159496.000000, 2165.125000, 8195.500000, 8196.000000, 8197.500000
1331, 50159656.000000, 2145.375000, 8194.000000, 8195.000000, 8197.000000
1332, 50159816.000000, 2122.500000, 8192.500000, 8196.000000, 8196.500000
1333, 50159976.000000, 2137.875000, 8201.000000, 8209.500000, 8225.500000
1334, 50160136.000000, 2248.250000, 8209.000000, 8217.500000, 8247.000000
1335, 50160296.000000, 2524.750000, 8209.000000, 8214.500000, 8242.500000
1336, 50160456.000000, 2915.125000, 8195.500000, 8199.000000, 8213.000000
1337, 50160616.000000, 3326.875000, 8181.500000, 8186.000000, 8176.500000
1338, 50160776.000000, 3656.000000, 8174.000000, 8180.500000, 8165.500000
1339, 50160936.000000, 3869.750000, 8174.500000, 8177.500000, 8163.000000
1340, 50161096.000000, 3969.625000, 8158.000000, 8204.000000, 8180.000000
1341, 50161256.000000, 3963.500000, 8341.500000, 8181.000000, 8267.000000
1342, 50161416.000000, 3871.250000, 8454.000000, 7874.500000, 8015.000000
1343, 50161576.000000, 3699.750000, 8155.000000, 8097.500000, 8071.000000
1344, 50161736.000000, 3513.500000, 8177.000000, 8203.000000, 8190.500000
1345, 50161896.000000, 3366.875000, 8173.000000, 8214.500000, 8199.500000
1346, 50162056.000000, 3296.625000, 8173.500000, 8222.000000, 8208.000000
1347, 50162216.000000, 3284.625000, 8177.500000, 8227.500000, 8217.000000
1348, 50162376.000000, 3297.750000, 8183.000000, 8231.000000, 8222.000000
1349, 50162536.000000, 3301.500000, 8187.500000, 8232.500000, 8227.000000
1350, 50162696.000000, 3273.250000, 8198.000000, 8237.500000, 8236.500000
1351, 50162856.000000, 3205.375000, 8201.000000, 8244.500000, 8245.500000
1352, 50163016.000000, 3101.875000, 8197.000000, 8244.500000, 8243.000000
1353, 50163176.000000, 2976.500000, 8184.000000, 8242.500000, 8238.500000
1354, 50163336.000000, 2844.750000, 8183.000000, 8232.500000, 8233.500000
1355, 50163496.000000, 2726.500000, 8176.000000, 8215.500000, 8215.500000
1356, 50163656.000000, 2627.625000, 8164.000000, 8204.000000, 8195.000000
1357, 50163816.000000, 2545.625000, 8159.000000, 8199.000000, 8188.000000
1358, 50163976.000000, 2463.625000, 8162.000000, 8200.500000, 8191.500000
1359, 50164136.000000, 2378.375000, 8169.000000, 8200.000000, 8194.000000
1360, 50164296.000000, 2296.500000, 8172.000000, 8198.000000, 8192.000000
1361, 50164456.000000, 2233.250000, 8174.500000, 8198.000000, 8195.500000
1362, 50164616.000000, 2180.500000, 8175.000000, 8196.500000, 8193.500000
1363, 50164776.000000, 2125.750000, 8173.500000, 8192.500000, 8188.500000
1364, 50164936.000000, 2055.375000, 8173.000000, 8190.000000, 8183.000000
1365, 50165096.000000, 2004.000000, 8170.500000, 8186.000000, 8178.000000
1366, 50165256.000000, 2056.375000, 8183.000000, 8200.000000, 8209.000000
1367, 50165416.000000, 2312.125000, 8190.500000, 8212.500000, 8231.500000
1368, 50165576.000000, 2709.625000, 8195.500000, 8209.500000, 8233.000000
1369, 50165736.000000, 3122.375000, 8186.000000, 8197.000000, 8210.000000
1370, 50165896.000000, 3423.625000, 8169.500000, 8180.000000, 8166.000000
1371, 50166056.000000, 3578.875000, 8166.000000, 8173.000000, 8155.000000
1372, 50166216.000000, 3606.625000, 8167.000000, 8173.000000, 8153.500000
1373, 50166376.000000, 3522.000000, 8151.000000, 8191.500000, 8163.500000
1374, 50166536.000000, 3368.375000, 8276.500000, 8195.500000, 8247.500000
1375, 50166696.000000, 3162.000000, 8475.000000, 7859.500000, 8018.500000
1376, 50166856.000000, 2942.750000, 8149.500000, 8064.500000, 8029.500000
1377, 50167016.000000, 2759.250000, 8171.500000, 8199.000000, 8186.500000
1378, 50167176.000000, 2651.250000, 8165.500000, 8216.000000, 8198.500000
1379, 50167336.000000, 2621.000000, 8166.000000, 8219.500000, 8203.500000
1380, 50167496.000000, 2642.875000, 8172.000000, 8222.000000, 8209.000000
1381, 50167656.000000, 2681.375000, 8177.000000, 8227.500000, 8216.500000
1382, 50167816.000000, 2705.625000, 8187.500000, 8233.500000, 8229.000000
1383, 50167976.000000, 2684.000000, 8192.000000, 8239.000000, 8236.000000
1384, 50168136.000000, 2612.875000, 8196.000000, 8242.000000, 8242.000000
1385, 50168296.000000, 2506.875000, 8193.500000, 8241.500000, 8238.000000
1386, 50168456.000000, 2393.375000, 8183.500000, 8242.500000, 8238.000000
1387, 50168616.000000, 2285.625000, 8179.500000, 8235.500000, 8235.000000
1388, 50168776.000000, 2195.875000, 8173.000000, 8218.000000, 8214.500000
1389, 50168936.000000, 2118.875000, 8165.500000, 8200.000000, 8191.500000
1390, 50169096.000000, 2054.000000, 8156.000000, 8195.000000, 8180.000000
1391, 50169256.000000, 1998.500000, 8161.500000, 8195.500000, 8183.500000
1392, 50169416.000000, 1948.500000, 8167.000000, 8197.500000, 8188.500000
1393, 50169576.000000, 1900.125000, 8173.000000, 8198.500000, 8191.500000
1394, 50169736.000000, 1858.250000, 8173.500000, 8196.000000, 8190.000000
1395, 50169896.000000, 1824.625000, 8175.000000, 8193.000000, 8188.000000
1396, 50170056.000000, 1783.375000, 8175.000000, 8191.500000, 8185.500000
1397, 50170216.000000, 1726.375000, 8173.500000, 8190.500000, 8183.500000
1398, 50170376.000000, 1694.375000, 8171.500000, 8188.000000, 8178.500000
1399, 50170536.000000, 1801.625000, 8171.500000, 8184.500000, 8174.000000
1400, 50170696.000000, 2110.750000, 8178.000000, 8188.500000, 8184.500000
1401, 50170856.000000, 2573.250000, 8187.000000, 8202.500000, 8212.500000
1402, 50171016.000000, 3025.500000, 8203.000000, 8213.500000, 8240.000000
1403, 50171176.000000, 3354.500000, 8195.500000, 8205.500000, 8225.000000
1404, 50171336.000000, 3519.000000, 8177.000000, 8186.000000, 8178.500000
1405, 50171496.000000, 3536.125000, 8167.000000, 8174.000000, 8153.000000
1406, 50171656.000000, 3466.375000, 8164.500000, 8172.000000, 8150.000000
1407, 50171816.000000, 3338.125000, 8163.500000, 8176.000000, 8152.500000
1408, 50171976.000000, 3167.500000, 8158.000000, 8212.500000, 8188.500000
1409, 50172136.000000, 2974.875000, 8449.500000, 7986.000000, 8128.500000
1410, 50172296.000000, 2806.625000, 8284.000000, 7913.000000, 7937.000000
1411, 50172456.000000, 2711.250000, 8175.500000, 8171.500000, 8160.000000
1412, 50172616.000000, 2695.000000, 8167.500000, 8212.500000, 8194.500000
1413, 50172776.000000, 2724.000000, 8167.000000, 8219.000000, 8201.500000
1414, 50172936.000000, 2765.000000, 8168.500000, 8221.000000, 8203.500000
1415, 50173096.000000, 2770.500000, 8175.000000, 8224.000000, 8208.000000
1416, 50173256.000000, 2728.250000, 8182.000000, 8230.500000, 8221.000000
1417, 50173416.000000, 2643.625000, 8190.500000, 8235.500000, 8230.000000
1418, 50173576.000000, 2534.250000, 8196.500000, 8241.000000, 8241.000000
1419, 50173736.000000, 2419.875000, 8192.500000, 8241.000000, 8236.500000
1420, 50173896.000000, 2312.750000, 8189.000000, 8240.000000, 8235.000000
1421, 50174056.000000, 2207.375000, 8180.000000, 8238.000000, 8232.000000
1422, 50174216.000000, 2107.125000, 8180.000000, 8228.500000, 8227.500000
1423, 50174376.000000, 2014.125000, 8167.500000, 8210.000000, 8202.000000
1424, 50174536.000000, 1937.875000, 8157.500000, 8198.000000, 8181.500000
1425, 50174696.000000, 1877.625000, 8158.500000, 8195.000000, 8179.000000
1426, 50174856.000000, 1824.500000, 8165.500000, 8198.500000, 8186.000000
1427, 50175016.000000, 1775.500000, 8170.500000, 8199.500000, 8191.500000
1428, 50175176.000000, 1727.875000, 8174.500000, 8199.500000, 8194.000000
1429, 50175336.000000, 1687.000000, 8174.000000, 8196.500000, 8189.500000
1430, 50175496.000000, 1645.250000, 8176.500000, 8193.000000, 8187.000000
1431, 50175656.000000, 1583.125000, 8175.500000, 8191.000000, 8183.500000
1432, 50175816.000000, 1525.625000, 8174.000000, 8190.000000, 8183.000000
1433, 50175976.000000, 1542.875000, 8173.500000, 8188.000000, 8178.000000
1434, 50176136.000000, 1754.000000, 8172.500000, 8183.500000, 8172.000000
1435, 50176296.000000, 2154.625000, 8172.000000, 8182.500000, 8170.500000
1436, 50176456.000000, 2632.500000, 8173.000000, 8183.500000, 8174.000000
1437, 50176616.000000, 3029.125000, 8171.500000, 8184.000000, 8171.500000
1438, 50176776.000000, 3274.250000, 8175.500000, 8186.500000, 8177.000000
1439, 50176936.000000, 3354.500000, 8186.500000, 8199.000000, 8204.500000
1440, 50177096.000000, 3328.000000, 8199.500000, 8211.000000, 8234.000000
1441, 50177256.000000, 3231.000000, 8196.000000, 8204.500000, 8222.500000
1442, 50177416.000000, 3076.750000, 8181.500000, 8187.500000, 8182.500000
1443, 50177576.000000, 2880.750000, 8167.500000, 8174.500000, 8152.500000
1444, 50177736.000000, 2691.250000, 8168.500000, 8174.500000, 8152.000000
1445, 50177896.000000, 2568.750000, 8169.500000, 8171.500000, 8150.000000
1446, 50178056.000000, 2524.000000, 8151.000000, 8215.000000, 8185.000000
1447, 50178216.000000, 2534.375000, 8418.500000, 8066.500000, 8184.500000
1448, 50178376.000000, 2550.000000, 8354.500000, 7888.000000, 7950.000000
1449, 50178536.000000, 2538.125000, 8172.500000, 8151.500000, 8136.500000
1450, 50178696.000000, 2489.625000, 8165.000000, 8205.500000, 8184.500000
1451, 50178856.000000, 2411.500000, 8165.000000, 8216.500000, 8195.500000
1452, 50179016.000000, 2309.375000, 8165.000000, 8218.500000, 8197.500000
1453, 50179176.000000, 2198.125000, 8171.500000, 8223.000000, 8206.500000
1454, 50179336.000000, 2096.375000, 8174.500000, 8225.000000, 8210.500000
1455, 50179496.000000, 2009.000000, 8182.500000, 8230.000000, 8219.000000
1456, 50179656.000000, 1930.125000, 8188.500000, 8235.500000, 8227.500000
1457, 50179816.000000, 1852.625000, 8192.500000, 8237.500000, 8232.000000
1458, 50179976.000000, 1779.625000, 8183.500000, 8236.500000, 8227.000000
1459, 50180136.000000, 1717.250000, 8172.000000, 8234.500000, 8221.500000
1460, 50180296.000000, 1668.875000, 8172.000000, 8226.500000, 8218.500000
1461, 50180456.000000, 1628.625000, 8166.500000, 8214.500000, 8207.000000
1462, 50180616.000000, 1593.125000, 8156.000000, 8202.000000, 8189.000000
1463, 50180776.000000, 1553.375000, 8151.500000, 8199.000000, 8180.500000
1464, 50180936.000000, 1504.375000, 8160.000000, 8198.000000, 8185.000000
1465, 50181096.000000, 1450.250000, 8164.000000, 8198.000000, 8187.000000
1466, 50181256.000000, 1395.250000, 8169.500000, 8200.000000, 8194.000000
1467, 50181416.000000, 1339.000000, 8172.000000, 8198.500000, 8193.500000
1468, 50181576.000000, 1271.000000, 8172.000000, 8196.500000, 8190.500000
1469, 50181736.000000, 1180.375000, 8172.000000, 8193.500000, 8185.500000
1470, 50181896.000000, 1077.875000, 8170.000000, 8188.500000, 8179.500000
1471, 50182056.000000, 1030.625000, 8170.500000, 8186.500000, 8176.500000
1472, 50182216.000000, 1162.875000, 8171.000000, 8187.000000, 8178.000000
1473, 50182376.000000, 1531.375000, 8169.500000, 8186.000000, 8174.500000
1474, 50182536.000000, 2041.875000, 8169.500000, 8182.500000, 8170.000000
1475, 50182696.000000, 2518.125000, 8170.500000, 8184.000000, 8172.000000
1476, 50182856.000000, 2838.875000, 8172.500000, 8182.500000, 8171.000000
1477, 50183016.000000, 2969.375000, 8170.000000, 8185.500000, 8174.000000
1478, 50183176.000000, 2964.750000, 8183.500000, 8198.500000, 8202.000000
1479, 50183336.000000, 2885.250000, 8191.000000, 8206.500000, 8220.000000
1480, 50183496.000000, 2771.375000, 8193.000000, 8204.000000, 8220.000000
1481, 50183656.000000, 2631.500000, 8189.000000, 8196.500000, 8205.500000
1482, 50183816.000000, 2480.125000, 8173.000000, 8181.500000, 8167.000000
1483, 50183976.000000, 2365.375000, 8167.500000, 8175.000000, 8153.000000
1484, 50184136.000000, 2324.375000, 8167.500000, 8172.500000, 8150.500000
1485, 50184296.000000, 2353.500000, 8158.000000, 8188.500000, 8159.000000
1486, 50184456.000000, 2415.125000, 8267.000000, 8204.000000, 8247.000000
1487, 50184616.000000, 2474.125000, 8485.000000, 7879.000000, 8041.500000
1488, 50184776.000000, 2507.500000, 8157.500000, 8057.500000, 8022.500000
1489, 50184936.000000, 2506.250000, 8177.000000, 8200.000000, 8188.500000
1490, 50185096.000000, 2482.125000, 8170.500000, 8215.500000, 8199.500000
1491, 50185256.000000, 2440.125000, 8173.500000, 8220.500000, 8206.500000
1492, 50185416.000000, 2390.500000, 8176.000000, 8223.500000, 8210.500000
1493, 50185576.000000, 2345.000000, 8180.000000, 8229.000000, 8218.500000
1494, 50185736.000000, 2312.625000, 8186.500000, 8232.000000, 8225.500000
1495, 50185896.000000, 2291.250000, 8196.500000, 8237.500000, 8236.500000
1496, 50186056.000000, 2276.500000, 8203.000000, 8242.500000, 8246.500000
1497, 50186216.000000, 2269.750000, 8197.500000, 8243.500000, 8244.500000
1498, 50186376.000000, 2265.875000, 8187.000000, 8242.000000, 8239.000000
1499, 50186536.000000, 2262.125000, 8181.500000, 8238.000000, 8237.000000
1500, 50186696.000000, 2256.500000, 8177.000000, 8224.500000, 8223.500000
1501, 50186856.000000, 2244.250000, 8170.000000, 8209.000000, 8204.000000
1502, 50187016.000000, 2220.250000, 8161.500000, 8201.000000, 8190.000000
1503, 50187176.000000, 2181.375000, 8162.000000, 8200.500000, 8189.500000
1504, 50187336.000000, 2131.250000, 8170.000000, 8199.500000, 8192.000000
1505, 50187496.000000, 2077.875000, 8174.000000, 8200.000000, 8197.000000
1506, 50187656.000000, 2022.375000, 8176.500000, 8202.000000, 8200.000000
1507, 50187816.000000, 1963.125000, 8178.000000, 8199.000000, 8197.000000
1508, 50187976.000000, 1888.625000, 8178.500000, 8195.500000, 8192.000000
1509, 50188136.000000, 1795.000000, 8174.500000, 8191.500000, 8185.000000
1510, 50188296.000000, 1714.750000, 8175.000000, 8190.000000, 8184.000000
1511, 50188456.000000, 1736.875000, 8173.500000, 8188.500000, 8180.500000
1512, 50188616.000000, 1952.000000, 8175.500000, 8189.000000, 8181.500000
1513, 50188776.000000, 2359.000000, 8172.500000, 8186.000000, 8176.500000
1514, 50188936.000000, 2822.625000, 8173.000000, 8186.000000, 8176.500000
1515, 50189096.000000, 3194.500000, 8175.500000, 8185.500000, 8178.000000
1516, 50189256.000000, 3391.000000, 8175.000000, 8185.500000, 8175.500000
1517, 50189416.000000, 3409.750000, 8177.000000, 8186.000000, 8179.000000
1518, 50189576.000000, 3316.500000, 8190.500000, 8202.000000, 8214.000000
1519, 50189736.000000, 3153.250000, 8198.000000, 8212.000000, 8235.000000
1520, 50189896.000000, 2963.625000, 8196.000000, 8205.000000, 8225.000000
1521, 50190056.000000, 2754.875000, 8190.000000, 8193.500000, 8202.000000
1522, 50190216.000000, 2557.375000, 8173.500000, 8181.000000, 8165.000000
1523, 50190376.000000, 2410.875000, 8171.000000, 8175.500000, 8158.500000
1524, 50190536.000000, 2335.500000, 8171.000000, 8175.000000, 8154.500000
1525, 50190696.000000, 2321.625000, 8155.500000, 8195.500000, 8166.500000
1526, 50190856.000000, 2327.125000, 8306.500000, 8192.000000, 8259.000000
1527, 50191016.000000, 2321.250000, 8478.000000, 7877.500000, 8029.500000
1528, 50191176.000000, 2281.625000, 8159.000000, 8092.500000, 8063.000000
1529, 50191336.000000, 2198.375000, 8176.500000, 8202.000000, 8190.000000
1530, 50191496.000000, 2081.500000, 8172.500000, 8214.500000, 8199.000000
1531, 50191656.000000, 1950.500000, 8171.500000, 8221.500000, 8207.000000
1532, 50191816.000000, 1819.750000, 8175.000000, 8224.000000, 8212.000000
1533, 50191976.000000, 1698.250000, 8182.500000, 8228.000000, 8220.000000
1534, 50192136.000000, 1590.000000, 8189.000000, 8231.500000, 8227.000000
1535, 50192296.000000, 1493.500000, 8194.500000, 8234.500000, 8232.500000
1536, 50192456.000000, 1417.875000, 8200.000000, 8239.500000, 8241.500000
1537, 50192616.000000, 1362.125000, 8198.000000, 8241.000000, 8243.000000
1538, 50192776.000000, 1320.125000, 8185.500000, 8239.000000, 8235.000000
1539, 50192936.000000, 1281.375000, 8182.500000, 8234.000000, 8232.000000
1540, 50193096.000000, 1236.750000, 8176.000000, 8220.500000, 8219.000000
1541, 50193256.000000, 1191.750000, 8169.000000, 8206.500000, 8199.500000
1542, 50193416.000000, 1142.625000, 8159.000000, 8199.500000, 8186.500000
1543, 50193576.000000, 1096.375000, 8162.000000, 8198.500000, 8187.500000
1544, 50193736.000000, 1053.875000, 8168.000000, 8198.500000, 8189.500000
1545, 50193896.000000, 1013.375000, 8172.500000, 8197.000000, 8189.500000
1546, 50194056.000000, 969.000000, 8179.000000, 8198.000000, 8195.000000
1547, 50194216.000000, 929.375000, 8182.000000, 8196.500000, 8196.500000
1548, 50194376.000000, 888.750000, 8180.000000, 8194.000000, 8191.000000
1549, 50194536.000000, 841.500000, 8179.000000, 8189.500000, 8184.500000
1550, 50194696.000000, 799.625000, 8177.000000, 8185.500000, 8178.500000
1551, 50194856.000000, 832.875000, 8178.000000, 8185.500000, 8179.500000
1552, 50195016.000000, 1043.250000, 8178.000000, 8184.000000, 8176.000000
1553, 50195176.000000, 1458.750000, 8178.500000, 8185.000000, 8178.500000
1554, 50195336.000000, 1953.875000, 8176.500000, 8184.500000, 8176.500000
1555, 50195496.000000, 2380.125000, 8178.000000, 8182.500000, 8174.500000
1556, 50195656.000000, 2646.625000, 8179.000000, 8186.000000, 8179.000000
1557, 50195816.000000, 2737.625000, 8191.500000, 8203.000000, 8214.500000
1558, 50195976.000000, 2710.875000, 8201.500000, 8211.500000, 8235.000000
1559, 50196136.000000, 2611.625000, 8196.500000, 8204.500000, 8223.500000
1560, 50196296.000000, 2478.625000, 8189.500000, 8191.000000, 8195.500000
1561, 50196456.000000, 2327.250000, 8170.500000, 8177.000000, 8157.000000
1562, 50196616.000000, 2183.750000, 8169.500000, 8175.000000, 8153.500000
1563, 50196776.000000, 2084.750000, 8167.500000, 8176.500000, 8152.500000
1564, 50196936.000000, 2054.500000, 8155.500000, 8195.500000, 8163.500000
1565, 50197096.000000, 2080.000000, 8315.000000, 8195.500000, 8265.500000
1566, 50197256.000000, 2122.625000, 8476.000000, 7885.000000, 8032.500000
1567, 50197416.000000, 2146.125000, 8157.500000, 8094.000000, 8062.500000
1568, 50197576.000000, 2133.000000, 8175.500000, 8201.500000, 8187.500000
1569, 50197736.000000, 2079.875000, 8171.000000, 8213.500000, 8196.500000
1570, 50197896.000000, 1995.375000, 8172.500000, 8219.500000, 8204.000000
1571, 50198056.000000, 1898.750000, 8175.000000, 8221.500000, 8207.500000
1572, 50198216.000000, 1790.500000, 8182.500000, 8225.500000, 8217.500000
1573, 50198376.000000, 1683.375000, 8187.000000, 8229.500000, 8222.500000
1574, 50198536.000000, 1587.500000, 8196.000000, 8229.000000, 8226.000000
1575, 50198696.000000, 1502.000000, 8203.000000, 8236.000000, 8238.000000
1576, 50198856.000000, 1428.750000, 8198.500000, 8235.500000, 8235.000000
1577, 50199016.000000, 1367.250000, 8189.000000, 8234.500000, 8232.500000
1578, 50199176.000000, 1319.875000, 8183.000000, 8230.000000, 8229.000000
1579, 50199336.000000, 1279.000000, 8179.500000, 8216.500000, 8214.500000
1580, 50199496.000000, 1246.500000, 8166.000000, 8205.000000, 8198.000000
1581, 50199656.000000, 1220.000000, 8159.000000, 8198.000000, 8185.500000
1582, 50199816.000000, 1206.250000, 8160.000000, 8202.000000, 8189.000000
1583, 50199976.000000, 1189.000000, 8166.000000, 8200.000000, 8191.000000
1584, 50200136.000000, 1160.000000, 8172.000000, 8199.000000, 8193.000000
1585, 50200296.000000, 1119.625000, 8177.000000, 8197.000000, 8194.500000
1586, 50200456.000000, 1080.125000, 8176.500000, 8195.500000, 8192.500000
1587, 50200616.000000, 1040.375000, 8175.000000, 8195.500000, 8191.500000
1588, 50200776.000000, 995.750000, 8175.500000, 8190.500000, 8185.000000
1589, 50200936.000000, 950.375000, 8174.000000, 8187.000000, 8180.000000
1590, 50201096.000000, 936.375000, 8174.000000, 8186.000000, 8179.000000
1591, 50201256.000000, 1061.000000, 8173.500000, 8185.500000, 8176.500000
1592, 50201416.000000, 1377.750000, 8173.000000, 8186.000000, 8177.000000
1593, 50201576.000000, 1837.625000, 8175.500000, 8185.500000, 8178.000000
1594, 50201736.000000, 2295.125000, 8175.000000, 8187.000000, 8179.000000
1595, 50201896.000000, 2634.750000, 8190.000000, 8204.000000, 8216.000000
1596, 50202056.000000, 2802.250000, 8201.000000, 8215.000000, 8243.000000
1597, 50202216.000000, 2817.000000, 8198.000000, 8208.000000, 8231.000000
1598, 50202376.000000, 2737.375000, 8185.000000, 8190.000000, 8191.500000
1599, 50202536.000000, 2612.625000, 8170.500000, 8176.500000, 8158.500000
1600, 50202696.000000, 2459.875000, 8167.000000, 8175.000000, 8154.000000
1601, 50202856.000000, 2302.125000, 8170.000000, 8177.000000, 8156.000000
1602, 50203016.000000, 2187.625000, 8148.500000, 8211.000000, 8180.500000
1603, 50203176.000000, 2145.500000, 8382.000000, 8155.500000, 8263.000000
1604, 50203336.000000, 2163.250000, 8440.000000, 7885.000000, 8001.500000
1605, 50203496.000000, 2211.500000, 8165.500000, 8125.500000, 8104.000000
1606, 50203656.000000, 2251.875000, 8173.000000, 8205.000000, 8190.000000
1607, 50203816.000000, 2253.250000, 8171.000000, 8215.000000, 8200.000000
1608, 50203976.000000, 2215.750000, 8173.000000, 8217.000000, 8202.000000
1609, 50204136.000000, 2145.625000, 8173.500000, 8221.000000, 8206.000000
1610, 50204296.000000, 2057.375000, 8181.000000, 8223.000000, 8212.000000
1611, 50204456.000000, 1969.750000, 8188.500000, 8228.000000, 8222.000000
1612, 50204616.000000, 1887.125000, 8195.500000, 8233.000000, 8232.500000
1613, 50204776.000000, 1810.875000, 8201.000000, 8235.500000, 8236.500000
1614, 50204936.000000, 1742.000000, 8195.000000, 8232.000000, 8229.000000
1615, 50205096.000000, 1684.875000, 8185.500000, 8230.000000, 8225.000000
1616, 50205256.000000, 1641.375000, 8182.000000, 8226.500000, 8223.500000
1617, 50205416.000000, 1615.625000, 8174.500000, 8214.500000, 8212.000000
1618, 50205576.000000, 1606.875000, 8162.500000, 8201.500000, 8191.000000
1619, 50205736.000000, 1604.375000, 8158.000000, 8195.500000, 8180.500000
1620, 50205896.000000, 1602.875000, 8159.500000, 8196.500000, 8182.500000
1621, 50206056.000000, 1596.500000, 8165.500000, 8199.000000, 8190.000000
1622, 50206216.000000, 1583.250000, 8172.000000, 8200.500000, 8194.500000
1623, 50206376.000000, 1564.375000, 8172.500000, 8197.500000, 8192.000000
1624, 50206536.000000, 1545.125000, 8174.000000, 8194.000000, 8189.000000
1625, 50206696.000000, 1525.375000, 8173.000000, 8191.000000, 8182.000000
1626, 50206856.000000, 1495.875000, 8170.500000, 8191.000000, 8183.000000
1627, 50207016.000000, 1449.500000, 8170.500000, 8191.000000, 8181.000000
1628, 50207176.000000, 1414.625000, 8173.000000, 8188.000000, 8179.000000
1629, 50207336.000000, 1488.875000, 8172.500000, 8184.500000, 8175.000000
1630, 50207496.000000, 1729.000000, 8173.000000, 8184.000000, 8173.000000
1631, 50207656.000000, 2121.625000, 8173.500000, 8186.000000, 8178.000000
1632, 50207816.000000, 2536.125000, 8182.500000, 8192.000000, 8192.500000
1633, 50207976.000000, 2851.875000, 8190.000000, 8205.000000, 8215.000000
1634, 50208136.000000, 3002.625000, 8200.000000, 8210.500000, 8236.000000
1635, 50208296.000000, 3005.250000, 8196.500000, 8202.000000, 8220.000000
1636, 50208456.000000, 2904.875000, 8178.500000, 8184.500000, 8176.000000
1637, 50208616.000000, 2747.875000, 8168.000000, 8176.000000, 8155.000000
1638, 50208776.000000, 2570.250000, 8168.000000, 8173.500000, 8152.500000
1639, 50208936.000000, 2407.125000, 8167.500000, 8173.500000, 8148.500000
1640, 50209096.000000, 2294.625000, 8176.500000, 8212.000000, 8196.000000
1641, 50209256.000000, 2250.250000, 8483.500000, 8004.000000, 8164.500000
1642, 50209416.000000, 2264.000000, 8240.500000, 7963.500000, 7963.000000
1643, 50209576.000000, 2308.875000, 8176.000000, 8176.500000, 8165.500000
1644, 50209736.000000, 2351.625000, 8168.500000, 8205.500000, 8189.000000
1645, 50209896.000000, 2373.500000, 8166.500000, 8214.000000, 8195.500000
1646, 50210056.000000, 2366.375000, 8170.500000, 8214.000000, 8197.000000
1647, 50210216.000000, 2325.875000, 8174.000000, 8220.000000, 8207.000000
1648, 50210376.000000, 2257.750000, 8182.500000, 8220.500000, 8212.500000
1649, 50210536.000000, 2168.250000, 8190.000000, 8224.500000, 8219.500000
1650, 50210696.000000, 2069.250000, 8195.000000, 8227.000000, 8224.000000
1651, 50210856.000000, 1977.125000, 8197.000000, 8229.500000, 8226.500000
1652, 50211016.000000, 1899.875000, 8188.000000, 8226.500000, 8219.500000
1653, 50211176.000000, 1843.750000, 8180.500000, 8222.500000, 8215.000000
1654, 50211336.000000, 1810.750000, 8176.500000, 8214.500000, 8207.500000
1655, 50211496.000000, 1789.625000, 8165.500000, 8203.000000, 8192.500000
1656, 50211656.000000, 1775.375000, 8156.000000, 8195.500000, 8178.500000
1657, 50211816.000000, 1763.875000, 8158.000000, 8195.500000, 8178.500000
1658, 50211976.000000, 1749.500000, 8160.000000, 8197.000000, 8182.000000
1659, 50212136.000000, 1740.125000, 8166.000000, 8196.000000, 8184.000000
1660, 50212296.000000, 1737.000000, 8171.000000, 8194.500000, 8185.500000
1661, 50212456.000000, 1737.000000, 8173.500000, 8194.500000, 8187.500000
1662, 50212616.000000, 1730.125000, 8174.000000, 8194.000000, 8187.000000
1663, 50212776.000000, 1705.875000, 8172.500000, 8190.500000, 8183.000000
1664, 50212936.000000, 1658.875000, 8171.500000, 8186.000000, 8175.500000
1665, 50213096.000000, 1597.250000, 8171.500000, 8186.000000, 8175.000000
1666, 50213256.000000, 1580.500000, 8170.500000, 8185.000000, 8174.000000
1667, 50213416.000000, 1701.375000, 8173.000000, 8185.000000, 8174.000000
1668, 50213576.000000, 2014.500000, 8178.000000, 8189.500000, 8185.500000
1669, 50213736.000000, 2444.250000, 8188.500000, 8203.000000, 8212.500000
1670, 50213896.000000, 2853.250000, 8200.000000, 8211.500000, 8237.500000
1671, 50214056.000000, 3124.875000, 8195.000000, 8205.000000, 8224.000000
1672, 50214216.000000, 3236.375000, 8174.500000, 8184.500000, 8172.000000
1673, 50214376.000000, 3205.000000, 8168.000000, 8175.500000, 8154.500000
1674, 50214536.000000, 3077.750000, 8165.000000, 8173.500000, 8148.500000
1675, 50214696.000000, 2897.625000, 8165.500000, 8172.500000, 8148.000000
1676, 50214856.000000, 2688.375000, 8160.000000, 8216.500000, 8191.500000
1677, 50215016.000000, 2483.500000, 8473.500000, 8046.500000, 8199.000000
1678, 50215176.000000, 2328.000000, 8285.500000, 7943.500000, 7966.000000
1679, 50215336.000000, 2257.250000, 8176.500000, 8169.500000, 8158.500000
1680, 50215496.000000, 2264.500000, 8169.000000, 8207.000000, 8191.000000
1681, 50215656.000000, 2323.500000, 8169.000000, 8214.500000, 8198.500000
1682, 50215816.000000, 2389.875000, 8171.500000, 8218.000000, 8203.500000
1683, 50215976.000000, 2432.000000, 8174.500000, 8221.500000, 8209.000000
1684, 50216136.000000, 2425.375000, 8182.000000, 8222.500000, 8215.000000
1685, 50216296.000000, 2372.875000, 8190.000000, 8225.500000, 8221.500000
1686, 50216456.000000, 2294.750000, 8197.500000, 8230.500000, 8231.000000
1687, 50216616.000000, 2211.625000, 8202.000000, 8232.000000, 8234.000000
1688, 50216776.000000, 2140.750000, 8193.500000, 8228.500000, 8227.500000
1689, 50216936.000000, 2081.500000, 8186.000000, 8224.500000, 8223.500000
1690, 50217096.000000, 2033.625000, 8183.000000, 8221.000000, 8222.000000
1691, 50217256.000000, 1989.375000, 8170.000000, 8213.000000, 8207.500000
1692, 50217416.000000, 1950.125000, 8160.000000, 8203.500000, 8193.500000
1693, 50217576.000000, 1912.000000, 8161.000000, 8197.000000, 8184.500000
1694, 50217736.000000, 1874.000000, 8165.500000, 8198.000000, 8187.500000
1695, 50217896.000000, 1833.000000, 8172.000000, 8200.000000, 8194.000000
1696, 50218056.000000, 1793.125000, 8179.500000, 8199.000000, 8195.000000
1697, 50218216.000000, 1756.250000, 8179.500000, 8200.000000, 8197.000000
1698, 50218376.000000, 1723.500000, 8180.500000, 8196.500000, 8192.000000
1699, 50218536.000000, 1693.500000, 8185.500000, 8189.000000, 8185.000000
1700, 50218696.000000, 1659.875000, 8186.500000, 8189.000000, 8184.500000
1701, 50218856.000000, 1617.375000, 8185.500000, 8189.500000, 8185.500000
1702, 50219016.000000, 1592.375000, 8188.000000, 8189.500000, 8186.500000
1703, 50219176.000000, 1662.250000, 8191.500000, 8186.500000, 8183.500000
1704, 50219336.000000, 1891.125000, 8205.500000, 8191.000000, 8200.000000
1705, 50219496.000000, 2268.750000, 8212.000000, 8200.000000, 8216.500000
1706, 50219656.000000, 2680.250000, 8227.500000, 8208.500000, 8244.000000
1707, 50219816.000000, 3016.500000, 8224.000000, 8201.000000, 8230.500000
1708, 50219976.000000, 3212.750000, 8211.500000, 8179.000000, 8183.000000
1709, 50220136.000000, 3255.875000, 8201.000000, 8169.500000, 8164.000000
1710, 50220296.000000, 3194.000000, 8209.500000, 8167.000000, 8163.000000
1711, 50220456.000000, 3053.375000, 8209.500000, 8167.500000, 8163.500000
1712, 50220616.000000, 2866.875000, 8232.500000, 8207.500000, 8222.500000
1713, 50220776.000000, 2666.875000, 8545.000000, 8064.000000, 8252.000000
1714, 50220936.000000, 2503.750000, 8291.000000, 7979.500000, 8017.500000
1715, 50221096.000000, 2412.500000, 8212.000000, 8149.500000, 8157.000000
1716, 50221256.000000, 2390.625000, 8214.500000, 8193.000000, 8201.000000
1717, 50221416.000000, 2409.625000, 8212.000000, 8201.500000, 8208.000000
1718, 50221576.000000, 2425.625000, 8213.000000, 8203.500000, 8210.500000
1719, 50221736.000000, 2408.500000, 8219.500000, 8207.500000, 8218.000000
1720, 50221896.000000, 2357.500000, 8225.000000, 8210.500000, 8222.500000
1721, 50222056.000000, 2275.000000, 8232.500000, 8217.500000, 8234.500000
1722, 50222216.000000, 2156.250000, 8237.000000, 8223.000000, 8240.000000
1723, 50222376.000000, 2014.500000, 8234.500000, 8222.000000, 8237.500000
1724, 50222536.000000, 1860.250000, 8225.000000, 8221.000000, 8231.000000
1725, 50222696.000000, 1707.125000, 8215.000000, 8221.500000, 8231.500000
1726, 50222856.000000, 1568.250000, 8207.000000, 8218.000000, 8229.000000
1727, 50223016.000000, 1440.000000, 8192.500000, 8209.000000, 8214.500000
1728, 50223176.000000, 1326.750000, 8180.500000, 8199.500000, 8199.000000
1729, 50223336.000000, 1226.250000, 8175.000000, 8199.000000, 8194.000000
1730, 50223496.000000, 1139.125000, 8178.000000, 8199.500000, 8196.500000
1731, 50223656.000000, 1062.875000, 8185.500000, 8202.500000, 8205.000000
1732, 50223816.000000, 998.250000, 8185.500000, 8201.500000, 8204.000000
1733, 50223976.000000, 953.250000, 8190.000000, 8197.500000, 8201.500000
1734, 50224136.000000, 927.375000, 8188.000000, 8194.000000, 8198.000000
1735, 50224296.000000, 921.625000, 8189.000000, 8193.000000, 8196.000000
1736, 50224456.000000, 931.625000, 8185.000000, 8192.500000, 8194.500000
1737, 50224616.000000, 943.125000, 8187.500000, 8196.500000, 8203.500000
1738, 50224776.000000, 961.750000, 8196.000000, 8209.000000, 8227.000000
1739, 50224936.000000, 1034.500000, 8208.500000, 8217.000000, 8253.000000
1740, 50225096.000000, 1241.625000, 8204.000000, 8209.000000, 8237.000000
1741, 50225256.000000, 1609.250000, 8182.500000, 8189.500000, 8187.500000
1742, 50225416.000000, 2049.875000, 8171.000000, 8178.000000, 8161.500000
1743, 50225576.000000, 2434.000000, 8167.000000, 8175.500000, 8154.500000
1744, 50225736.000000, 2685.500000, 8168.000000, 8172.000000, 8151.000000
1745, 50225896.000000, 2788.625000, 8144.000000, 8211.000000, 8177.500000
1746, 50226056.000000, 2763.750000, 8414.000000, 8075.500000, 8196.500000
1747, 50226216.000000, 2647.250000, 8367.500000, 7884.000000, 7956.000000
1748, 50226376.000000, 2465.375000, 8167.000000, 8149.000000, 8131.500000
1749, 50226536.000000, 2252.500000, 8167.000000, 8207.000000, 8188.000000
1750, 50226696.000000, 2065.250000, 8164.000000, 8215.500000, 8194.500000
1751, 50226856.000000, 1961.125000, 8167.000000, 8220.500000, 8203.000000
1752, 50227016.000000, 1946.750000, 8169.000000, 8224.000000, 8208.000000
1753, 50227176.000000, 1996.875000, 8176.000000, 8225.500000, 8212.500000
1754, 50227336.000000, 2072.875000, 8184.000000, 8231.000000, 8222.000000
1755, 50227496.000000, 2140.750000, 8194.000000, 8236.500000, 8233.000000
1756, 50227656.000000, 2175.375000, 8193.500000, 8239.500000, 8235.000000
1757, 50227816.000000, 2169.625000, 8191.000000, 8238.500000, 8233.500000
1758, 50227976.000000, 2139.500000, 8180.000000, 8235.000000, 8228.500000
1759, 50228136.000000, 2086.250000, 8175.500000, 8225.000000, 8219.500000
1760, 50228296.000000, 2026.000000, 8165.000000, 8211.000000, 8200.500000
1761, 50228456.000000, 1967.625000, 8158.000000, 8200.000000, 8185.000000
1762, 50228616.000000, 1913.375000, 8154.000000, 8198.000000, 8182.000000
1763, 50228776.000000, 1862.500000, 8158.000000, 8198.000000, 8181.000000
1764, 50228936.000000, 1817.875000, 8166.500000, 8198.000000, 8186.500000
1765, 50229096.000000, 1780.250000, 8168.500000, 8198.500000, 8189.000000
1766, 50229256.000000, 1746.375000, 8176.500000, 8197.000000, 8190.000000
1767, 50229416.000000, 1713.875000, 8170.500000, 8194.500000, 8185.500000
1768, 50229576.000000, 1684.500000, 8178.500000, 8191.500000, 8180.000000
1769, 50229736.000000, 1651.625000, 8171.000000, 8186.000000, 8175.500000
1770, 50229896.000000, 1603.125000, 8182.500000, 8187.500000, 8182.500000
1771, 50230056.000000, 1558.000000, 8193.000000, 8201.500000, 8211.000000
1772, 50230216.000000, 1587.500000, 8209.500000, 8211.500000, 8243.000000
1773, 50230376.000000, 1798.000000, 8202.500000, 8203.000000, 8227.000000
1774, 50230536.000000, 2175.875000, 8192.000000, 8185.500000, 8187.500000
1775, 50230696.000000, 2637.375000, 8185.000000, 8172.000000, 8163.000000
1776, 50230856.000000, 3033.125000, 8182.500000, 8168.500000, 8158.500000
1777, 50231016.000000, 3281.750000, 8189.500000, 8168.500000, 8160.500000
1778, 50231176.000000, 3365.125000, 8169.500000, 8202.000000, 8184.500000
1779, 50231336.000000, 3325.500000, 8413.500000, 8152.500000, 8274.500000
1780, 50231496.000000, 3202.875000, 8467.500000, 7884.000000, 8022.500000
1781, 50231656.000000, 3022.000000, 8177.000000, 8105.500000, 8089.500000
1782, 50231816.000000, 2812.750000, 8193.500000, 8197.000000, 8196.000000
1783, 50231976.000000, 2620.875000, 8191.000000, 8204.500000, 8201.500000
1784, 50232136.000000, 2487.625000, 8193.000000, 8208.000000, 8204.000000
1785, 50232296.000000, 2423.000000, 8200.500000, 8213.500000, 8214.000000
1786, 50232456.000000, 2397.000000, 8204.500000, 8219.000000, 8220.500000
1787, 50232616.000000, 2368.000000, 8213.500000, 8223.000000, 8228.500000
1788, 50232776.000000, 2312.000000, 8218.500000, 8226.000000, 8233.500000
1789, 50232936.000000, 2217.500000, 8222.000000, 8226.000000, 8233.000000
1790, 50233096.000000, 2092.625000, 8217.000000, 8228.000000, 8234.000000
1791, 50233256.000000, 1938.375000, 8206.500000, 8231.500000, 8235.000000
1792, 50233416.000000, 1770.875000, 8198.000000, 8227.000000, 8232.000000
1793, 50233576.000000, 1610.625000, 8187.500000, 8212.000000, 8214.000000
1794, 50233736.000000, 1465.500000, 8170.500000, 8199.000000, 8189.000000
1795, 50233896.000000, 1345.750000, 8171.000000, 8198.000000, 8189.000000
1796, 50234056.000000, 1255.125000, 8171.500000, 8200.000000, 8190.500000
1797, 50234216.000000, 1187.625000, 8174.500000, 8200.000000, 8194.500000
1798, 50234376.000000, 1136.875000, 8179.500000, 8198.000000, 8193.000000
1799, 50234536.000000, 1097.250000, 8182.000000, 8198.000000, 8196.500000
1800, 50234696.000000, 1068.125000, 8183.500000, 8195.500000, 8195.000000
1801, 50234856.000000, 1053.500000, 8182.000000, 8194.000000, 8192.500000
1802, 50235016.000000, 1048.875000, 8179.000000, 8192.000000, 8187.000000
1803, 50235176.000000, 1043.750000, 8179.500000, 8192.500000, 8190.500000
1804, 50235336.000000, 1049.875000, 8194.000000, 8205.500000, 8221.500000
1805, 50235496.000000, 1134.000000, 8204.000000, 8218.000000, 8250.000000
1806, 50235656.000000, 1364.625000, 8199.000000, 8210.000000, 8234.000000
1807, 50235816.000000, 1793.875000, 8182.500000, 8190.500000, 8190.500000
1808, 50235976.000000, 2317.250000, 8169.500000, 8176.500000, 8159.000000
1809, 50236136.000000, 2808.375000, 8165.500000, 8173.000000, 8152.500000
1810, 50236296.000000, 3147.875000, 8169.000000, 8171.500000, 8153.500000
1811, 50236456.000000, 3318.875000, 8148.500000, 8205.000000, 8176.500000
1812, 50236616.000000, 3335.125000, 8362.500000, 8138.500000, 8237.500000
1813, 50236776.000000, 3247.000000, 8444.000000, 7849.000000, 7976.000000
1814, 50236936.000000, 3096.375000, 8161.000000, 8117.500000, 8093.500000
1815, 50237096.000000, 2896.750000, 8173.000000, 8206.000000, 8192.500000
1816, 50237256.000000, 2701.500000, 8166.000000, 8218.500000, 8201.500000
1817, 50237416.000000, 2554.875000, 8170.000000, 8221.000000, 8206.500000
1818, 50237576.000000, 2484.625000, 8174.000000, 8224.000000, 8211.000000
1819, 50237736.000000, 2475.500000, 8179.000000, 8226.500000, 8215.500000
1820, 50237896.000000, 2497.125000, 8189.000000, 8233.000000, 8226.500000
1821, 50238056.000000, 2512.875000, 8196.000000, 8239.500000, 8239.500000
1822, 50238216.000000, 2505.125000, 8199.000000, 8241.000000, 8241.000000
1823, 50238376.000000, 2452.500000, 8193.000000, 8239.500000, 8237.500000
1824, 50238536.000000, 2358.125000, 8185.000000, 8236.000000, 8231.000000
1825, 50238696.000000, 2234.500000, 8180.500000, 8229.000000, 8228.500000
1826, 50238856.000000, 2104.875000, 8170.000000, 8214.000000, 8209.000000
1827, 50239016.000000, 1974.250000, 8159.000000, 8203.500000, 8192.500000
1828, 50239176.000000, 1878.000000, 8155.000000, 8196.500000, 8181.000000
1829, 50239336.000000, 1821.250000, 8160.500000, 8198.000000, 8186.500000
1830, 50239496.000000, 1772.875000, 8163.500000, 8199.500000, 8190.000000
1831, 50239656.000000, 1731.000000, 8172.000000, 8202.500000, 8196.500000
1832, 50239816.000000, 1695.500000, 8175.500000, 8199.500000, 8196.000000
1833, 50239976.000000, 1658.500000, 8173.500000, 8197.000000, 8193.000000
1834, 50240136.000000, 1611.875000, 8173.000000, 8192.500000, 8185.500000
1835, 50240296.000000, 1558.000000, 8175.000000, 8191.000000, 8185.000000
1836, 50240456.000000, 1513.500000, 8173.000000, 8189.500000, 8182.500000
1837, 50240616.000000, 1586.750000, 8173.500000, 8187.500000, 8181.500000
1838, 50240776.000000, 1912.875000, 8179.500000, 8193.500000, 8194.000000
1839, 50240936.000000, 2364.000000, 8189.500000, 8204.500000, 8216.000000
1840, 50241096.000000, 2826.375000, 8200.500000, 8215.500000, 8244.000000
1841, 50241256.000000, 3183.875000, 8196.000000, 8207.000000, 8229.000000
1842, 50241416.000000, 3374.375000, 8176.000000, 8188.000000, 8179.500000
1843, 50241576.000000, 3409.125000, 8165.000000, 8176.500000, 8155.500000
1844, 50241736.000000, 3334.500000, 8164.000000, 8173.000000, 8149.500000
1845, 50241896.000000, 3180.000000, 8167.500000, 8174.000000, 8152.000000
1846, 50242056.000000, 2976.875000, 8152.500000, 8216.500000, 8188.500000
1847, 50242216.000000, 2758.500000, 8439.000000, 8024.000000, 8158.000000
1848, 50242376.000000, 2581.625000, 8312.500000, 7895.500000, 7934.000000
1849, 50242536.000000, 2481.750000, 8170.000000, 8164.500000, 8150.000000
1850, 50242696.000000, 2457.500000, 8167.500000, 8211.500000, 8193.500000
1851, 50242856.000000, 2478.500000, 8165.500000, 8219.000000, 8199.500000
1852, 50243016.000000, 2507.625000, 8166.500000, 8223.500000, 8205.000000
1853, 50243176.000000, 2502.375000, 8168.500000, 8225.000000, 8207.500000
1854, 50243336.000000, 2458.125000, 8176.000000, 8228.000000, 8214.500000
1855, 50243496.000000, 2371.625000, 8185.000000, 8236.000000, 8230.500000
1856, 50243656.000000, 2261.875000, 8194.000000, 8243.000000, 8240.000000
1857, 50243816.000000, 2142.000000, 8194.000000, 8241.000000, 8238.000000
1858, 50243976.000000, 2029.000000, 8184.500000, 8238.000000, 8231.500000
1859, 50244136.000000, 1941.250000, 8178.500000, 8236.500000, 8230.000000
1860, 50244296.000000, 1878.375000, 8174.000000, 8225.500000, 8221.000000
1861, 50244456.000000, 1825.875000, 8167.000000, 8212.500000, 8207.000000
1862, 50244616.000000, 1774.375000, 8157.500000, 8201.000000, 8187.500000
1863, 50244776.000000, 1723.125000, 8154.000000, 8195.500000, 8179.500000
1864, 50244936.000000, 1680.250000, 8158.500000, 8196.000000, 8181.000000
1865, 50245096.000000, 1646.875000, 8165.500000, 8198.000000, 8188.500000
1866, 50245256.000000, 1615.500000, 8169.500000, 8200.500000, 8193.000000
1867, 50245416.000000, 1588.125000, 8172.000000, 8197.500000, 8191.500000
1868, 50245576.000000, 1551.625000, 8175.000000, 8193.500000, 8187.500000
1869, 50245736.000000, 1495.125000, 8173.000000, 8192.000000, 8182.500000
1870, 50245896.000000, 1429.875000, 8171.000000, 8188.500000, 8179.500000
1871, 50246056.000000, 1418.125000, 8172.500000, 8186.500000, 8177.000000
1872, 50246216.000000, 1563.375000, 8172.000000, 8185.500000, 8173.500000
1873, 50246376.000000, 1912.875000, 8172.000000, 8183.500000, 8171.500000
1874, 50246536.000000, 2385.000000, 8181.000000, 8190.500000, 8191.000000
1875, 50246696.000000, 2827.250000, 8190.500000, 8203.500000, 8214.500000
1876, 50246856.000000, 3126.000000, 8195.000000, 8210.500000, 8231.500000
1877, 50247016.000000, 3239.000000, 8191.000000, 8201.000000, 8214.500000
1878, 50247176.000000, 3216.000000, 8173.000000, 8180.500000, 8166.500000
1879, 50247336.000000, 3088.625000, 8165.000000, 8173.000000, 8148.500000
1880, 50247496.000000, 2903.375000, 8166.500000, 8173.000000, 8149.500000
1881, 50247656.000000, 2687.000000, 8165.500000, 8176.000000, 8152.000000
1882, 50247816.000000, 2482.250000, 8170.000000, 8208.500000, 8189.000000
1883, 50247976.000000, 2336.125000, 8458.000000, 7964.000000, 8110.500000
1884, 50248136.000000, 2268.875000, 8246.000000, 7938.000000, 7941.000000
1885, 50248296.000000, 2268.000000, 8176.000000, 8179.500000, 8170.000000
1886, 50248456.000000, 2295.250000, 8169.000000, 8214.500000, 8198.500000
1887, 50248616.000000, 2314.125000, 8168.500000, 8222.500000, 8206.000000
1888, 50248776.000000, 2305.125000, 8169.500000, 8222.000000, 8206.500000
1889, 50248936.000000, 2252.500000, 8174.500000, 8226.000000, 8213.500000
1890, 50249096.000000, 2168.125000, 8182.000000, 8231.500000, 8222.500000
1891, 50249256.000000, 2065.750000, 8187.000000, 8237.000000, 8231.000000
1892, 50249416.000000, 1959.625000, 8196.000000, 8239.000000, 8237.000000
1893, 50249576.000000, 1851.125000, 8194.500000, 8239.000000, 8235.000000
1894, 50249736.000000, 1751.250000, 8187.000000, 8236.500000, 8230.500000
1895, 50249896.000000, 1663.625000, 8179.500000, 8233.500000, 8226.500000
1896, 50250056.000000, 1594.250000, 8174.000000, 8225.500000, 8221.000000
1897, 50250216.000000, 1546.000000, 8165.000000, 8209.000000, 8199.500000
1898, 50250376.000000, 1510.250000, 8154.500000, 8199.000000, 8181.500000
1899, 50250536.000000, 1473.000000, 8155.000000, 8195.000000, 8178.000000
1900, 50250696.000000, 1431.625000, 8160.000000, 8198.500000, 8184.500000
1901, 50250856.000000, 1385.125000, 8164.500000, 8199.500000, 8187.500000
1902, 50251016.000000, 1337.875000, 8171.000000, 8198.500000, 8191.500000
1903, 50251176.000000, 1297.625000, 8172.000000, 8195.000000, 8187.000000
1904, 50251336.000000, 1256.875000, 8174.000000, 8195.000000, 8188.000000
1905, 50251496.000000, 1209.250000, 8172.000000, 8191.000000, 8183.000000
1906, 50251656.000000, 1153.625000, 8173.000000, 8190.000000, 8181.000000
1907, 50251816.000000, 1137.750000, 8171.500000, 8186.500000, 8176.000000
1908, 50251976.000000, 1249.000000, 8172.500000, 8182.500000, 8171.000000
1909, 50252136.000000, 1560.875000, 8172.500000, 8182.000000, 8170.500000
1910, 50252296.000000, 1995.375000, 8174.000000, 8185.500000, 8176.500000
1911, 50252456.000000, 2418.875000, 8173.000000, 8183.000000, 8172.000000
1912, 50252616.000000, 2717.125000, 8174.500000, 8184.500000, 8174.000000
1913, 50252776.000000, 2843.125000, 8184.500000, 8193.500000, 8196.500000
1914, 50252936.000000, 2821.625000, 8192.000000, 8204.000000, 8217.000000
1915, 50253096.000000, 2707.125000, 8195.500000, 8207.500000, 8227.000000
1916, 50253256.000000, 2538.375000, 8193.500000, 8199.000000, 8214.000000
1917, 50253416.000000, 2338.125000, 8173.500000, 8182.500000, 8168.500000
1918, 50253576.000000, 2150.375000, 8169.000000, 8172.500000, 8150.500000
1919, 50253736.000000, 2026.500000, 8168.000000, 8173.500000, 8150.500000
1920, 50253896.000000, 1977.750000, 8165.000000, 8177.500000, 8152.000000
1921, 50254056.000000, 1986.625000, 8196.500000, 8200.500000, 8194.000000
1922, 50254216.000000, 2008.875000, 8470.500000, 7933.500000, 8091.000000
1923, 50254376.000000, 2018.375000, 8193.500000, 7985.000000, 7961.500000
1924, 50254536.000000, 2002.125000, 8178.500000, 8185.500000, 8173.000000
1925, 50254696.000000, 1951.125000, 8171.500000, 8210.500000, 8194.000000
1926, 50254856.000000, 1874.750000, 8171.000000, 8218.500000, 8202.000000
1927, 50255016.000000, 1787.500000, 8172.500000, 8221.500000, 8206.000000
1928, 50255176.000000, 1694.125000, 8178.000000, 8224.000000, 8211.000000
1929, 50255336.000000, 1597.250000, 8186.000000, 8228.000000, 8219.500000
1930, 50255496.000000, 1503.625000, 8193.000000, 8234.500000, 8230.500000
1931, 50255656.000000, 1422.250000, 8200.500000, 8238.000000, 8238.500000
1932, 50255816.000000, 1357.500000, 8196.000000, 8238.000000, 8234.000000
1933, 50255976.000000, 1314.250000, 8188.000000, 8233.500000, 8228.000000
1934, 50256136.000000, 1285.875000, 8181.500000, 8231.000000, 8224.500000
1935, 50256296.000000, 1264.000000, 8178.000000, 8222.000000, 8219.000000
1936, 50256456.000000, 1246.250000, 8166.000000, 8208.500000, 8198.500000
1937, 50256616.000000, 1231.250000, 8158.500000, 8198.000000, 8183.000000
1938, 50256776.000000, 1213.000000, 8158.000000, 8196.000000, 8180.500000
1939, 50256936.000000, 1193.000000, 8163.500000, 8197.000000, 8183.500000
1940, 50257096.000000, 1173.000000, 8170.000000, 8199.500000, 8190.500000
1941, 50257256.000000, 1149.125000, 8173.000000, 8199.500000, 8192.500000
1942, 50257416.000000, 1117.875000, 8176.000000, 8196.500000, 8191.000000
1943, 50257576.000000, 1075.750000, 8175.000000, 8192.500000, 8184.500000
1944, 50257736.000000, 1019.875000, 8173.500000, 8191.500000, 8184.500000
1945, 50257896.000000, 961.500000, 8172.500000, 8189.500000, 8181.000000
1946, 50258056.000000, 960.750000, 8173.500000, 8188.000000, 8180.000000
1947, 50258216.000000, 1108.625000, 8175.500000, 8187.500000, 8180.000000
1948, 50258376.000000, 1443.500000, 8174.000000, 8183.000000, 8174.000000
1949, 50258536.000000, 1889.375000, 8174.000000, 8183.000000, 8172.500000
1950, 50258696.000000, 2309.625000, 8176.000000, 8186.000000, 8177.000000
1951, 50258856.000000, 2587.125000, 8189.500000, 8201.500000, 8213.000000
1952, 50259016.000000, 2706.000000, 8197.500000, 8210.000000, 8230.000000
1953, 50259176.000000, 2688.375000, 8196.500000, 8206.000000, 8227.000000
1954, 50259336.000000, 2586.125000, 8191.000000, 8195.500000, 8205.000000
1955, 50259496.000000, 2433.125000, 8175.000000, 8181.000000, 8167.000000
1956, 50259656.000000, 2258.250000, 8171.000000, 8176.000000, 8157.500000
1957, 50259816.000000, 2093.500000, 8171.500000, 8174.500000, 8156.000000
1958, 50259976.000000, 1979.000000, 8165.500000, 8183.000000, 8157.000000
1959, 50260136.000000, 1943.750000, 8239.000000, 8206.000000, 8228.500000
1960, 50260296.000000, 1961.625000, 8488.500000, 7911.000000, 8082.500000
1961, 50260456.000000, 1996.125000, 8164.000000, 8030.500000, 7998.000000
1962, 50260616.000000, 2015.750000, 8183.000000, 8194.000000, 8186.500000
1963, 50260776.000000, 1997.875000, 8176.000000, 8214.000000, 8201.000000
1964, 50260936.000000, 1950.625000, 8175.000000, 8218.000000, 8206.000000
1965, 50261096.000000, 1879.250000, 8177.000000, 8222.000000, 8213.000000
1966, 50261256.000000, 1803.250000, 8186.000000, 8227.000000, 8222.000000
1967, 50261416.000000, 1732.125000, 8193.000000, 8227.500000, 8227.500000
1968, 50261576.000000, 1666.875000, 8201.000000, 8231.000000, 8233.000000
1969, 50261736.000000, 1608.250000, 8208.500000, 8234.500000, 8240.500000
1970, 50261896.000000, 1559.875000, 8207.500000, 8235.500000, 8242.000000
1971, 50262056.000000, 1520.250000, 8198.000000, 8232.000000, 8235.000000
1972, 50262216.000000, 1491.875000, 8190.500000, 8229.000000, 8232.000000
1973, 50262376.000000, 1472.875000, 8184.000000, 8217.500000, 8221.000000
1974, 50262536.000000, 1459.500000, 8171.000000, 8205.500000, 8201.000000
1975, 50262696.000000, 1452.750000, 8161.500000, 8198.000000, 8188.000000
1976, 50262856.000000, 1442.375000, 8161.500000, 8197.500000, 8187.500000
1977, 50263016.000000, 1426.625000, 8167.500000, 8198.500000, 8190.500000
1978, 50263176.000000, 1403.750000, 8172.000000, 8198.500000, 8192.500000
1979, 50263336.000000, 1378.750000, 8178.500000, 8197.500000, 8195.000000
1980, 50263496.000000, 1357.875000, 8179.000000, 8198.500000, 8198.500000
1981, 50263656.000000, 1330.875000, 8179.000000, 8195.500000, 8192.500000
1982, 50263816.000000, 1293.750000, 8176.000000, 8191.500000, 8186.500000
1983, 50263976.000000, 1245.500000, 8175.000000, 8187.500000, 8180.500000
1984, 50264136.000000, 1218.000000, 8172.500000, 8186.500000, 8177.000000
1985, 50264296.000000, 1281.250000, 8173.500000, 8188.000000, 8180.000000
1986, 50264456.000000, 1503.625000, 8177.000000, 8186.500000, 8179.500000
1987, 50264616.000000, 1852.625000, 8176.000000, 8184.500000, 8175.500000
1988, 50264776.000000, 2227.750000, 8175.500000, 8182.000000, 8170.500000
1989, 50264936.000000, 2511.000000, 8185.000000, 8189.500000, 8189.000000
1990, 50265096.000000, 2658.500000, 8191.500000, 8203.000000, 8214.500000
1991, 50265256.000000, 2669.875000, 8205.000000, 8214.500000, 8243.500000
1992, 50265416.000000, 2589.875000, 8201.000000, 8206.000000, 8228.000000
1993, 50265576.000000, 2455.500000, 8181.500000, 8185.000000, 8177.500000
1994, 50265736.000000, 2292.500000, 8174.500000, 8176.500000, 8160.000000
1995, 50265896.000000, 2133.375000, 8173.500000, 8174.500000, 8156.500000
1996, 50266056.000000, 2014.125000, 8174.000000, 8177.000000, 8160.000000
1997, 50266216.000000, 1965.625000, 8159.500000, 8215.500000, 8191.000000
1998, 50266376.000000, 1981.250000, 8432.500000, 8076.000000, 8203.500000
1999, 50266536.000000, 2034.375000, 8344.500000, 7908.500000, 7965.000000
2000, 50266696.000000, 2082.250000, 8178.500000, 8157.000000, 8147.000000
2001, 50266856.000000, 2094.125000, 8175.500000, 8212.500000, 8199.000000
2002, 50267016.000000, 2061.250000, 8174.500000, 8215.500000, 8202.000000
2003, 50267176.000000, 1996.250000, 8177.000000, 8218.000000, 8205.000000
2004, 50267336.000000, 1915.875000, 8180.000000, 8222.500000, 8211.500000
2005, 50267496.000000, 1838.875000, 8186.500000, 8228.000000, 8221.500000
2006, 50267656.000000, 1770.000000, 8195.000000, 8232.500000, 8232.500000
2007, 50267816.000000, 1711.625000, 8203.000000, 8233.500000, 8235.500000
2008, 50267976.000000, 1657.375000, 8205.000000, 8235.000000, 8237.000000
2009, 50268136.000000, 1604.875000, 8199.000000, 8233.000000, 8231.000000
2010, 50268296.000000, 1558.000000, 8190.000000, 8233.000000, 8232.500000
2011, 50268456.000000, 1518.625000, 8185.000000, 8225.500000, 8226.000000
2012, 50268616.000000, 1488.625000, 8174.000000, 8210.000000, 8205.500000
2013, 50268776.000000, 1464.375000, 8165.500000, 8200.000000, 8190.500000
2014, 50268936.000000, 1449.250000, 8160.000000, 8194.000000, 8180.000000
2015, 50269096.000000, 1436.500000, 8164.500000, 8197.000000, 8187.000000
2016, 50269256.000000, 1422.125000, 8172.500000, 8201.000000, 8195.500000
2017, 50269416.000000, 1403.625000, 8176.500000, 8198.000000, 8195.000000
2018, 50269576.000000, 1389.500000, 8175.500000, 8196.000000, 8190.500000
2019, 50269736.000000, 1377.875000, 8179.000000, 8193.500000, 8190.000000
2020, 50269896.000000, 1363.250000, 8178.500000, 8193.000000, 8189.500000
2021, 50270056.000000, 1343.750000, 8175.500000, 8192.000000, 8186.500000
2022, 50270216.000000, 1321.875000, 8175.000000, 8186.500000, 8178.500000
2023, 50270376.000000, 1343.125000, 8175.000000, 8186.000000, 8178.000000
2024, 50270536.000000, 1483.750000, 8175.500000, 8184.500000, 8176.000000
2025, 50270696.000000, 1785.000000, 8174.500000, 8185.000000, 8175.500000
2026, 50270856.000000, 2175.625000, 8179.500000, 8191.500000, 8189.500000
2027, 50271016.000000, 2538.750000, 8190.500000, 8203.000000, 8214.000000
2028, 50271176.000000, 2788.750000, 8201.500000, 8212.000000, 8239.500000
2029, 50271336.000000, 2886.750000, 8197.000000, 8206.500000, 8228.500000
2030, 50271496.000000, 2869.875000, 8179.000000, 8189.000000, 8182.500000
2031, 50271656.000000, 2765.500000, 8166.500000, 8180.000000, 8158.500000
2032, 50271816.000000, 2613.625000, 8167.500000, 8175.500000, 8153.500000
2033, 50271976.000000, 2443.500000, 8168.500000, 8174.000000, 8152.500000
2034, 50272136.000000, 2294.125000, 8150.500000, 8215.000000, 8185.000000
2035, 50272296.000000, 2203.625000, 8414.500000, 8114.500000, 8235.000000
2036, 50272456.000000, 2183.750000, 8387.000000, 7901.000000, 7985.000000
2037, 50272616.000000, 2209.750000, 8168.500000, 8147.000000, 8129.500000
2038, 50272776.000000, 2245.250000, 8174.000000, 8206.500000, 8192.000000
2039, 50272936.000000, 2259.000000, 8168.500000, 8216.000000, 8197.500000
2040, 50273096.000000, 2237.500000, 8171.500000, 8222.500000, 8208.000000
2041, 50273256.000000, 2180.750000, 8173.500000, 8222.000000, 8209.000000
2042, 50273416.000000, 2107.125000, 8181.500000, 8225.000000, 8216.500000
2043, 50273576.000000, 2026.750000, 8191.000000, 8228.000000, 8222.500000
2044, 50273736.000000, 1943.875000, 8197.500000, 8232.500000, 8230.500000
2045, 50273896.000000, 1862.625000, 8201.500000, 8236.500000, 8238.000000
2046, 50274056.000000, 1793.875000, 8195.000000, 8231.500000, 8228.500000
2047, 50274216.000000, 1737.125000, 8188.500000, 8229.500000, 8225.500000
2048, 50274376.000000, 1697.500000, 8184.500000, 8221.500000, 8221.500000
2049, 50274536.000000, 1671.375000, 8173.000000, 8209.000000, 8203.500000
2050, 50274696.000000, 1651.125000, 8161.000000, 8202.000000, 8190.500000
2051, 50274856.000000, 1634.625000, 8158.500000, 8196.000000, 8181.000000
2052, 50275016.000000, 1618.250000, 8158.500000, 8196.500000, 8181.500000
2053, 50275176.000000, 1600.375000, 8166.000000, 8196.500000, 8184.500000
2054, 50275336.000000, 1580.000000, 8170.500000, 8198.500000, 8190.500000
2055, 50275496.000000, 1561.250000, 8174.000000, 8198.500000, 8193.500000
2056, 50275656.000000, 1544.750000, 8173.500000, 8198.000000, 8190.000000
2057, 50275816.000000, 1517.500000, 8174.500000, 8192.000000, 8181.500000
2058, 50275976.000000, 1480.625000, 8170.500000, 8190.000000, 8180.000000
2059, 50276136.000000, 1431.125000, 8176.000000, 8187.000000, 8175.000000
2060, 50276296.000000, 1398.500000, 8174.500000, 8184.500000, 8175.000000
2061, 50276456.000000, 1461.875000, 8182.500000, 8186.000000, 8177.000000
2062, 50276616.000000, 1674.000000, 8183.500000, 8180.500000, 8174.000000
2063, 50276776.000000, 2024.375000, 8200.500000, 8194.500000, 8207.000000
2064, 50276936.000000, 2393.500000, 8217.000000, 8208.500000, 8237.000000
2065, 50277096.000000, 2687.625000, 8220.500000, 8206.500000, 8236.500000
2066, 50277256.000000, 2847.125000, 8210.500000, 8192.000000, 8209.500000
2067, 50277416.000000, 2882.625000, 8199.500000, 8176.000000, 8172.500000
2068, 50277576.000000, 2827.375000, 8201.500000, 8170.500000, 8168.000000
2069, 50277736.000000, 2716.500000, 8207.000000, 8168.500000, 8167.500000
2070, 50277896.000000, 2569.125000, 8196.500000, 8186.000000, 8181.000000
2071, 50278056.000000, 2414.500000, 8337.000000, 8210.000000, 8290.000000
2072, 50278216.000000, 2295.250000, 8540.000000, 7926.500000, 8115.500000
2073, 50278376.000000, 2242.750000, 8186.000000, 8046.500000, 8030.000000
2074, 50278536.000000, 2244.250000, 8216.500000, 8181.500000, 8193.000000
2075, 50278696.000000, 2267.375000, 8209.500000, 8201.000000, 8208.500000
2076, 50278856.000000, 2273.375000, 8212.500000, 8207.000000, 8215.500000
2077, 50279016.000000, 2246.375000, 8214.000000, 8209.000000, 8218.500000
2078, 50279176.000000, 2190.250000, 8220.000000, 8212.000000, 8222.000000
2079, 50279336.000000, 2106.250000, 8227.500000, 8218.500000, 8233.000000
2080, 50279496.000000, 2005.875000, 8234.000000, 8223.500000, 8240.500000
2081, 50279656.000000, 1904.625000, 8244.000000, 8226.500000, 8246.000000
2082, 50279816.000000, 1813.375000, 8237.500000, 8225.500000, 8241.000000
2083, 50279976.000000, 1749.250000, 8226.000000, 8227.000000, 8239.000000
2084, 50280136.000000, 1701.875000, 8219.500000, 8227.000000, 8238.500000
2085, 50280296.000000, 1657.125000, 8204.500000, 8216.500000, 8225.500000
2086, 50280456.000000, 1605.250000, 8188.000000, 8204.500000, 8205.000000
2087, 50280616.000000, 1550.875000, 8181.500000, 8197.500000, 8192.000000
2088, 50280776.000000, 1498.000000, 8176.500000, 8197.000000, 8189.000000
2089, 50280936.000000, 1436.750000, 8181.000000, 8199.500000, 8194.500000
2090, 50281096.000000, 1369.750000, 8188.000000, 8202.000000, 8204.000000
2091, 50281256.000000, 1312.125000, 8192.000000, 8198.500000, 8200.500000
2092, 50281416.000000, 1277.125000, 8193.000000, 8194.000000, 8196.000000
2093, 50281576.000000, 1271.875000, 8188.000000, 8193.000000, 8193.000000
2094, 50281736.000000, 1290.375000, 8186.000000, 8192.000000, 8191.000000
2095, 50281896.000000, 1319.500000, 8186.000000, 8192.000000, 8193.000000
2096, 50282056.000000, 1351.000000, 8184.500000, 8189.000000, 8186.500000
2097, 50282216.000000, 1405.000000, 8196.000000, 8200.500000, 8215.000000
2098, 50282376.000000, 1553.750000, 8203.000000, 8210.000000, 8233.500000
2099, 50282536.000000, 1852.750000, 8205.500000, 8209.500000, 8238.500000
2100, 50282696.000000, 2274.625000, 8198.000000, 8199.000000, 8216.000000
2101, 50282856.000000, 2717.875000, 8180.500000, 8182.000000, 8171.500000
2102, 50283016.000000, 3091.125000, 8171.500000, 8174.500000, 8157.000000
2103, 50283176.000000, 3323.750000, 8171.000000, 8171.000000, 8152.000000
2104, 50283336.000000, 3413.875000, 8167.000000, 8178.000000, 8152.500000
2105, 50283496.000000, 3376.125000, 8214.500000, 8199.000000, 8207.000000
2106, 50283656.000000, 3231.500000, 8484.000000, 7937.000000, 8104.500000
2107, 50283816.000000, 3025.375000, 8183.000000, 7993.500000, 7970.000000
2108, 50283976.000000, 2809.500000, 8178.500000, 8184.000000, 8172.500000
2109, 50284136.000000, 2645.875000, 8170.500000, 8211.000000, 8195.000000
2110, 50284296.000000, 2555.875000, 8172.000000, 8218.500000, 8204.500000
2111, 50284456.000000, 2534.000000, 8172.500000, 8221.000000, 8207.500000
2112, 50284616.000000, 2546.875000, 8176.500000, 8224.000000, 8212.000000
2113, 50284776.000000, 2559.625000, 8186.500000, 8228.500000, 8222.500000
2114, 50284936.000000, 2538.875000, 8196.500000, 8236.000000, 8236.000000
2115, 50285096.000000, 2480.625000, 8202.000000, 8240.000000, 8241.500000
2116, 50285256.000000, 2390.500000, 8201.500000, 8240.500000, 8242.000000
2117, 50285416.000000, 2274.000000, 8191.500000, 8237.000000, 8234.000000
2118, 50285576.000000, 2150.750000, 8184.000000, 8232.500000, 8230.500000
2119, 50285736.000000, 2025.750000, 8176.000000, 8219.500000, 8218.000000
2120, 50285896.000000, 1913.875000, 8161.500000, 8206.000000, 8196.000000
2121, 50286056.000000, 1814.875000, 8152.500000, 8198.500000, 8182.500000
2122, 50286216.000000, 1729.875000, 8150.500000, 8195.500000, 8178.000000
2123, 50286376.000000, 1651.250000, 8156.000000, 8197.000000, 8182.500000
2124, 50286536.000000, 1584.250000, 8161.500000, 8198.500000, 8186.500000
2125, 50286696.000000, 1534.375000, 8167.000000, 8199.500000, 8190.500000
2126, 50286856.000000, 1495.375000, 8168.000000, 8197.000000, 8190.000000
2127, 50287016.000000, 1464.500000, 8168.000000, 8193.000000, 8185.000000
2128, 50287176.000000, 1428.000000, 8170.000000, 8191.000000, 8183.500000
2129, 50287336.000000, 1386.750000, 8167.500000, 8190.500000, 8181.500000
2130, 50287496.000000, 1336.875000, 8168.000000, 8189.000000, 8180.500000
2131, 50287656.000000, 1320.250000, 8180.000000, 8200.000000, 8207.000000
2132, 50287816.000000, 1416.375000, 8190.000000, 8209.000000, 8227.500000
2133, 50287976.000000, 1693.750000, 8193.500000, 8207.500000, 8230.500000
2134, 50288136.000000, 2094.000000, 8189.000000, 8199.500000, 8214.500000
2135, 50288296.000000, 2496.125000, 8169.500000, 8182.500000, 8170.500000
2136, 50288456.000000, 2793.750000, 8160.500000, 8174.500000, 8151.000000
2137, 50288616.000000, 2941.250000, 8161.500000, 8171.500000, 8147.500000
2138, 50288776.000000, 2950.875000, 8160.000000, 8175.500000, 8147.500000
2139, 50288936.000000, 2856.875000, 8191.500000, 8201.500000, 8196.000000
2140, 50289096.000000, 2690.125000, 8474.500000, 7922.500000, 8086.000000
2141, 50289256.000000, 2481.375000, 8192.500000, 7982.500000, 7960.000000
2142, 50289416.000000, 2269.000000, 8173.000000, 8186.000000, 8174.500000
2143, 50289576.000000, 2115.000000, 8166.000000, 8212.500000, 8194.500000
2144, 50289736.000000, 2048.625000, 8167.500000, 8219.000000, 8201.000000
2145, 50289896.000000, 2065.250000, 8170.500000, 8223.500000, 8209.500000
2146, 50290056.000000, 2125.375000, 8175.000000, 8226.000000, 8214.000000
2147, 50290216.000000, 2183.625000, 8183.000000, 8229.000000, 8220.500000
2148, 50290376.000000, 2205.500000, 8190.500000, 8235.500000, 8230.000000
2149, 50290536.000000, 2175.875000, 8197.500000, 8241.000000, 8239.000000
2150, 50290696.000000, 2099.000000, 8199.000000, 8241.000000, 8242.500000
2151, 50290856.000000, 1995.125000, 8189.500000, 8238.500000, 8236.000000
2152, 50291016.000000, 1888.875000, 8185.000000, 8233.000000, 8230.000000
2153, 50291176.000000, 1793.125000, 8172.500000, 8217.500000, 8212.000000
2154, 50291336.000000, 1715.750000, 8164.000000, 8204.500000, 8193.000000
2155, 50291496.000000, 1658.500000, 8159.500000, 8198.500000, 8180.000000
2156, 50291656.000000, 1608.625000, 8156.500000, 8193.000000, 8175.500000
2157, 50291816.000000, 1561.750000, 8162.000000, 8194.500000, 8178.000000
2158, 50291976.000000, 1517.625000, 8167.500000, 8193.500000, 8183.500000
2159, 50292136.000000, 1476.875000, 8179.000000, 8194.000000, 8188.000000
2160, 50292296.000000, 1453.125000, 8181.500000, 8189.000000, 8188.000000
2161, 50292456.000000, 1438.500000, 8182.000000, 8190.000000, 8187.000000
2162, 50292616.000000, 1429.250000, 8179.000000, 8183.000000, 8178.000000
2163, 50292776.000000, 1405.250000, 8185.500000, 8177.500000, 8174.500000
2164, 50292936.000000, 1367.750000, 8186.000000, 8176.500000, 8177.500000
2165, 50293096.000000, 1377.125000, 8191.000000, 8181.000000, 8185.000000
2166, 50293256.000000, 1517.500000, 8197.500000, 8189.500000, 8203.000000
2167, 50293416.000000, 1870.000000, 8216.000000, 8201.500000, 8234.500000
2168, 50293576.000000, 2341.500000, 8214.000000, 8196.000000, 8224.000000
2169, 50293736.000000, 2805.000000, 8199.000000, 8178.500000, 8185.000000
2170, 50293896.000000, 3129.625000, 8187.000000, 8168.500000, 8158.500000
2171, 50294056.000000, 3265.625000, 8185.500000, 8165.500000, 8153.500000
2172, 50294216.000000, 3220.125000, 8184.500000, 8164.500000, 8151.000000
2173, 50294376.000000, 3040.375000, 8172.500000, 8203.500000, 8186.000000
2174, 50294536.000000, 2785.250000, 8435.500000, 8157.000000, 8281.000000
2175, 50294696.000000, 2485.375000, 8433.500000, 7938.000000, 8056.000000
2176, 50294856.000000, 2195.000000, 8163.000000, 8099.000000, 8070.000000
2177, 50295016.000000, 1966.375000, 8185.500000, 8190.000000, 8176.000000
2178, 50295176.000000, 1843.750000, 8182.000000, 8203.000000, 8188.000000
2179, 50295336.000000, 1809.000000, 8184.000000, 8210.500000, 8196.500000
2180, 50295496.000000, 1826.500000, 8188.500000, 8215.500000, 8205.500000
2181, 50295656.000000, 1849.750000, 8195.000000, 8221.000000, 8214.000000
2182, 50295816.000000, 1848.500000, 8199.000000, 8225.000000, 8219.000000
2183, 50295976.000000, 1801.750000, 8213.500000, 8232.500000, 8234.000000
2184, 50296136.000000, 1716.625000, 8216.500000, 8239.000000, 8242.500000
2185, 50296296.000000, 1604.625000, 8209.000000, 8238.500000, 8239.000000
2186, 50296456.000000, 1487.625000, 8199.000000, 8235.500000, 8235.500000
2187, 50296616.000000, 1392.000000, 8192.500000, 8223.000000, 8224.500000
2188, 50296776.000000, 1329.875000, 8181.000000, 8208.500000, 8206.500000
2189, 50296936.000000, 1296.375000, 8166.500000, 8196.500000, 8185.500000
2190, 50297096.000000, 1282.625000, 8161.500000, 8196.000000, 8183.000000
2191, 50297256.000000, 1277.625000, 8161.000000, 8195.500000, 8180.500000
2192, 50297416.000000, 1290.375000, 8165.000000, 8196.000000, 8183.000000
2193, 50297576.000000, 1321.375000, 8173.500000, 8196.500000, 8188.500000
2194, 50297736.000000, 1358.500000, 8177.000000, 8197.000000, 8191.500000
2195, 50297896.000000, 1385.625000, 8179.000000, 8195.000000, 8190.000000
2196, 50298056.000000, 1404.500000, 8178.000000, 8190.500000, 8184.500000
2197, 50298216.000000, 1406.750000, 8172.500000, 8187.500000, 8177.500000
2198, 50298376.000000, 1397.125000, 8176.000000, 8185.500000, 8176.500000
2199, 50298536.000000, 1383.750000, 8172.500000, 8187.000000, 8179.000000
2200, 50298696.000000, 1426.000000, 8188.000000, 8203.000000, 8213.500000
2201, 50298856.000000, 1600.500000, 8197.000000, 8215.000000, 8240.000000
2202, 50299016.000000, 1943.875000, 8194.000000, 8205.500000, 8225.500000
2203, 50299176.000000, 2369.875000, 8181.500000, 8189.500000, 8189.000000
2204, 50299336.000000, 2761.875000, 8164.000000, 8177.000000, 8155.500000
2205, 50299496.000000, 3019.250000, 8163.500000, 8174.000000, 8150.500000
2206, 50299656.000000, 3125.000000, 8162.000000, 8172.500000, 8148.000000
2207, 50299816.000000, 3084.750000, 8150.500000, 8193.000000, 8160.000000
2208, 50299976.000000, 2946.500000, 8304.500000, 8180.000000, 8245.000000
2209, 50300136.000000, 2737.875000, 8464.000000, 7848.000000, 7995.000000
2210, 50300296.000000, 2496.250000, 8153.000000, 8089.500000, 8058.000000
2211, 50300456.000000, 2280.750000, 8172.500000, 8205.000000, 8189.500000
2212, 50300616.000000, 2137.750000, 8163.500000, 8214.500000, 8194.000000
2213, 50300776.000000, 2085.250000, 8167.500000, 8221.500000, 8204.500000
2214, 50300936.000000, 2096.875000, 8171.500000, 8225.500000, 8210.000000
2215, 50301096.000000, 2134.375000, 8176.000000, 8230.500000, 8219.000000
2216, 50301256.000000, 2156.000000, 8185.500000, 8234.500000, 8226.500000
2217, 50301416.000000, 2142.875000, 8193.000000, 8235.000000, 8230.000000
2218, 50301576.000000, 2087.375000, 8200.000000, 8241.000000, 8238.000000
2219, 50301736.000000, 2005.875000, 8196.000000, 8240.500000, 8237.500000
2220, 50301896.000000, 1905.875000, 8187.500000, 8239.500000, 8236.000000
2221, 50302056.000000, 1802.375000, 8179.000000, 8230.500000, 8225.000000
2222, 50302216.000000, 1708.875000, 8169.000000, 8209.500000, 8201.500000
2223, 50302376.000000, 1632.125000, 8156.500000, 8199.000000, 8183.500000
2224, 50302536.000000, 1574.875000, 8152.500000, 8194.500000, 8174.500000
2225, 50302696.000000, 1536.250000, 8154.000000, 8197.000000, 8179.000000
2226, 50302856.000000, 1501.125000, 8158.500000, 8194.500000, 8178.500000
2227, 50303016.000000, 1461.375000, 8165.500000, 8196.000000, 8184.500000
2228, 50303176.000000, 1422.000000, 8170.500000, 8196.500000, 8188.500000
2229, 50303336.000000, 1384.250000, 8174.500000, 8195.500000, 8189.000000
2230, 50303496.000000, 1351.375000, 8172.500000, 8195.000000, 8187.500000
2231, 50303656.000000, 1311.750000, 8175.500000, 8190.000000, 8182.500000
2232, 50303816.000000, 1259.000000, 8171.000000, 8186.000000, 8177.000000
2233, 50303976.000000, 1209.875000, 8173.000000, 8184.500000, 8174.000000
2234, 50304136.000000, 1236.500000, 8177.000000, 8188.000000, 8183.500000
2235, 50304296.000000, 1422.000000, 8191.000000, 8204.000000, 8216.000000
2236, 50304456.000000, 1783.875000, 8199.000000, 8214.500000, 8240.500000
2237, 50304616.000000, 2228.250000, 8195.500000, 8204.500000, 8225.000000
2238, 50304776.000000, 2629.500000, 8182.000000, 8188.000000, 8185.500000
2239, 50304936.000000, 2884.500000, 8169.500000, 8175.500000, 8159.000000
2240, 50305096.000000, 2982.875000, 8167.000000, 8174.000000, 8153.000000
2241, 50305256.000000, 2941.125000, 8168.500000, 8173.000000, 8152.500000
2242, 50305416.000000, 2810.750000, 8150.500000, 8203.500000, 8174.000000
2243, 50305576.000000, 2628.625000, 8364.500000, 8150.000000, 8246.000000
2244, 50305736.000000, 2426.375000, 8441.000000, 7858.000000, 7981.000000
2245, 50305896.000000, 2254.125000, 8156.000000, 8113.000000, 8087.000000
2246, 50306056.000000, 2147.625000, 8171.500000, 8205.500000, 8191.000000
2247, 50306216.000000, 2123.000000, 8168.000000, 8216.000000, 8197.000000
2248, 50306376.000000, 2148.000000, 8170.500000, 8221.000000, 8205.000000
2249, 50306536.000000, 2186.750000, 8174.500000, 8225.500000, 8213.000000
2250, 50306696.000000, 2207.250000, 8182.500000, 8231.000000, 8221.000000
2251, 50306856.000000, 2194.000000, 8187.000000, 8234.500000, 8227.500000
2252, 50307016.000000, 2135.000000, 8198.000000, 8239.000000, 8238.000000
2253, 50307176.000000, 2046.625000, 8202.000000, 8243.500000, 8243.000000
2254, 50307336.000000, 1944.625000, 8200.000000, 8245.000000, 8245.500000
2255, 50307496.000000, 1839.375000, 8190.500000, 8241.500000, 8240.500000
2256, 50307656.000000, 1744.750000, 8184.000000, 8230.000000, 8231.500000
2257, 50307816.000000, 1664.875000, 8169.500000, 8211.500000, 8204.000000
2258, 50307976.000000, 1602.375000, 8156.500000, 8201.000000, 8186.500000
2259, 50308136.000000, 1551.125000, 8153.000000, 8197.000000, 8180.000000
2260, 50308296.000000, 1504.875000, 8155.500000, 8197.000000, 8180.000000
2261, 50308456.000000, 1460.750000, 8160.000000, 8198.000000, 8184.000000
2262, 50308616.000000, 1420.250000, 8164.500000, 8197.500000, 8184.500000
2263, 50308776.000000, 1388.125000, 8171.000000, 8196.500000, 8187.500000
2264, 50308936.000000, 1367.125000, 8171.500000, 8196.500000, 8188.000000
2265, 50309096.000000, 1351.625000, 8170.000000, 8194.000000, 8185.000000
2266, 50309256.000000, 1327.375000, 8168.500000, 8190.500000, 8178.000000
2267, 50309416.000000, 1286.125000, 8169.000000, 8187.000000, 8175.000000
2268, 50309576.000000, 1245.375000, 8168.500000, 8187.000000, 8173.500000
2269, 50309736.000000, 1286.875000, 8168.000000, 8186.000000, 8175.000000
2270, 50309896.000000, 1492.250000, 8172.000000, 8186.000000, 8174.000000
2271, 50310056.000000, 1886.000000, 8181.000000, 8199.000000, 8201.500000
2272, 50310216.000000, 2337.250000, 8190.500000, 8208.500000, 8223.500000
2273, 50310376.000000, 2720.625000, 8194.000000, 8206.000000, 8224.000000
2274, 50310536.000000, 2945.125000, 8188.500000, 8199.000000, 8207.500000
2275, 50310696.000000, 3008.125000, 8168.500000, 8181.500000, 8163.000000
2276, 50310856.000000, 2950.500000, 8163.000000, 8175.500000, 8149.500000
2277, 50311016.000000, 2820.500000, 8163.000000, 8172.500000, 8145.500000
2278, 50311176.000000, 2647.750000, 8155.000000, 8180.000000, 8144.500000
2279, 50311336.000000, 2433.375000, 8218.000000, 8199.000000, 8202.500000
2280, 50311496.000000, 2215.250000, 8484.500000, 7905.500000, 8058.500000
2281, 50311656.000000, 2043.000000, 8149.500000, 8008.500000, 7952.500000
2282, 50311816.000000, 1954.000000, 8160.000000, 8183.000000, 8149.000000
2283, 50311976.000000, 1933.000000, 8152.000000, 8203.500000, 8162.500000
2284, 50312136.000000, 1936.875000, 8153.000000, 8209.500000, 8170.500000
2285, 50312296.000000, 1926.625000, 8154.500000, 8214.000000, 8176.500000
2286, 50312456.000000, 1894.375000, 8161.500000, 8216.000000, 8182.000000
2287, 50312616.000000, 1830.250000, 8171.000000, 8221.000000, 8194.500000
2288, 50312776.000000, 1744.375000, 8180.000000, 8226.500000, 8204.000000
2289, 50312936.000000, 1651.875000, 8191.000000, 8233.000000, 8219.500000
2290, 50313096.000000, 1565.250000, 8193.500000, 8234.000000, 8223.500000
2291, 50313256.000000, 1496.000000, 8183.000000, 8235.500000, 8222.500000
2292, 50313416.000000, 1446.125000, 8177.500000, 8229.000000, 8217.500000
2293, 50313576.000000, 1411.875000, 8170.500000, 8218.000000, 8210.000000
2294, 50313736.000000, 1390.500000, 8162.000000, 8204.000000, 8191.000000
2295, 50313896.000000, 1386.250000, 8158.000000, 8199.500000, 8184.500000
2296, 50314056.000000, 1393.625000, 8155.500000, 8196.500000, 8180.500000
2297, 50314216.000000, 1406.750000, 8162.000000, 8197.000000, 8184.500000
2298, 50314376.000000, 1417.500000, 8170.500000, 8200.000000, 8194.000000
2299, 50314536.000000, 1425.250000, 8176.500000, 8202.500000, 8202.000000
2300, 50314696.000000, 1430.125000, 8178.000000, 8202.500000, 8202.500000
2301, 50314856.000000, 1427.500000, 8180.000000, 8198.000000, 8199.000000
2302, 50315016.000000, 1412.625000, 8178.000000, 8195.000000, 8195.000000
2303, 50315176.000000, 1382.875000, 8178.500000, 8192.000000, 8191.000000
2304, 50315336.000000, 1343.250000, 8176.500000, 8191.000000, 8189.000000
2305, 50315496.000000, 1326.750000, 8176.000000, 8191.500000, 8188.000000
2306, 50315656.000000, 1436.000000, 8174.500000, 8186.500000, 8182.000000
2307, 50315816.000000, 1732.875000, 8186.000000, 8197.500000, 8205.500000
2308, 50315976.000000, 2179.750000, 8194.500000, 8208.000000, 8226.000000
2309, 50316136.000000, 2630.750000, 8202.000000, 8213.000000, 8243.500000
2310, 50316296.000000, 2968.875000, 8196.000000, 8205.500000, 8228.000000
2311, 50316456.000000, 3132.000000, 8174.000000, 8184.500000, 8175.000000
2312, 50316616.000000, 3151.000000, 8166.500000, 8176.000000, 8158.500000
2313, 50316776.000000, 3064.000000, 8168.500000, 8176.000000, 8158.000000
2314, 50316936.000000, 2913.000000, 8167.500000, 8177.500000, 8157.500000
2315, 50317096.000000, 2719.125000, 8169.500000, 8212.500000, 8198.000000
2316, 50317256.000000, 2505.750000, 8473.000000, 7983.500000, 8142.000000
2317, 50317416.000000, 2321.000000, 8256.000000, 7941.500000, 7951.000000
2318, 50317576.000000, 2197.625000, 8178.000000, 8180.000000, 8174.000000
2319, 50317736.000000, 2149.750000, 8173.000000, 8213.500000, 8202.000000
2320, 50317896.000000, 2146.625000, 8170.500000, 8218.500000, 8206.500000
2321, 50318056.000000, 2160.500000, 8171.000000, 8221.000000, 8210.000000
2322, 50318216.000000, 2154.125000, 8177.000000, 8224.000000, 8215.500000
2323, 50318376.000000, 2123.125000, 8184.500000, 8228.500000, 8225.000000
2324, 50318536.000000, 2061.625000, 8195.000000, 8235.500000, 8237.500000
2325, 50318696.000000, 1995.375000, 8199.000000, 8236.500000, 8238.500000
2326, 50318856.000000, 1936.250000, 8199.500000, 8237.500000, 8238.500000
2327, 50319016.000000, 1885.125000, 8191.000000, 8233.000000, 8231.500000
2328, 50319176.000000, 1832.250000, 8184.500000, 8229.500000, 8225.000000
2329, 50319336.000000, 1778.250000, 8173.000000, 8219.500000, 8216.000000
2330, 50319496.000000, 1722.500000, 8158.500000, 8206.000000, 8193.000000
2331, 50319656.000000, 1674.125000, 8150.000000, 8195.000000, 8174.500000
2332, 50319816.000000, 1635.500000, 8150.000000, 8193.000000, 8174.000000
2333, 50319976.000000, 1610.625000, 8154.000000, 8194.000000, 8176.000000
2334, 50320136.000000, 1599.750000, 8158.500000, 8197.000000, 8181.000000
2335, 50320296.000000, 1594.125000, 8165.000000, 8199.000000, 8188.000000
2336, 50320456.000000, 1580.750000, 8167.000000, 8196.000000, 8185.000000
2337, 50320616.000000, 1552.875000, 8164.000000, 8191.500000, 8178.500000
2338, 50320776.000000, 1506.125000, 8166.000000, 8189.000000, 8175.000000
2339, 50320936.000000, 1426.250000, 8164.000000, 8188.000000, 8173.000000
2340, 50321096.000000, 1323.500000, 8164.000000, 8186.500000, 8171.000000
2341, 50321256.000000, 1307.875000, 8162.500000, 8182.500000, 8163.000000
2342, 50321416.000000, 1463.500000, 8164.000000, 8182.500000, 8165.500000
2343, 50321576.000000, 1794.375000, 8170.000000, 8187.500000, 8177.500000
2344, 50321736.000000, 2227.375000, 8182.000000, 8204.000000, 8210.000000
2345, 50321896.000000, 2655.625000, 8194.500000, 8212.500000, 8236.000000
2346, 50322056.000000, 2910.625000, 8192.500000, 8204.000000, 8220.500000
