1924, 53721328.000000, 1770.250000, 8160.000000, 8185.000000, 8173.000000
1925, 53721488.000000, 2166.250000, 8161.000000, 8184.000000, 8171.000000
1926, 53721648.000000, 2477.750000, 8161.000000, 8187.000000, 8172.000000
1927, 53721808.000000, 2647.000000, 8164.000000, 8188.000000, 8177.000000
1928, 53721968.000000, 2665.750000, 8163.000000, 8188.000000, 8176.000000
1929, 53722128.000000, 2570.250000, 8166.000000, 8187.000000, 8175.000000
1930, 53722288.000000, 2400.750000, 8177.000000, 8199.000000, 8204.000000
1931, 53722448.000000, 2197.750000, 8182.000000, 8206.000000, 8218.000000
1932, 53722608.000000, 1987.500000, 8181.000000, 8201.000000, 8211.000000
1933, 53722768.000000, 1804.750000, 8176.000000, 8190.000000, 8185.000000
1934, 53722928.000000, 1683.000000, 8164.000000, 8181.000000, 8164.000000
1935, 53723088.000000, 1635.250000, 8162.000000, 8178.000000, 8159.000000
1936, 53723248.000000, 1647.250000, 8161.000000, 8179.000000, 8158.000000
1937, 53723408.000000, 1685.250000, 8148.000000, 8196.000000, 8166.000000
1938, 53723568.000000, 1723.500000, 8258.000000, 8213.000000, 8260.000000
1939, 53723728.000000, 1736.000000, 8492.000000, 7879.000000, 8056.000000
1940, 53723888.000000, 1715.250000, 8149.000000, 8045.000000, 8004.000000
1941, 53724048.000000, 1663.250000, 8171.000000, 8203.000000, 8192.000000
1942, 53724208.000000, 1588.250000, 8163.000000, 8223.000000, 8207.000000
1943, 53724368.000000, 1505.000000, 8163.000000, 8227.000000, 8213.000000
1944, 53724528.000000, 1425.750000, 8167.000000, 8228.000000, 8213.000000
1945, 53724688.000000, 1355.250000, 8174.000000, 8230.000000, 8221.000000
1946, 53724848.000000, 1301.000000, 8181.000000, 8236.000000, 8230.000000
1947, 53725008.000000, 1262.000000, 8189.000000, 8243.000000, 8244.000000
1948, 53725168.000000, 1236.250000, 8202.000000, 8251.000000, 8259.000000
1949, 53725328.000000, 1215.250000, 8212.000000, 8256.000000, 8270.000000
1950, 53725488.000000, 1197.750000, 8216.000000, 8258.000000, 8275.000000
1951, 53725648.000000, 1179.750000, 8210.000000, 8259.000000, 8276.000000
1952, 53725808.000000, 1165.500000, 8199.000000, 8246.000000, 8260.000000
1953, 53725968.000000, 1154.000000, 8176.000000, 8221.000000, 8223.000000
1954, 53726128.000000, 1144.000000, 8155.000000, 8202.000000, 8189.000000
1955, 53726288.000000, 1132.500000, 8146.000000, 8195.000000, 8174.000000
1956, 53726448.000000, 1120.000000, 8147.000000, 8197.000000, 8178.000000
1957, 53726608.000000, 1106.750000, 8150.000000, 8198.000000, 8181.000000
1958, 53726768.000000, 1095.250000, 8155.000000, 8197.000000, 8182.000000
1959, 53726928.000000, 1079.250000, 8155.000000, 8195.000000, 8180.000000
1960, 53727088.000000, 1055.750000, 8160.000000, 8194.000000, 8182.000000
1961, 53727248.000000, 1025.250000, 8159.000000, 8193.000000, 8180.000000
1962, 53727408.000000, 984.250000, 8160.000000, 8191.000000, 8179.000000
1963, 53727568.000000, 956.000000, 8159.000000, 8190.000000, 8177.000000
1964, 53727728.000000, 998.500000, 8158.000000, 8185.000000, 8170.000000
1965, 53727888.000000, 1202.750000, 8158.000000, 8185.000000, 8170.000000
1966, 53728048.000000, 1557.500000, 8160.000000, 8186.000000, 8172.000000
1967, 53728208.000000, 1980.500000, 8160.000000, 8186.000000, 8172.000000
1968, 53728368.000000, 2342.250000, 8162.000000, 8187.000000, 8174.000000
1969, 53728528.000000, 2577.750000, 8160.000000, 8185.000000, 8169.000000
1970, 53728688.000000, 2664.250000, 8164.000000, 8185.000000, 8172.000000
1971, 53728848.000000, 2626.500000, 8164.000000, 8187.000000, 8174.000000
1972, 53729008.000000, 2509.000000, 8166.000000, 8191.000000, 8179.000000
1973, 53729168.000000, 2344.000000, 8178.000000, 8204.000000, 8208.000000
1974, 53729328.000000, 2159.750000, 8181.000000, 8206.000000, 8216.000000
1975, 53729488.000000, 1977.750000, 8185.000000, 8201.000000, 8213.000000
1976, 53729648.000000, 1823.500000, 8182.000000, 8193.000000, 8190.000000
1977, 53729808.000000, 1724.250000, 8165.000000, 8183.000000, 8166.000000
1978, 53729968.000000, 1687.750000, 8162.000000, 8178.000000, 8157.000000
1979, 53730128.000000, 1690.750000, 8163.000000, 8177.000000, 8155.000000
1980, 53730288.000000, 1709.250000, 8155.000000, 8190.000000, 8161.000000
1981, 53730448.000000, 1718.000000, 8246.000000, 8212.000000, 8249.000000
1982, 53730608.000000, 1706.500000, 8509.000000, 7859.000000, 8045.000000
1983, 53730768.000000, 1667.750000, 8163.000000, 8041.000000, 8005.000000
1984, 53730928.000000, 1605.000000, 8179.000000, 8204.000000, 8197.000000
1985, 53731088.000000, 1529.750000, 8168.000000, 8223.000000, 8210.000000
1986, 53731248.000000, 1450.750000, 8170.000000, 8230.000000, 8217.000000
1987, 53731408.000000, 1376.750000, 8173.000000, 8233.000000, 8222.000000
1988, 53731568.000000, 1308.500000, 8178.000000, 8234.000000, 8226.000000
1989, 53731728.000000, 1251.000000, 8186.000000, 8237.000000, 8234.000000
1990, 53731888.000000, 1208.500000, 8197.000000, 8242.000000, 8246.000000
1991, 53732048.000000, 1175.000000, 8207.000000, 8251.000000, 8260.000000
1992, 53732208.000000, 1148.250000, 8219.000000, 8257.000000, 8274.000000
1993, 53732368.000000, 1123.750000, 8221.000000, 8259.000000, 8279.000000
1994, 53732528.000000, 1103.750000, 8217.000000, 8258.000000, 8276.000000
1995, 53732688.000000, 1086.000000, 8207.000000, 8245.000000, 8262.000000
1996, 53732848.000000, 1066.750000, 8185.000000, 8222.000000, 8228.000000
1997, 53733008.000000, 1051.500000, 8163.000000, 8205.000000, 8195.000000
1998, 53733168.000000, 1036.500000, 8154.000000, 8195.000000, 8179.000000
1999, 53733328.000000, 1018.250000, 8154.000000, 8192.000000, 8174.000000
2000, 53733488.000000, 1001.750000, 8159.000000, 8192.000000, 8177.000000
2001, 53733648.000000, 983.500000, 8165.000000, 8195.000000, 8184.000000
2002, 53733808.000000, 966.000000, 8168.000000, 8195.000000, 8186.000000
2003, 53733968.000000, 946.250000, 8168.000000, 8193.000000, 8184.000000
2004, 53734128.000000, 916.250000, 8168.000000, 8190.000000, 8181.000000
2005, 53734288.000000, 877.000000, 8168.000000, 8188.000000, 8177.000000
2006, 53734448.000000, 846.500000, 8167.000000, 8187.000000, 8174.000000
2007, 53734608.000000, 874.000000, 8167.000000, 8186.000000, 8173.000000
2008, 53734768.000000, 1045.250000, 8167.000000, 8183.000000, 8170.000000
2009, 53734928.000000, 1359.750000, 8168.000000, 8182.000000, 8169.000000
2010, 53735088.000000, 1749.750000, 8169.000000, 8183.000000, 8169.000000
2011, 53735248.000000, 2095.250000, 8170.000000, 8185.000000, 8172.000000
2012, 53735408.000000, 2329.750000, 8171.000000, 8185.000000, 8174.000000
2013, 53735568.000000, 2430.000000, 8172.000000, 8184.000000, 8172.000000
2014, 53735728.000000, 2414.000000, 8170.000000, 8183.000000, 8170.000000
2015, 53735888.000000, 2315.250000, 8172.000000, 8184.000000, 8172.000000
2016, 53736048.000000, 2177.750000, 8174.000000, 8186.000000, 8175.000000
2017, 53736208.000000, 2021.500000, 8189.000000, 8203.000000, 8212.000000
2018, 53736368.000000, 1858.000000, 8191.000000, 8207.000000, 8221.000000
2019, 53736528.000000, 1715.250000, 8195.000000, 8199.000000, 8214.000000
2020, 53736688.000000, 1617.500000, 8191.000000, 8190.000000, 8192.000000
2021, 53736848.000000, 1576.250000, 8176.000000, 8180.000000, 8165.000000
2022, 53737008.000000, 1571.500000, 8174.000000, 8177.000000, 8160.000000
2023, 53737168.000000, 1580.000000, 8174.000000, 8177.000000, 8160.000000
2024, 53737328.000000, 1586.000000, 8168.000000, 8182.000000, 8157.000000
2025, 53737488.000000, 1575.750000, 8225.000000, 8208.000000, 8225.000000
2026, 53737648.000000, 1545.750000, 8521.000000, 7892.000000, 8082.000000
2027, 53737808.000000, 1494.750000, 8195.000000, 8004.000000, 7977.000000
2028, 53737968.000000, 1428.750000, 8191.000000, 8196.000000, 8191.000000
2029, 53738128.000000, 1357.000000, 8180.000000, 8218.000000, 8207.000000
2030, 53738288.000000, 1289.500000, 8182.000000, 8223.000000, 8210.000000
2031, 53738448.000000, 1231.750000, 8187.000000, 8228.000000, 8220.000000
2032, 53738608.000000, 1180.750000, 8195.000000, 8231.000000, 8228.000000
2033, 53738768.000000, 1137.250000, 8200.000000, 8234.000000, 8234.000000
2034, 53738928.000000, 1101.250000, 8212.000000, 8237.000000, 8243.000000
2035, 53739088.000000, 1072.750000, 8222.000000, 8241.000000, 8252.000000
2036, 53739248.000000, 1051.000000, 8239.000000, 8250.000000, 8272.000000
2037, 53739408.000000, 1031.250000, 8243.000000, 8252.000000, 8277.000000
2038, 53739568.000000, 1014.500000, 8241.000000, 8252.000000, 8276.000000
2039, 53739728.000000, 1000.250000, 8229.000000, 8241.000000, 8263.000000
2040, 53739888.000000, 984.500000, 8213.000000, 8218.000000, 8229.000000
2041, 53740048.000000, 969.250000, 8189.000000, 8198.000000, 8197.000000
2042, 53740208.000000, 950.000000, 8181.000000, 8188.000000, 8180.000000
2043, 53740368.000000, 933.500000, 8178.000000, 8186.000000, 8174.000000
2044, 53740528.000000, 917.750000, 8181.000000, 8184.000000, 8174.000000
2045, 53740688.000000, 898.000000, 8186.000000, 8185.000000, 8178.000000
2046, 53740848.000000, 879.750000, 8191.000000, 8185.000000, 8182.000000
2047, 53741008.000000, 858.750000, 8193.000000, 8183.000000, 8181.000000
2048, 53741168.000000, 830.250000, 8193.000000, 8180.000000, 8178.000000
2049, 53741328.000000, 795.250000, 8191.000000, 8177.000000, 8174.000000
2050, 53741488.000000, 757.500000, 8193.000000, 8175.000000, 8173.000000
2051, 53741648.000000, 751.750000, 8190.000000, 8175.000000, 8171.000000
2052, 53741808.000000, 837.750000, 8193.000000, 8174.000000, 8170.000000
2053, 53741968.000000, 1072.500000, 8188.000000, 8172.000000, 8167.000000
2054, 53742128.000000, 1403.250000, 8191.000000, 8171.000000, 8166.000000
2055, 53742288.000000, 1735.250000, 8193.000000, 8172.000000, 8168.000000
2056, 53742448.000000, 1982.750000, 8190.000000, 8174.000000, 8170.000000
2057, 53742608.000000, 2121.500000, 8195.000000, 8175.000000, 8174.000000
2058, 53742768.000000, 2148.750000, 8193.000000, 8173.000000, 8171.000000
2059, 53742928.000000, 2092.500000, 8194.000000, 8172.000000, 8167.000000
2060, 53743088.000000, 1982.500000, 8196.000000, 8173.000000, 8169.000000
2061, 53743248.000000, 1844.250000, 8198.000000, 8177.000000, 8182.000000
2062, 53743408.000000, 1695.500000, 8210.000000, 8192.000000, 8205.000000
2063, 53743568.000000, 1560.250000, 8218.000000, 8195.000000, 8223.000000
2064, 53743728.000000, 1468.750000, 8216.000000, 8186.000000, 8207.000000
2065, 53743888.000000, 1430.500000, 8202.000000, 8175.000000, 8175.000000
2066, 53744048.000000, 1439.000000, 8194.000000, 8169.000000, 8164.000000
2067, 53744208.000000, 1469.000000, 8194.000000, 8170.000000, 8163.000000
2068, 53744368.000000, 1498.250000, 8192.000000, 8169.000000, 8160.000000
2069, 53744528.000000, 1513.000000, 8174.000000, 8200.000000, 8185.000000
2070, 53744688.000000, 1501.250000, 8399.000000, 8185.000000, 8302.000000
2071, 53744848.000000, 1468.750000, 8463.000000, 7940.000000, 8084.000000
2072, 53745008.000000, 1419.500000, 8167.000000, 8083.000000, 8054.000000
2073, 53745168.000000, 1362.000000, 8195.000000, 8188.000000, 8185.000000
2074, 53745328.000000, 1302.000000, 8190.000000, 8201.000000, 8193.000000
2075, 53745488.000000, 1249.250000, 8193.000000, 8206.000000, 8200.000000
2076, 53745648.000000, 1204.250000, 8196.000000, 8210.000000, 8206.000000
2077, 53745808.000000, 1168.750000, 8203.000000, 8214.000000, 8216.000000
2078, 53745968.000000, 1140.500000, 8209.000000, 8217.000000, 8221.000000
2079, 53746128.000000, 1121.500000, 8220.000000, 8222.000000, 8230.000000
2080, 53746288.000000, 1107.250000, 8232.000000, 8229.000000, 8243.000000
2081, 53746448.000000, 1097.000000, 8239.000000, 8236.000000, 8256.000000
2082, 53746608.000000, 1087.750000, 8240.000000, 8239.000000, 8262.000000
2083, 53746768.000000, 1081.250000, 8235.000000, 8240.000000, 8260.000000
2084, 53746928.000000, 1074.750000, 8218.000000, 8225.000000, 8243.000000
2085, 53747088.000000, 1068.500000, 8190.000000, 8206.000000, 8210.000000
2086, 53747248.000000, 1062.750000, 8172.000000, 8194.000000, 8186.000000
2087, 53747408.000000, 1053.250000, 8161.000000, 8191.000000, 8176.000000
2088, 53747568.000000, 1046.750000, 8159.000000, 8190.000000, 8175.000000
2089, 53747728.000000, 1038.500000, 8161.000000, 8189.000000, 8174.000000
2090, 53747888.000000, 1031.000000, 8168.000000, 8191.000000, 8182.000000
2091, 53748048.000000, 1021.000000, 8170.000000, 8193.000000, 8184.000000
2092, 53748208.000000, 1011.000000, 8169.000000, 8191.000000, 8183.000000
2093, 53748368.000000, 994.000000, 8170.000000, 8186.000000, 8177.000000
2094, 53748528.000000, 974.000000, 8169.000000, 8183.000000, 8173.000000
2095, 53748688.000000, 953.000000, 8170.000000, 8184.000000, 8173.000000
2096, 53748848.000000, 948.000000, 8167.000000, 8185.000000, 8172.000000
2097, 53749008.000000, 1001.500000, 8165.000000, 8185.000000, 8172.000000
2098, 53749168.000000, 1171.750000, 8164.000000, 8183.000000, 8168.000000
2099, 53749328.000000, 1442.000000, 8167.000000, 8182.000000, 8169.000000
2100, 53749488.000000, 1749.250000, 8166.000000, 8182.000000, 8168.000000
2101, 53749648.000000, 2007.750000, 8168.000000, 8185.000000, 8172.000000
2102, 53749808.000000, 2181.500000, 8170.000000, 8186.000000, 8173.000000
2103, 53749968.000000, 2250.250000, 8169.000000, 8184.000000, 8172.000000
2104, 53750128.000000, 2224.750000, 8171.000000, 8184.000000, 8173.000000
2105, 53750288.000000, 2136.250000, 8175.000000, 8185.000000, 8175.000000
2106, 53750448.000000, 2007.750000, 8183.000000, 8200.000000, 8205.000000
2107, 53750608.000000, 1863.750000, 8189.000000, 8205.000000, 8218.000000
2108, 53750768.000000, 1732.750000, 8189.000000, 8199.000000, 8210.000000
2109, 53750928.000000, 1643.000000, 8184.000000, 8187.000000, 8183.000000
2110, 53751088.000000, 1604.750000, 8170.000000, 8178.000000, 8161.000000
2111, 53751248.000000, 1613.000000, 8171.000000, 8181.000000, 8164.000000
2112, 53751408.000000, 1651.500000, 8168.000000, 8180.000000, 8165.000000
2113, 53751568.000000, 1698.000000, 8156.000000, 8200.000000, 8173.000000
2114, 53751728.000000, 1730.500000, 8305.000000, 8209.000000, 8283.000000
2115, 53751888.000000, 1739.250000, 8483.000000, 7929.000000, 8092.000000
2116, 53752048.000000, 1724.500000, 8148.000000, 8065.000000, 8025.000000
2117, 53752208.000000, 1687.500000, 8176.000000, 8198.000000, 8189.000000
2118, 53752368.000000, 1637.250000, 8171.000000, 8214.000000, 8201.000000
2119, 53752528.000000, 1581.500000, 8172.000000, 8217.000000, 8203.000000
2120, 53752688.000000, 1528.250000, 8177.000000, 8219.000000, 8208.000000
2121, 53752848.000000, 1482.000000, 8181.000000, 8226.000000, 8218.000000
2122, 53753008.000000, 1445.250000, 8193.000000, 8231.000000, 8229.000000
2123, 53753168.000000, 1416.500000, 8203.000000, 8236.000000, 8240.000000
2124, 53753328.000000, 1394.000000, 8213.000000, 8243.000000, 8252.000000
2125, 53753488.000000, 1377.750000, 8224.000000, 8250.000000, 8266.000000
2126, 53753648.000000, 1365.250000, 8227.000000, 8252.000000, 8272.000000
2127, 53753808.000000, 1352.500000, 8224.000000, 8254.000000, 8276.000000
2128, 53753968.000000, 1340.000000, 8209.000000, 8238.000000, 8256.000000
2129, 53754128.000000, 1330.000000, 8182.000000, 8214.000000, 8216.000000
2130, 53754288.000000, 1320.000000, 8162.000000, 8198.000000, 8187.000000
2131, 53754448.000000, 1310.250000, 8152.000000, 8195.000000, 8178.000000
2132, 53754608.000000, 1302.750000, 8154.000000, 8193.000000, 8177.000000
2133, 53754768.000000, 1291.750000, 8156.000000, 8193.000000, 8178.000000
2134, 53754928.000000, 1279.250000, 8159.000000, 8194.000000, 8181.000000
2135, 53755088.000000, 1267.000000, 8163.000000, 8194.000000, 8182.000000
2136, 53755248.000000, 1255.250000, 8163.000000, 8192.000000, 8180.000000
2137, 53755408.000000, 1237.750000, 8163.000000, 8190.000000, 8178.000000
2138, 53755568.000000, 1210.250000, 8163.000000, 8187.000000, 8175.000000
2139, 53755728.000000, 1177.000000, 8161.000000, 8185.000000, 8170.000000
2140, 53755888.000000, 1160.000000, 8162.000000, 8184.000000, 8171.000000
2141, 53756048.000000, 1225.000000, 8161.000000, 8184.000000, 8169.000000
2142, 53756208.000000, 1418.250000, 8161.000000, 8186.000000, 8171.000000
2143, 53756368.000000, 1729.500000, 8161.000000, 8182.000000, 8167.000000
2144, 53756528.000000, 2067.250000, 8162.000000, 8182.000000, 8167.000000
2145, 53756688.000000, 2352.500000, 8162.000000, 8185.000000, 8170.000000
2146, 53756848.000000, 2538.250000, 8163.000000, 8187.000000, 8171.000000
2147, 53757008.000000, 2615.250000, 8164.000000, 8186.000000, 8171.000000
2148, 53757168.000000, 2595.500000, 8166.000000, 8186.000000, 8172.000000
2149, 53757328.000000, 2502.250000, 8167.000000, 8185.000000, 8172.000000
2150, 53757488.000000, 2372.250000, 8174.000000, 8197.000000, 8196.000000
2151, 53757648.000000, 2225.000000, 8185.000000, 8206.000000, 8216.000000
2152, 53757808.000000, 2085.000000, 8186.000000, 8203.000000, 8214.000000
2153, 53757968.000000, 1980.000000, 8184.000000, 8194.000000, 8192.000000
2154, 53758128.000000, 1929.250000, 8168.000000, 8182.000000, 8165.000000
2155, 53758288.000000, 1927.500000, 8165.000000, 8180.000000, 8159.000000
2156, 53758448.000000, 1958.500000, 8166.000000, 8182.000000, 8162.000000
2157, 53758608.000000, 1996.500000, 8159.000000, 8190.000000, 8163.000000
2158, 53758768.000000, 2022.500000, 8212.000000, 8210.000000, 8222.000000
2159, 53758928.000000, 2023.750000, 8494.000000, 7915.000000, 8093.000000
2160, 53759088.000000, 1999.500000, 8181.000000, 8000.000000, 7970.000000
2161, 53759248.000000, 1954.250000, 8175.000000, 8196.000000, 8186.000000
2162, 53759408.000000, 1894.250000, 8168.000000, 8223.000000, 8208.000000
2163, 53759568.000000, 1827.250000, 8168.000000, 8227.000000, 8212.000000
2164, 53759728.000000, 1763.250000, 8172.000000, 8228.000000, 8214.000000
2165, 53759888.000000, 1707.000000, 8176.000000, 8232.000000, 8221.000000
2166, 53760048.000000, 1662.000000, 8184.000000, 8238.000000, 8232.000000
2167, 53760208.000000, 1628.250000, 8192.000000, 8243.000000, 8242.000000
2168, 53760368.000000, 1604.000000, 8202.000000, 8250.000000, 8254.000000
2169, 53760528.000000, 1586.000000, 8215.000000, 8256.000000, 8270.000000
2170, 53760688.000000, 1568.500000, 8220.000000, 8261.000000, 8277.000000
2171, 53760848.000000, 1554.500000, 8218.000000, 8262.000000, 8282.000000
2172, 53761008.000000, 1539.500000, 8206.000000, 8249.000000, 8265.000000
2173, 53761168.000000, 1526.000000, 8183.000000, 8225.000000, 8228.000000
2174, 53761328.000000, 1516.000000, 8161.000000, 8204.000000, 8191.000000
2175, 53761488.000000, 1506.000000, 8150.000000, 8196.000000, 8177.000000
2176, 53761648.000000, 1496.000000, 8148.000000, 8194.000000, 8174.000000
2177, 53761808.000000, 1485.750000, 8151.000000, 8194.000000, 8174.000000
2178, 53761968.000000, 1472.250000, 8154.000000, 8194.000000, 8176.000000
2179, 53762128.000000, 1460.500000, 8157.000000, 8193.000000, 8177.000000
2180, 53762288.000000, 1445.500000, 8160.000000, 8194.000000, 8180.000000
2181, 53762448.000000, 1426.750000, 8159.000000, 8194.000000, 8179.000000
2182, 53762608.000000, 1400.000000, 8159.000000, 8192.000000, 8177.000000
2183, 53762768.000000, 1366.750000, 8160.000000, 8189.000000, 8173.000000
2184, 53762928.000000, 1351.750000, 8159.000000, 8187.000000, 8170.000000
2185, 53763088.000000, 1417.750000, 8160.000000, 8186.000000, 8170.000000
2186, 53763248.000000, 1647.250000, 8160.000000, 8186.000000, 8170.000000
2187, 53763408.000000, 2011.500000, 8160.000000, 8187.000000, 8171.000000
2188, 53763568.000000, 2424.500000, 8160.000000, 8184.000000, 8166.000000
2189, 53763728.000000, 2776.750000, 8161.000000, 8183.000000, 8166.000000
2190, 53763888.000000, 3017.750000, 8163.000000, 8184.000000, 8168.000000
2191, 53764048.000000, 3128.500000, 8164.000000, 8187.000000, 8172.000000
2192, 53764208.000000, 3115.500000, 8163.000000, 8186.000000, 8170.000000
2193, 53764368.000000, 3023.500000, 8166.000000, 8187.000000, 8173.000000
2194, 53764528.000000, 2885.750000, 8178.000000, 8200.000000, 8202.000000
2195, 53764688.000000, 2731.250000, 8184.000000, 8206.000000, 8216.000000
2196, 53764848.000000, 2573.500000, 8187.000000, 8202.000000, 8214.000000
2197, 53765008.000000, 2439.000000, 8184.000000, 8194.000000, 8192.000000
2198, 53765168.000000, 2354.000000, 8166.000000, 8181.000000, 8161.000000
2199, 53765328.000000, 2322.500000, 8167.000000, 8177.000000, 8156.000000
2200, 53765488.000000, 2329.250000, 8166.000000, 8179.000000, 8157.000000
2201, 53765648.000000, 2350.000000, 8154.000000, 8193.000000, 8163.000000
2202, 53765808.000000, 2366.000000, 8245.000000, 8213.000000, 8249.000000
2203, 53765968.000000, 2356.500000, 8509.000000, 7858.000000, 8044.000000
2204, 53766128.000000, 2321.750000, 8166.000000, 8039.000000, 8003.000000
2205, 53766288.000000, 2259.750000, 8179.000000, 8207.000000, 8198.000000
2206, 53766448.000000, 2180.500000, 8170.000000, 8225.000000, 8210.000000
2207, 53766608.000000, 2094.500000, 8169.000000, 8231.000000, 8217.000000
2208, 53766768.000000, 2011.000000, 8175.000000, 8230.000000, 8220.000000
2209, 53766928.000000, 1937.000000, 8181.000000, 8232.000000, 8224.000000
2210, 53767088.000000, 1872.000000, 8190.000000, 8236.000000, 8232.000000
2211, 53767248.000000, 1818.250000, 8198.000000, 8243.000000, 8246.000000
2212, 53767408.000000, 1774.000000, 8209.000000, 8251.000000, 8261.000000
2213, 53767568.000000, 1740.000000, 8220.000000, 8258.000000, 8274.000000
2214, 53767728.000000, 1710.000000, 8226.000000, 8258.000000, 8278.000000
2215, 53767888.000000, 1682.750000, 8223.000000, 8260.000000, 8282.000000
2216, 53768048.000000, 1657.500000, 8212.000000, 8249.000000, 8269.000000
2217, 53768208.000000, 1635.000000, 8189.000000, 8223.000000, 8230.000000
2218, 53768368.000000, 1615.000000, 8166.000000, 8203.000000, 8193.000000
2219, 53768528.000000, 1595.000000, 8156.000000, 8192.000000, 8175.000000
2220, 53768688.000000, 1575.000000, 8156.000000, 8191.000000, 8172.000000
2221, 53768848.000000, 1553.500000, 8160.000000, 8193.000000, 8177.000000
2222, 53769008.000000, 1528.500000, 8165.000000, 8193.000000, 8180.000000
2223, 53769168.000000, 1502.250000, 8168.000000, 8192.000000, 8181.000000
2224, 53769328.000000, 1472.250000, 8169.000000, 8188.000000, 8176.000000
2225, 53769488.000000, 1435.750000, 8172.000000, 8189.000000, 8179.000000
2226, 53769648.000000, 1388.250000, 8172.000000, 8186.000000, 8176.000000
2227, 53769808.000000, 1338.000000, 8173.000000, 8185.000000, 8174.000000
2228, 53769968.000000, 1305.750000, 8172.000000, 8182.000000, 8170.000000
2229, 53770128.000000, 1378.750000, 8173.000000, 8179.000000, 8166.000000
2230, 53770288.000000, 1617.000000, 8175.000000, 8180.000000, 8168.000000
2231, 53770448.000000, 2013.750000, 8174.000000, 8180.000000, 8167.000000
2232, 53770608.000000, 2460.000000, 8178.000000, 8180.000000, 8168.000000
2233, 53770768.000000, 2850.500000, 8177.000000, 8180.000000, 8167.000000
2234, 53770928.000000, 3113.000000, 8179.000000, 8177.000000, 8166.000000
2235, 53771088.000000, 3226.750000, 8182.000000, 8180.000000, 8169.000000
2236, 53771248.000000, 3212.750000, 8184.000000, 8180.000000, 8170.000000
2237, 53771408.000000, 3105.750000, 8193.000000, 8187.000000, 8187.000000
2238, 53771568.000000, 2951.500000, 8201.000000, 8197.000000, 8210.000000
2239, 53771728.000000, 2774.750000, 8211.000000, 8198.000000, 8220.000000
2240, 53771888.000000, 2595.250000, 8210.000000, 8189.000000, 8202.000000
2241, 53772048.000000, 2441.000000, 8195.000000, 8181.000000, 8176.000000
2242, 53772208.000000, 2341.750000, 8189.000000, 8171.000000, 8160.000000
2243, 53772368.000000, 2299.750000, 8190.000000, 8170.000000, 8156.000000
2244, 53772528.000000, 2296.500000, 8191.000000, 8170.000000, 8159.000000
2245, 53772688.000000, 2305.000000, 8178.000000, 8215.000000, 8201.000000
2246, 53772848.000000, 2308.500000, 8468.000000, 8069.000000, 8222.000000
2247, 53773008.000000, 2289.750000, 8394.000000, 7885.000000, 7963.000000
2248, 53773168.000000, 2243.750000, 8201.000000, 8148.000000, 8145.000000
2249, 53773328.000000, 2172.500000, 8202.000000, 8205.000000, 8201.000000
2250, 53773488.000000, 2080.750000, 8198.000000, 8213.000000, 8208.000000
2251, 53773648.000000, 1985.500000, 8201.000000, 8218.000000, 8215.000000
2252, 53773808.000000, 1893.000000, 8204.000000, 8219.000000, 8220.000000
2253, 53773968.000000, 1810.500000, 8212.000000, 8220.000000, 8222.000000
2254, 53774128.000000, 1738.750000, 8222.000000, 8223.000000, 8232.000000
2255, 53774288.000000, 1680.000000, 8235.000000, 8230.000000, 8246.000000
2256, 53774448.000000, 1632.500000, 8245.000000, 8238.000000, 8262.000000
2257, 53774608.000000, 1596.750000, 8255.000000, 8243.000000, 8270.000000
2258, 53774768.000000, 1566.000000, 8251.000000, 8241.000000, 8271.000000
2259, 53774928.000000, 1537.000000, 8245.000000, 8237.000000, 8265.000000
2260, 53775088.000000, 1508.750000, 8228.000000, 8221.000000, 8242.000000
2261, 53775248.000000, 1482.500000, 8200.000000, 8201.000000, 8209.000000
2262, 53775408.000000, 1458.500000, 8182.000000, 8191.000000, 8186.000000
2263, 53775568.000000, 1435.000000, 8176.000000, 8182.000000, 8173.000000
2264, 53775728.000000, 1415.750000, 8177.000000, 8183.000000, 8176.000000
2265, 53775888.000000, 1395.000000, 8183.000000, 8185.000000, 8180.000000
2266, 53776048.000000, 1375.000000, 8182.000000, 8186.000000, 8183.000000
2267, 53776208.000000, 1353.500000, 8187.000000, 8185.000000, 8183.000000
2268, 53776368.000000, 1329.500000, 8185.000000, 8181.000000, 8178.000000
2269, 53776528.000000, 1296.250000, 8186.000000, 8178.000000, 8177.000000
2270, 53776688.000000, 1253.000000, 8185.000000, 8178.000000, 8178.000000
2271, 53776848.000000, 1202.500000, 8185.000000, 8181.000000, 8176.000000
2272, 53777008.000000, 1175.000000, 8182.000000, 8179.000000, 8174.000000
2273, 53777168.000000, 1227.500000, 8185.000000, 8175.000000, 8170.000000
2274, 53777328.000000, 1449.500000, 8184.000000, 8176.000000, 8170.000000
2275, 53777488.000000, 1828.000000, 8181.000000, 8176.000000, 8170.000000
2276, 53777648.000000, 2271.000000, 8184.000000, 8178.000000, 8174.000000
2277, 53777808.000000, 2655.000000, 8185.000000, 8178.000000, 8173.000000
2278, 53777968.000000, 2912.000000, 8184.000000, 8176.000000, 8170.000000
2279, 53778128.000000, 3012.500000, 8184.000000, 8178.000000, 8174.000000
2280, 53778288.000000, 2976.250000, 8199.000000, 8194.000000, 8202.000000
2281, 53778448.000000, 2848.500000, 8201.000000, 8200.000000, 8221.000000
2282, 53778608.000000, 2667.500000, 8203.000000, 8192.000000, 8210.000000
2283, 53778768.000000, 2459.500000, 8196.000000, 8182.000000, 8182.000000
2284, 53778928.000000, 2249.250000, 8182.000000, 8172.000000, 8161.000000
2285, 53779088.000000, 2083.000000, 8178.000000, 8173.000000, 8161.000000
2286, 53779248.000000, 1988.750000, 8183.000000, 8174.000000, 8165.000000
2287, 53779408.000000, 1970.750000, 8167.000000, 8196.000000, 8177.000000
2288, 53779568.000000, 2002.500000, 8338.000000, 8210.000000, 8298.000000
2289, 53779728.000000, 2051.500000, 8477.000000, 7962.000000, 8123.000000
2290, 53779888.000000, 2087.500000, 8152.000000, 8056.000000, 8021.000000
2291, 53780048.000000, 2090.250000, 8182.000000, 8187.000000, 8180.000000
2292, 53780208.000000, 2057.000000, 8185.000000, 8206.000000, 8197.000000
2293, 53780368.000000, 1992.500000, 8179.000000, 8207.000000, 8196.000000
2294, 53780528.000000, 1910.750000, 8186.000000, 8210.000000, 8201.000000
2295, 53780688.000000, 1822.750000, 8191.000000, 8215.000000, 8210.000000
2296, 53780848.000000, 1741.750000, 8200.000000, 8221.000000, 8221.000000
2297, 53781008.000000, 1671.250000, 8210.000000, 8224.000000, 8231.000000
2298, 53781168.000000, 1617.000000, 8222.000000, 8229.000000, 8240.000000
2299, 53781328.000000, 1574.500000, 8234.000000, 8234.000000, 8251.000000
2300, 53781488.000000, 1544.500000, 8237.000000, 8240.000000, 8259.000000
2301, 53781648.000000, 1519.750000, 8230.000000, 8240.000000, 8262.000000
2302, 53781808.000000, 1497.250000, 8214.000000, 8229.000000, 8245.000000
2303, 53781968.000000, 1482.750000, 8187.000000, 8211.000000, 8215.000000
2304, 53782128.000000, 1472.750000, 8166.000000, 8196.000000, 8186.000000
2305, 53782288.000000, 1463.250000, 8156.000000, 8192.000000, 8177.000000
2306, 53782448.000000, 1453.250000, 8155.000000, 8193.000000, 8178.000000
2307, 53782608.000000, 1436.000000, 8158.000000, 8194.000000, 8179.000000
2308, 53782768.000000, 1420.750000, 8163.000000, 8195.000000, 8183.000000
2309, 53782928.000000, 1405.250000, 8164.000000, 8194.000000, 8183.000000
2310, 53783088.000000, 1383.500000, 8167.000000, 8194.000000, 8185.000000
2311, 53783248.000000, 1349.750000, 8167.000000, 8193.000000, 8184.000000
2312, 53783408.000000, 1308.250000, 8167.000000, 8190.000000, 8181.000000
2313, 53783568.000000, 1262.750000, 8164.000000, 8186.000000, 8175.000000
2314, 53783728.000000, 1224.250000, 8165.000000, 8186.000000, 8175.000000
2315, 53783888.000000, 1228.000000, 8162.000000, 8185.000000, 8172.000000
2316, 53784048.000000, 1388.500000, 8161.000000, 8187.000000, 8174.000000
2317, 53784208.000000, 1764.000000, 8163.000000, 8186.000000, 8174.000000
2318, 53784368.000000, 2176.250000, 8163.000000, 8183.000000, 8169.000000
2319, 53784528.000000, 2552.750000, 8163.000000, 8184.000000, 8170.000000
2320, 53784688.000000, 2817.250000, 8166.000000, 8187.000000, 8175.000000
2321, 53784848.000000, 2928.000000, 8165.000000, 8188.000000, 8177.000000
2322, 53785008.000000, 2901.250000, 8171.000000, 8193.000000, 8186.000000
2323, 53785168.000000, 2758.750000, 8180.000000, 8203.000000, 8208.000000
2324, 53785328.000000, 2533.000000, 8188.000000, 8205.000000, 8219.000000
2325, 53785488.000000, 2272.750000, 8183.000000, 8198.000000, 8205.000000
2326, 53785648.000000, 2076.750000, 8174.000000, 8187.000000, 8178.000000
2327, 53785808.000000, 1947.250000, 8166.000000, 8182.000000, 8164.000000
2328, 53785968.000000, 1892.750000, 8166.000000, 8179.000000, 8161.000000
2329, 53786128.000000, 1924.750000, 8165.000000, 8180.000000, 8163.000000
2330, 53786288.000000, 1978.250000, 8146.000000, 8228.000000, 8205.000000
2331, 53786448.000000, 2021.750000, 8443.000000, 8098.000000, 8244.000000
2332, 53786608.000000, 2037.750000, 8359.000000, 7925.000000, 7997.000000
2333, 53786768.000000, 2015.750000, 8165.000000, 8148.000000, 8131.000000
2334, 53786928.000000, 1960.000000, 8170.000000, 8210.000000, 8197.000000
2335, 53787088.000000, 1878.000000, 8169.000000, 8220.000000, 8206.000000
2336, 53787248.000000, 1788.000000, 8170.000000, 8223.000000, 8212.000000
2337, 53787408.000000, 1701.000000, 8176.000000, 8226.000000, 8217.000000
2338, 53787568.000000, 1627.500000, 8181.000000, 8227.000000, 8221.000000
2339, 53787728.000000, 1571.000000, 8192.000000, 8232.000000, 8233.000000
2340, 53787888.000000, 1528.500000, 8202.000000, 8241.000000, 8247.000000
2341, 53788048.000000, 1499.500000, 8214.000000, 8250.000000, 8262.000000
2342, 53788208.000000, 1478.000000, 8224.000000, 8256.000000, 8274.000000
2343, 53788368.000000, 1459.500000, 8221.000000, 8256.000000, 8276.000000
2344, 53788528.000000, 1444.500000, 8215.000000, 8250.000000, 8270.000000
2345, 53788688.000000, 1427.750000, 8195.000000, 8233.000000, 8246.000000
2346, 53788848.000000, 1414.250000, 8171.000000, 8210.000000, 8207.000000
2347, 53789008.000000, 1405.000000, 8153.000000, 8198.000000, 8183.000000
2348, 53789168.000000, 1395.750000, 8147.000000, 8191.000000, 8172.000000
2349, 53789328.000000, 1386.000000, 8152.000000, 8193.000000, 8174.000000
2350, 53789488.000000, 1375.250000, 8155.000000, 8196.000000, 8179.000000
2351, 53789648.000000, 1361.750000, 8158.000000, 8195.000000, 8182.000000
2352, 53789808.000000, 1341.500000, 8159.000000, 8193.000000, 8180.000000
2353, 53789968.000000, 1310.000000, 8162.000000, 8191.000000, 8180.000000
2354, 53790128.000000, 1266.500000, 8161.000000, 8189.000000, 8176.000000
2355, 53790288.000000, 1231.250000, 8161.000000, 8190.000000, 8177.000000
2356, 53790448.000000, 1244.500000, 8158.000000, 8187.000000, 8172.000000
2357, 53790608.000000, 1412.000000, 8159.000000, 8186.000000, 8171.000000
2358, 53790768.000000, 1759.000000, 8157.000000, 8185.000000, 8169.000000
2359, 53790928.000000, 2232.250000, 8158.000000, 8183.000000, 8166.000000
2360, 53791088.000000, 2697.500000, 8161.000000, 8185.000000, 8170.000000
2361, 53791248.000000, 3051.500000, 8161.000000, 8186.000000, 8171.000000
2362, 53791408.000000, 3229.500000, 8161.000000, 8186.000000, 8169.000000
2363, 53791568.000000, 3241.500000, 8161.000000, 8183.000000, 8166.000000
2364, 53791728.000000, 3126.500000, 8163.000000, 8184.000000, 8168.000000
2365, 53791888.000000, 2933.250000, 8170.000000, 8194.000000, 8187.000000
2366, 53792048.000000, 2708.000000, 8179.000000, 8205.000000, 8211.000000
2367, 53792208.000000, 2481.250000, 8184.000000, 8205.000000, 8217.000000
2368, 53792368.000000, 2282.750000, 8181.000000, 8193.000000, 8193.000000
2369, 53792528.000000, 2149.750000, 8168.000000, 8184.000000, 8169.000000
2370, 53792688.000000, 2096.750000, 8162.000000, 8179.000000, 8158.000000
2371, 53792848.000000, 2101.000000, 8164.000000, 8181.000000, 8160.000000
2372, 53793008.000000, 2137.000000, 8162.000000, 8180.000000, 8157.000000
2373, 53793168.000000, 2167.750000, 8156.000000, 8221.000000, 8200.000000
2374, 53793328.000000, 2173.000000, 8468.000000, 7986.000000, 8145.000000
2375, 53793488.000000, 2141.750000, 8300.000000, 7914.000000, 7941.000000
2376, 53793648.000000, 2074.750000, 8176.000000, 8179.000000, 8170.000000
2377, 53793808.000000, 1987.250000, 8167.000000, 8221.000000, 8206.000000
2378, 53793968.000000, 1887.000000, 8166.000000, 8226.000000, 8210.000000
2379, 53794128.000000, 1790.750000, 8168.000000, 8228.000000, 8213.000000
2380, 53794288.000000, 1705.750000, 8175.000000, 8231.000000, 8221.000000
2381, 53794448.000000, 1638.250000, 8179.000000, 8238.000000, 8231.000000
2382, 53794608.000000, 1589.250000, 8187.000000, 8241.000000, 8239.000000
2383, 53794768.000000, 1554.500000, 8199.000000, 8247.000000, 8251.000000
2384, 53794928.000000, 1531.250000, 8211.000000, 8254.000000, 8266.000000
2385, 53795088.000000, 1512.250000, 8222.000000, 8260.000000, 8279.000000
2386, 53795248.000000, 1496.500000, 8220.000000, 8263.000000, 8283.000000
2387, 53795408.000000, 1481.250000, 8212.000000, 8255.000000, 8275.000000
2388, 53795568.000000, 1464.500000, 8188.000000, 8232.000000, 8240.000000
2389, 53795728.000000, 1449.500000, 8164.000000, 8208.000000, 8199.000000
2390, 53795888.000000, 1434.500000, 8150.000000, 8198.000000, 8179.000000
2391, 53796048.000000, 1420.250000, 8148.000000, 8197.000000, 8177.000000
2392, 53796208.000000, 1402.750000, 8151.000000, 8195.000000, 8177.000000
2393, 53796368.000000, 1387.500000, 8154.000000, 8192.000000, 8174.000000
2394, 53796528.000000, 1372.500000, 8159.000000, 8193.000000, 8178.000000
2395, 53796688.000000, 1352.500000, 8161.000000, 8192.000000, 8179.000000
2396, 53796848.000000, 1321.750000, 8163.000000, 8193.000000, 8181.000000
2397, 53797008.000000, 1275.500000, 8162.000000, 8191.000000, 8180.000000
2398, 53797168.000000, 1246.500000, 8163.000000, 8186.000000, 8172.000000
2399, 53797328.000000, 1304.750000, 8163.000000, 8184.000000, 8170.000000
2400, 53797488.000000, 1555.250000, 8163.000000, 8187.000000, 8173.000000
2401, 53797648.000000, 1990.250000, 8162.000000, 8187.000000, 8172.000000
2402, 53797808.000000, 2511.000000, 8162.000000, 8184.000000, 8169.000000
2403, 53797968.000000, 2966.000000, 8164.000000, 8183.000000, 8166.000000
2404, 53798128.000000, 3268.250000, 8164.000000, 8183.000000, 8166.000000
2405, 53798288.000000, 3382.000000, 8166.000000, 8186.000000, 8172.000000
2406, 53798448.000000, 3339.250000, 8168.000000, 8186.000000, 8173.000000
2407, 53798608.000000, 3189.250000, 8169.000000, 8187.000000, 8175.000000
2408, 53798768.000000, 2990.000000, 8182.000000, 8200.000000, 8206.000000
2409, 53798928.000000, 2774.000000, 8186.000000, 8205.000000, 8216.000000
2410, 53799088.000000, 2557.250000, 8189.000000, 8201.000000, 8214.000000
2411, 53799248.000000, 2367.000000, 8187.000000, 8192.000000, 8192.000000
2412, 53799408.000000, 2231.000000, 8173.000000, 8182.000000, 8167.000000
2413, 53799568.000000, 2166.000000, 8168.000000, 8177.000000, 8158.000000
2414, 53799728.000000, 2151.250000, 8167.000000, 8177.000000, 8156.000000
2415, 53799888.000000, 2156.500000, 8159.000000, 8189.000000, 8162.000000
2416, 53800048.000000, 2154.000000, 8227.000000, 8210.000000, 8234.000000
2417, 53800208.000000, 2129.500000, 8516.000000, 7857.000000, 8046.000000
2418, 53800368.000000, 2073.500000, 8177.000000, 8016.000000, 7983.000000
2419, 53800528.000000, 1992.500000, 8181.000000, 8202.000000, 8192.000000
2420, 53800688.000000, 1896.000000, 8171.000000, 8227.000000, 8214.000000
2421, 53800848.000000, 1795.250000, 8168.000000, 8231.000000, 8216.000000
2422, 53801008.000000, 1700.250000, 8175.000000, 8232.000000, 8220.000000
2423, 53801168.000000, 1615.500000, 8178.000000, 8232.000000, 8220.000000
2424, 53801328.000000, 1546.250000, 8188.000000, 8238.000000, 8233.000000
2425, 53801488.000000, 1489.500000, 8197.000000, 8243.000000, 8245.000000
2426, 53801648.000000, 1451.250000, 8209.000000, 8250.000000, 8260.000000
2427, 53801808.000000, 1421.250000, 8223.000000, 8256.000000, 8274.000000
2428, 53801968.000000, 1396.250000, 8228.000000, 8258.000000, 8279.000000
2429, 53802128.000000, 1377.250000, 8225.000000, 8257.000000, 8278.000000
2430, 53802288.000000, 1358.000000, 8215.000000, 8249.000000, 8269.000000
2431, 53802448.000000, 1338.250000, 8189.000000, 8224.000000, 8229.000000
2432, 53802608.000000, 1319.250000, 8166.000000, 8204.000000, 8194.000000
2433, 53802768.000000, 1298.750000, 8154.000000, 8194.000000, 8176.000000
2434, 53802928.000000, 1274.500000, 8152.000000, 8192.000000, 8171.000000
2435, 53803088.000000, 1251.000000, 8160.000000, 8194.000000, 8178.000000
2436, 53803248.000000, 1229.250000, 8162.000000, 8195.000000, 8182.000000
2437, 53803408.000000, 1208.750000, 8166.000000, 8194.000000, 8182.000000
2438, 53803568.000000, 1180.500000, 8168.000000, 8191.000000, 8180.000000
2439, 53803728.000000, 1139.250000, 8168.000000, 8190.000000, 8179.000000
2440, 53803888.000000, 1091.750000, 8168.000000, 8190.000000, 8179.000000
2441, 53804048.000000, 1063.750000, 8168.000000, 8187.000000, 8176.000000
2442, 53804208.000000, 1126.750000, 8168.000000, 8185.000000, 8172.000000
2443, 53804368.000000, 1361.250000, 8168.000000, 8182.000000, 8169.000000
2444, 53804528.000000, 1764.750000, 8171.000000, 8183.000000, 8172.000000
2445, 53804688.000000, 2234.750000, 8168.000000, 8182.000000, 8169.000000
2446, 53804848.000000, 2642.000000, 8171.000000, 8184.000000, 8171.000000
2447, 53805008.000000, 2900.750000, 8171.000000, 8182.000000, 8171.000000
2448, 53805168.000000, 2984.250000, 8172.000000, 8181.000000, 8169.000000
2449, 53805328.000000, 2927.500000, 8176.000000, 8181.000000, 8168.000000
2450, 53805488.000000, 2778.000000, 8176.000000, 8184.000000, 8175.000000
2451, 53805648.000000, 2590.000000, 8193.000000, 8201.000000, 8211.000000
2452, 53805808.000000, 2386.500000, 8198.000000, 8203.000000, 8220.000000
2453, 53805968.000000, 2187.000000, 8197.000000, 8194.000000, 8208.000000
2454, 53806128.000000, 2015.000000, 8196.000000, 8185.000000, 8185.000000
2455, 53806288.000000, 1900.250000, 8183.000000, 8178.000000, 8167.000000
2456, 53806448.000000, 1848.250000, 8179.000000, 8176.000000, 8161.000000
2457, 53806608.000000, 1835.000000, 8182.000000, 8174.000000, 8159.000000
2458, 53806768.000000, 1838.500000, 8169.000000, 8192.000000, 8166.000000
2459, 53806928.000000, 1834.500000, 8307.000000, 8207.000000, 8277.000000
2460, 53807088.000000, 1811.250000, 8524.000000, 7858.000000, 8042.000000
2461, 53807248.000000, 1761.750000, 8177.000000, 8067.000000, 8038.000000
2462, 53807408.000000, 1691.000000, 8194.000000, 8202.000000, 8197.000000
2463, 53807568.000000, 1606.250000, 8189.000000, 8217.000000, 8210.000000
2464, 53807728.000000, 1519.500000, 8193.000000, 8222.000000, 8216.000000
2465, 53807888.000000, 1438.500000, 8198.000000, 8225.000000, 8222.000000
2466, 53808048.000000, 1368.500000, 8205.000000, 8229.000000, 8229.000000
2467, 53808208.000000, 1310.750000, 8211.000000, 8229.000000, 8233.000000
2468, 53808368.000000, 1263.250000, 8222.000000, 8233.000000, 8244.000000
2469, 53808528.000000, 1228.750000, 8234.000000, 8239.000000, 8256.000000
2470, 53808688.000000, 1198.750000, 8248.000000, 8246.000000, 8272.000000
2471, 53808848.000000, 1172.500000, 8254.000000, 8247.000000, 8277.000000
2472, 53809008.000000, 1150.000000, 8246.000000, 8246.000000, 8273.000000
2473, 53809168.000000, 1133.250000, 8237.000000, 8233.000000, 8258.000000
2474, 53809328.000000, 1114.000000, 8211.000000, 8213.000000, 8223.000000
2475, 53809488.000000, 1094.000000, 8186.000000, 8197.000000, 8196.000000
2476, 53809648.000000, 1072.250000, 8181.000000, 8191.000000, 8183.000000
2477, 53809808.000000, 1048.000000, 8178.000000, 8186.000000, 8176.000000
2478, 53809968.000000, 1027.250000, 8182.000000, 8186.000000, 8177.000000
2479, 53810128.000000, 1006.750000, 8188.000000, 8187.000000, 8182.000000
2480, 53810288.000000, 982.500000, 8190.000000, 8188.000000, 8186.000000
2481, 53810448.000000, 956.000000, 8192.000000, 8185.000000, 8186.000000
2482, 53810608.000000, 922.750000, 8193.000000, 8182.000000, 8180.000000
2483, 53810768.000000, 883.000000, 8192.000000, 8178.000000, 8175.000000
2484, 53810928.000000, 849.250000, 8190.000000, 8180.000000, 8176.000000
2485, 53811088.000000, 875.250000, 8192.000000, 8181.000000, 8178.000000
2486, 53811248.000000, 1027.250000, 8189.000000, 8177.000000, 8174.000000
2487, 53811408.000000, 1340.750000, 8189.000000, 8177.000000, 8172.000000
2488, 53811568.000000, 1747.250000, 8189.000000, 8175.000000, 8170.000000
2489, 53811728.000000, 2133.250000, 8191.000000, 8175.000000, 8172.000000
2490, 53811888.000000, 2406.500000, 8190.000000, 8177.000000, 8173.000000
2491, 53812048.000000, 2532.500000, 8194.000000, 8178.000000, 8173.000000
2492, 53812208.000000, 2523.500000, 8193.000000, 8173.000000, 8171.000000
2493, 53812368.000000, 2415.500000, 8199.000000, 8182.000000, 8186.000000
2494, 53812528.000000, 2255.500000, 8208.000000, 8192.000000, 8206.000000
2495, 53812688.000000, 2068.750000, 8215.000000, 8194.000000, 8218.000000
2496, 53812848.000000, 1879.500000, 8208.000000, 8186.000000, 8198.000000
2497, 53813008.000000, 1717.250000, 8196.000000, 8174.000000, 8172.000000
2498, 53813168.000000, 1617.250000, 8188.000000, 8167.000000, 8160.000000
2499, 53813328.000000, 1585.500000, 8191.000000, 8170.000000, 8161.000000
2500, 53813488.000000, 1604.750000, 8189.000000, 8173.000000, 8164.000000
2501, 53813648.000000, 1642.000000, 8197.000000, 8216.000000, 8218.000000
2502, 53813808.000000, 1675.500000, 8496.000000, 8081.000000, 8253.000000
2503, 53813968.000000, 1682.500000, 8277.000000, 7975.000000, 8009.000000
2504, 53814128.000000, 1653.250000, 8186.000000, 8144.000000, 8135.000000
2505, 53814288.000000, 1598.000000, 8192.000000, 8200.000000, 8197.000000
2506, 53814448.000000, 1523.750000, 8194.000000, 8205.000000, 8200.000000
2507, 53814608.000000, 1447.750000, 8197.000000, 8205.000000, 8202.000000
2508, 53814768.000000, 1378.500000, 8200.000000, 8207.000000, 8207.000000
2509, 53814928.000000, 1320.000000, 8209.000000, 8213.000000, 8217.000000
2510, 53815088.000000, 1275.000000, 8220.000000, 8218.000000, 8228.000000
2511, 53815248.000000, 1241.000000, 8231.000000, 8223.000000, 8238.000000
2512, 53815408.000000, 1215.250000, 8244.000000, 8225.000000, 8245.000000
2513, 53815568.000000, 1198.750000, 8252.000000, 8228.000000, 8253.000000
2514, 53815728.000000, 1188.750000, 8251.000000, 8233.000000, 8261.000000
2515, 53815888.000000, 1181.250000, 8243.000000, 8229.000000, 8256.000000
2516, 53816048.000000, 1175.500000, 8215.000000, 8219.000000, 8237.000000
2517, 53816208.000000, 1170.500000, 8190.000000, 8201.000000, 8203.000000
2518, 53816368.000000, 1165.500000, 8173.000000, 8190.000000, 8183.000000
2519, 53816528.000000, 1160.250000, 8168.000000, 8188.000000, 8179.000000
2520, 53816688.000000, 1151.000000, 8168.000000, 8193.000000, 8184.000000
2521, 53816848.000000, 1141.000000, 8176.000000, 8193.000000, 8186.000000
2522, 53817008.000000, 1129.250000, 8174.000000, 8193.000000, 8186.000000
2523, 53817168.000000, 1111.750000, 8177.000000, 8187.000000, 8182.000000
2524, 53817328.000000, 1087.000000, 8180.000000, 8190.000000, 8185.000000
2525, 53817488.000000, 1055.750000, 8178.000000, 8189.000000, 8185.000000
2526, 53817648.000000, 1022.250000, 8179.000000, 8186.000000, 8181.000000
2527, 53817808.000000, 997.000000, 8174.000000, 8183.000000, 8176.000000
2528, 53817968.000000, 1013.500000, 8171.000000, 8181.000000, 8170.000000
2529, 53818128.000000, 1127.500000, 8175.000000, 8185.000000, 8175.000000
2530, 53818288.000000, 1380.500000, 8171.000000, 8184.000000, 8175.000000
2531, 53818448.000000, 1719.500000, 8172.000000, 8185.000000, 8173.000000
2532, 53818608.000000, 2059.250000, 8170.000000, 8182.000000, 8171.000000
2533, 53818768.000000, 2312.750000, 8180.000000, 8189.000000, 8186.000000
2534, 53818928.000000, 2443.750000, 8186.000000, 8200.000000, 8205.000000
2535, 53819088.000000, 2454.750000, 8195.000000, 8204.000000, 8221.000000
2536, 53819248.000000, 2368.500000, 8193.000000, 8194.000000, 8200.000000
2537, 53819408.000000, 2225.000000, 8178.000000, 8184.000000, 8174.000000
2538, 53819568.000000, 2046.500000, 8170.000000, 8177.000000, 8162.000000
2539, 53819728.000000, 1869.500000, 8173.000000, 8179.000000, 8162.000000
2540, 53819888.000000, 1722.500000, 8170.000000, 8180.000000, 8163.000000
2541, 53820048.000000, 1639.250000, 8163.000000, 8222.000000, 8208.000000
2542, 53820208.000000, 1616.750000, 8460.000000, 8130.000000, 8280.000000
2543, 53820368.000000, 1645.500000, 8321.000000, 7978.000000, 8039.000000
2544, 53820528.000000, 1696.500000, 8160.000000, 8135.000000, 8109.000000
2545, 53820688.000000, 1745.500000, 8176.000000, 8202.000000, 8191.000000
2546, 53820848.000000, 1768.750000, 8174.000000, 8209.000000, 8196.000000
2547, 53821008.000000, 1758.750000, 8178.000000, 8210.000000, 8198.000000
2548, 53821168.000000, 1717.250000, 8181.000000, 8213.000000, 8203.000000
2549, 53821328.000000, 1650.750000, 8192.000000, 8218.000000, 8213.000000
2550, 53821488.000000, 1578.250000, 8200.000000, 8222.000000, 8224.000000
2551, 53821648.000000, 1509.750000, 8214.000000, 8226.000000, 8232.000000
2552, 53821808.000000, 1453.250000, 8229.000000, 8231.000000, 8245.000000
2553, 53821968.000000, 1407.500000, 8236.000000, 8234.000000, 8252.000000
2554, 53822128.000000, 1374.250000, 8238.000000, 8238.000000, 8258.000000
2555, 53822288.000000, 1349.250000, 8226.000000, 8237.000000, 8257.000000
2556, 53822448.000000, 1332.500000, 8205.000000, 8224.000000, 8238.000000
2557, 53822608.000000, 1320.250000, 8172.000000, 8207.000000, 8205.000000
2558, 53822768.000000, 1313.500000, 8157.000000, 8195.000000, 8181.000000
2559, 53822928.000000, 1308.500000, 8154.000000, 8195.000000, 8179.000000
2560, 53823088.000000, 1303.500000, 8154.000000, 8196.000000, 8180.000000
2561, 53823248.000000, 1296.750000, 8157.000000, 8197.000000, 8183.000000
2562, 53823408.000000, 1284.250000, 8161.000000, 8195.000000, 8184.000000
2563, 53823568.000000, 1269.250000, 8165.000000, 8193.000000, 8184.000000
2564, 53823728.000000, 1245.000000, 8165.000000, 8194.000000, 8185.000000
2565, 53823888.000000, 1212.750000, 8168.000000, 8194.000000, 8185.000000
2566, 53824048.000000, 1179.500000, 8165.000000, 8189.000000, 8180.000000
2567, 53824208.000000, 1148.750000, 8161.000000, 8186.000000, 8173.000000
2568, 53824368.000000, 1147.750000, 8163.000000, 8186.000000, 8172.000000
2569, 53824528.000000, 1233.500000, 8162.000000, 8187.000000, 8174.000000
2570, 53824688.000000, 1458.750000, 8163.000000, 8187.000000, 8175.000000
2571, 53824848.000000, 1787.500000, 8161.000000, 8187.000000, 8174.000000
2572, 53825008.000000, 2133.750000, 8163.000000, 8185.000000, 8171.000000
2573, 53825168.000000, 2411.000000, 8174.000000, 8195.000000, 8192.000000
2574, 53825328.000000, 2573.750000, 8180.000000, 8207.000000, 8216.000000
2575, 53825488.000000, 2608.000000, 8182.000000, 8205.000000, 8217.000000
2576, 53825648.000000, 2538.500000, 8180.000000, 8194.000000, 8195.000000
2577, 53825808.000000, 2401.750000, 8162.000000, 8182.000000, 8165.000000
2578, 53825968.000000, 2230.000000, 8161.000000, 8179.000000, 8158.000000
2579, 53826128.000000, 2053.250000, 8161.000000, 8180.000000, 8157.000000
2580, 53826288.000000, 1900.500000, 8157.000000, 8185.000000, 8161.000000
2581, 53826448.000000, 1803.750000, 8182.000000, 8219.000000, 8216.000000
2582, 53826608.000000, 1767.250000, 8480.000000, 7990.000000, 8155.000000
2583, 53826768.000000, 1780.750000, 8225.000000, 7976.000000, 7975.000000
2584, 53826928.000000, 1825.000000, 8169.000000, 8178.000000, 8166.000000
2585, 53827088.000000, 1872.750000, 8164.000000, 8215.000000, 8200.000000
2586, 53827248.000000, 1899.250000, 8164.000000, 8220.000000, 8203.000000
2587, 53827408.000000, 1895.250000, 8166.000000, 8220.000000, 8206.000000
2588, 53827568.000000, 1856.250000, 8172.000000, 8224.000000, 8212.000000
2589, 53827728.000000, 1794.000000, 8182.000000, 8229.000000, 8224.000000
2590, 53827888.000000, 1719.750000, 8190.000000, 8236.000000, 8236.000000
2591, 53828048.000000, 1644.750000, 8202.000000, 8243.000000, 8249.000000
2592, 53828208.000000, 1576.500000, 8216.000000, 8249.000000, 8262.000000
2593, 53828368.000000, 1522.250000, 8225.000000, 8254.000000, 8271.000000
2594, 53828528.000000, 1480.500000, 8223.000000, 8257.000000, 8279.000000
2595, 53828688.000000, 1449.500000, 8212.000000, 8247.000000, 8267.000000
2596, 53828848.000000, 1427.750000, 8186.000000, 8225.000000, 8232.000000
2597, 53829008.000000, 1414.000000, 8157.000000, 8204.000000, 8194.000000
2598, 53829168.000000, 1404.000000, 8146.000000, 8196.000000, 8177.000000
2599, 53829328.000000, 1395.250000, 8144.000000, 8194.000000, 8173.000000
2600, 53829488.000000, 1385.250000, 8144.000000, 8196.000000, 8175.000000
2601, 53829648.000000, 1374.000000, 8149.000000, 8196.000000, 8177.000000
2602, 53829808.000000, 1364.000000, 8152.000000, 8194.000000, 8177.000000
2603, 53829968.000000, 1349.250000, 8155.000000, 8193.000000, 8178.000000
2604, 53830128.000000, 1325.000000, 8157.000000, 8194.000000, 8180.000000
2605, 53830288.000000, 1289.750000, 8154.000000, 8192.000000, 8176.000000
2606, 53830448.000000, 1251.250000, 8152.000000, 8190.000000, 8173.000000
2607, 53830608.000000, 1246.750000, 8154.000000, 8187.000000, 8171.000000
2608, 53830768.000000, 1362.000000, 8152.000000, 8186.000000, 8167.000000
2609, 53830928.000000, 1639.500000, 8153.000000, 8187.000000, 8170.000000
2610, 53831088.000000, 2046.750000, 8153.000000, 8187.000000, 8170.000000
2611, 53831248.000000, 2463.500000, 8154.000000, 8186.000000, 8168.000000
2612, 53831408.000000, 2795.000000, 8154.000000, 8185.000000, 8167.000000
2613, 53831568.000000, 2979.250000, 8155.000000, 8185.000000, 8166.000000
2614, 53831728.000000, 3020.750000, 8163.000000, 8195.000000, 8187.000000
2615, 53831888.000000, 2948.250000, 8172.000000, 8209.000000, 8213.000000
2616, 53832048.000000, 2811.500000, 8178.000000, 8205.000000, 8215.000000
2617, 53832208.000000, 2642.000000, 8174.000000, 8193.000000, 8194.000000
2618, 53832368.000000, 2456.750000, 8162.000000, 8184.000000, 8167.000000
2619, 53832528.000000, 2277.750000, 8157.000000, 8181.000000, 8159.000000
2620, 53832688.000000, 2133.500000, 8157.000000, 8181.000000, 8159.000000
2621, 53832848.000000, 2049.500000, 8157.000000, 8182.000000, 8158.000000
2622, 53833008.000000, 2013.750000, 8147.000000, 8224.000000, 8201.000000
2623, 53833168.000000, 2009.250000, 8454.000000, 7981.000000, 8131.000000
2624, 53833328.000000, 2011.750000, 8322.000000, 7892.000000, 7926.000000
2625, 53833488.000000, 2006.250000, 8170.000000, 8177.000000, 8164.000000
2626, 53833648.000000, 1979.750000, 8161.000000, 8221.000000, 8204.000000
2627, 53833808.000000, 1925.000000, 8158.000000, 8227.000000, 8208.000000
2628, 53833968.000000, 1848.250000, 8163.000000, 8231.000000, 8215.000000
2629, 53834128.000000, 1758.000000, 8169.000000, 8234.000000, 8222.000000
2630, 53834288.000000, 1669.750000, 8176.000000, 8239.000000, 8232.000000
2631, 53834448.000000, 1587.750000, 8183.000000, 8244.000000, 8241.000000
2632, 53834608.000000, 1521.000000, 8194.000000, 8250.000000, 8254.000000
2633, 53834768.000000, 1467.000000, 8209.000000, 8258.000000, 8272.000000
2634, 53834928.000000, 1422.000000, 8221.000000, 8265.000000, 8287.000000
2635, 53835088.000000, 1389.250000, 8220.000000, 8268.000000, 8290.000000
2636, 53835248.000000, 1364.250000, 8211.000000, 8259.000000, 8279.000000
2637, 53835408.000000, 1341.500000, 8189.000000, 8233.000000, 8242.000000
2638, 53835568.000000, 1319.000000, 8163.000000, 8210.000000, 8202.000000
2639, 53835728.000000, 1297.750000, 8146.000000, 8201.000000, 8182.000000
2640, 53835888.000000, 1276.250000, 8146.000000, 8197.000000, 8176.000000
2641, 53836048.000000, 1253.500000, 8147.000000, 8196.000000, 8175.000000
2642, 53836208.000000, 1231.000000, 8150.000000, 8194.000000, 8175.000000
2643, 53836368.000000, 1211.000000, 8155.000000, 8193.000000, 8176.000000
2644, 53836528.000000, 1190.250000, 8158.000000, 8195.000000, 8182.000000
2645, 53836688.000000, 1159.750000, 8157.000000, 8194.000000, 8180.000000
2646, 53836848.000000, 1120.500000, 8158.000000, 8191.000000, 8178.000000
2647, 53837008.000000, 1077.000000, 8158.000000, 8188.000000, 8173.000000
2648, 53837168.000000, 1085.250000, 8158.000000, 8186.000000, 8171.000000
2649, 53837328.000000, 1221.500000, 8158.000000, 8188.000000, 8173.000000
2650, 53837488.000000, 1538.750000, 8158.000000, 8187.000000, 8172.000000
2651, 53837648.000000, 1957.000000, 8158.000000, 8186.000000, 8171.000000
2652, 53837808.000000, 2363.500000, 8159.000000, 8183.000000, 8168.000000
2653, 53837968.000000, 2654.500000, 8160.000000, 8184.000000, 8168.000000
2654, 53838128.000000, 2803.750000, 8162.000000, 8186.000000, 8173.000000
2655, 53838288.000000, 2819.500000, 8163.000000, 8187.000000, 8173.000000
2656, 53838448.000000, 2745.750000, 8162.000000, 8186.000000, 8171.000000
2657, 53838608.000000, 2626.750000, 8163.000000, 8186.000000, 8172.000000
2658, 53838768.000000, 2491.750000, 8179.000000, 8203.000000, 8209.000000
2659, 53838928.000000, 2337.750000, 8185.000000, 8207.000000, 8221.000000
2660, 53839088.000000, 2176.000000, 8182.000000, 8199.000000, 8207.000000
2661, 53839248.000000, 2035.000000, 8176.000000, 8187.000000, 8178.000000
2662, 53839408.000000, 1935.750000, 8164.000000, 8177.000000, 8156.000000
2663, 53839568.000000, 1883.000000, 8164.000000, 8177.000000, 8156.000000
2664, 53839728.000000, 1861.500000, 8165.000000, 8180.000000, 8161.000000
2665, 53839888.000000, 1850.500000, 8146.000000, 8206.000000, 8175.000000
2666, 53840048.000000, 1834.000000, 8309.000000, 8176.000000, 8257.000000
2667, 53840208.000000, 1800.750000, 8504.000000, 7805.000000, 7964.000000
2668, 53840368.000000, 1750.750000, 8166.000000, 8101.000000, 8075.000000
2669, 53840528.000000, 1686.000000, 8173.000000, 8216.000000, 8205.000000
2670, 53840688.000000, 1613.500000, 8166.000000, 8230.000000, 8216.000000
2671, 53840848.000000, 1540.000000, 8166.000000, 8233.000000, 8219.000000
2672, 53841008.000000, 1470.750000, 8171.000000, 8234.000000, 8223.000000
2673, 53841168.000000, 1405.000000, 8180.000000, 8238.000000, 8233.000000
2674, 53841328.000000, 1347.500000, 8190.000000, 8242.000000, 8242.000000
2675, 53841488.000000, 1300.000000, 8197.000000, 8249.000000, 8255.000000
2676, 53841648.000000, 1265.000000, 8209.000000, 8255.000000, 8269.000000
2677, 53841808.000000, 1240.000000, 8225.000000, 8261.000000, 8284.000000
2678, 53841968.000000, 1222.500000, 8228.000000, 8264.000000, 8289.000000
2679, 53842128.000000, 1208.500000, 8224.000000, 8265.000000, 8291.000000
2680, 53842288.000000, 1192.750000, 8211.000000, 8250.000000, 8270.000000
2681, 53842448.000000, 1177.250000, 8184.000000, 8220.000000, 8224.000000
2682, 53842608.000000, 1158.000000, 8162.000000, 8201.000000, 8190.000000
2683, 53842768.000000, 1139.500000, 8156.000000, 8193.000000, 8176.000000
2684, 53842928.000000, 1122.750000, 8155.000000, 8196.000000, 8179.000000
2685, 53843088.000000, 1109.750000, 8156.000000, 8195.000000, 8178.000000
2686, 53843248.000000, 1096.250000, 8162.000000, 8193.000000, 8180.000000
2687, 53843408.000000, 1082.500000, 8166.000000, 8192.000000, 8180.000000
2688, 53843568.000000, 1063.250000, 8168.000000, 8191.000000, 8180.000000
2689, 53843728.000000, 1035.750000, 8168.000000, 8191.000000, 8180.000000
2690, 53843888.000000, 1000.500000, 8169.000000, 8188.000000, 8178.000000
2691, 53844048.000000, 983.750000, 8167.000000, 8186.000000, 8173.000000
2692, 53844208.000000, 1043.000000, 8167.000000, 8184.000000, 8171.000000
2693, 53844368.000000, 1260.000000, 8166.000000, 8184.000000, 8170.000000
2694, 53844528.000000, 1606.500000, 8166.000000, 8185.000000, 8171.000000
2695, 53844688.000000, 1994.000000, 8165.000000, 8186.000000, 8173.000000
2696, 53844848.000000, 2312.250000, 8167.000000, 8183.000000, 8170.000000
2697, 53845008.000000, 2517.000000, 8168.000000, 8182.000000, 8169.000000
2698, 53845168.000000, 2595.000000, 8169.000000, 8184.000000, 8170.000000
2699, 53845328.000000, 2575.750000, 8169.000000, 8186.000000, 8174.000000
2700, 53845488.000000, 2497.500000, 8170.000000, 8184.000000, 8171.000000
2701, 53845648.000000, 2389.250000, 8171.000000, 8185.000000, 8174.000000
2702, 53845808.000000, 2265.000000, 8183.000000, 8198.000000, 8203.000000
2703, 53845968.000000, 2134.000000, 8188.000000, 8204.000000, 8216.000000
2704, 53846128.000000, 2009.750000, 8193.000000, 8203.000000, 8219.000000
2705, 53846288.000000, 1912.750000, 8191.000000, 8193.000000, 8197.000000
2706, 53846448.000000, 1854.500000, 8173.000000, 8181.000000, 8166.000000
2707, 53846608.000000, 1830.000000, 8168.000000, 8176.000000, 8157.000000
2708, 53846768.000000, 1821.750000, 8171.000000, 8178.000000, 8161.000000
2709, 53846928.000000, 1812.750000, 8165.000000, 8187.000000, 8164.000000
2710, 53847088.000000, 1794.500000, 8202.000000, 8212.000000, 8218.000000
2711, 53847248.000000, 1762.000000, 8513.000000, 7886.000000, 8071.000000
2712, 53847408.000000, 1715.250000, 8215.000000, 7979.000000, 7960.000000
2713, 53847568.000000, 1654.750000, 8185.000000, 8197.000000, 8192.000000
2714, 53847728.000000, 1591.250000, 8172.000000, 8225.000000, 8213.000000
2715, 53847888.000000, 1531.000000, 8174.000000, 8230.000000, 8219.000000
2716, 53848048.000000, 1473.500000, 8175.000000, 8231.000000, 8221.000000
2717, 53848208.000000, 1423.500000, 8182.000000, 8233.000000, 8226.000000
2718, 53848368.000000, 1381.750000, 8192.000000, 8237.000000, 8236.000000
2719, 53848528.000000, 1349.500000, 8199.000000, 8243.000000, 8247.000000
2720, 53848688.000000, 1327.000000, 8212.000000, 8249.000000, 8261.000000
2721, 53848848.000000, 1307.000000, 8223.000000, 8255.000000, 8271.000000
2722, 53849008.000000, 1287.750000, 8233.000000, 8256.000000, 8280.000000
2723, 53849168.000000, 1272.500000, 8234.000000, 8259.000000, 8284.000000
2724, 53849328.000000, 1259.250000, 8224.000000, 8252.000000, 8278.000000
2725, 53849488.000000, 1246.000000, 8207.000000, 8229.000000, 8242.000000
2726, 53849648.000000, 1233.500000, 8177.000000, 8205.000000, 8200.000000
2727, 53849808.000000, 1218.500000, 8167.000000, 8193.000000, 8180.000000
2728, 53849968.000000, 1204.250000, 8166.000000, 8191.000000, 8177.000000
2729, 53850128.000000, 1192.500000, 8173.000000, 8192.000000, 8179.000000
2730, 53850288.000000, 1177.500000, 8177.000000, 8192.000000, 8183.000000
2731, 53850448.000000, 1162.750000, 8181.000000, 8190.000000, 8184.000000
2732, 53850608.000000, 1149.500000, 8184.000000, 8188.000000, 8182.000000
2733, 53850768.000000, 1130.750000, 8187.000000, 8187.000000, 8183.000000
2734, 53850928.000000, 1104.000000, 8185.000000, 8187.000000, 8182.000000
2735, 53851088.000000, 1072.250000, 8186.000000, 8185.000000, 8180.000000
2736, 53851248.000000, 1062.750000, 8186.000000, 8181.000000, 8174.000000
2737, 53851408.000000, 1136.500000, 8186.000000, 8179.000000, 8170.000000
2738, 53851568.000000, 1353.500000, 8187.000000, 8180.000000, 8172.000000
2739, 53851728.000000, 1678.250000, 8186.000000, 8179.000000, 8172.000000
2740, 53851888.000000, 2020.500000, 8189.000000, 8178.000000, 8171.000000
2741, 53852048.000000, 2286.500000, 8190.000000, 8176.000000, 8168.000000
2742, 53852208.000000, 2443.250000, 8193.000000, 8177.000000, 8171.000000
2743, 53852368.000000, 2488.500000, 8193.000000, 8177.000000, 8171.000000
2744, 53852528.000000, 2444.000000, 8195.000000, 8178.000000, 8173.000000
2745, 53852688.000000, 2347.500000, 8203.000000, 8183.000000, 8187.000000
2746, 53852848.000000, 2228.250000, 8209.000000, 8191.000000, 8205.000000
2747, 53853008.000000, 2096.250000, 8219.000000, 8195.000000, 8218.000000
2748, 53853168.000000, 1963.750000, 8215.000000, 8186.000000, 8202.000000
2749, 53853328.000000, 1855.250000, 8202.000000, 8176.000000, 8174.000000
2750, 53853488.000000, 1789.500000, 8198.000000, 8169.000000, 8160.000000
2751, 53853648.000000, 1767.750000, 8195.000000, 8168.000000, 8157.000000
2752, 53853808.000000, 1773.000000, 8196.000000, 8168.000000, 8156.000000
2753, 53853968.000000, 1786.000000, 8182.000000, 8214.000000, 8203.000000
2754, 53854128.000000, 1790.250000, 8472.000000, 8099.000000, 8251.000000
2755, 53854288.000000, 1775.250000, 8388.000000, 7911.000000, 7991.000000
2756, 53854448.000000, 1741.250000, 8195.000000, 8132.000000, 8123.000000
2757, 53854608.000000, 1690.500000, 8200.000000, 8194.000000, 8189.000000
2758, 53854768.000000, 1633.000000, 8196.000000, 8205.000000, 8201.000000
2759, 53854928.000000, 1574.250000, 8202.000000, 8211.000000, 8209.000000
2760, 53855088.000000, 1520.250000, 8205.000000, 8211.000000, 8211.000000
2761, 53855248.000000, 1471.250000, 8211.000000, 8213.000000, 8217.000000
2762, 53855408.000000, 1428.000000, 8220.000000, 8218.000000, 8224.000000
2763, 53855568.000000, 1392.750000, 8230.000000, 8223.000000, 8237.000000
2764, 53855728.000000, 1364.500000, 8243.000000, 8231.000000, 8252.000000
2765, 53855888.000000, 1343.250000, 8253.000000, 8235.000000, 8261.000000
2766, 53856048.000000, 1328.250000, 8255.000000, 8235.000000, 8262.000000
2767, 53856208.000000, 1314.750000, 8245.000000, 8233.000000, 8259.000000
2768, 53856368.000000, 1304.750000, 8228.000000, 8219.000000, 8240.000000
2769, 53856528.000000, 1296.750000, 8201.000000, 8201.000000, 8208.000000
2770, 53856688.000000, 1284.250000, 8181.000000, 8188.000000, 8184.000000
2771, 53856848.000000, 1272.500000, 8175.000000, 8183.000000, 8173.000000
2772, 53857008.000000, 1260.750000, 8177.000000, 8184.000000, 8175.000000
2773, 53857168.000000, 1250.000000, 8182.000000, 8186.000000, 8179.000000
2774, 53857328.000000, 1240.000000, 8181.000000, 8187.000000, 8183.000000
2775, 53857488.000000, 1230.750000, 8186.000000, 8185.000000, 8182.000000
2776, 53857648.000000, 1216.750000, 8187.000000, 8184.000000, 8180.000000
2777, 53857808.000000, 1196.500000, 8186.000000, 8180.000000, 8177.000000
2778, 53857968.000000, 1170.750000, 8181.000000, 8181.000000, 8175.000000
2779, 53858128.000000, 1141.250000, 8183.000000, 8181.000000, 8176.000000
2780, 53858288.000000, 1124.250000, 8179.000000, 8178.000000, 8169.000000
2781, 53858448.000000, 1172.750000, 8180.000000, 8177.000000, 8170.000000
2782, 53858608.000000, 1342.000000, 8180.000000, 8176.000000, 8171.000000
2783, 53858768.000000, 1630.000000, 8181.000000, 8179.000000, 8171.000000
2784, 53858928.000000, 1960.500000, 8182.000000, 8180.000000, 8173.000000
2785, 53859088.000000, 2248.250000, 8180.000000, 8179.000000, 8172.000000
2786, 53859248.000000, 2442.250000, 8184.000000, 8182.000000, 8178.000000
2787, 53859408.000000, 2529.500000, 8195.000000, 8195.000000, 8206.000000
2788, 53859568.000000, 2523.000000, 8204.000000, 8200.000000, 8219.000000
2789, 53859728.000000, 2444.500000, 8198.000000, 8191.000000, 8204.000000
2790, 53859888.000000, 2322.750000, 8187.000000, 8182.000000, 8176.000000
2791, 53860048.000000, 2181.250000, 8177.000000, 8174.000000, 8159.000000
2792, 53860208.000000, 2042.750000, 8178.000000, 8173.000000, 8159.000000
2793, 53860368.000000, 1940.750000, 8179.000000, 8176.000000, 8163.000000
2794, 53860528.000000, 1898.250000, 8161.000000, 8218.000000, 8201.000000
2795, 53860688.000000, 1905.000000, 8438.000000, 8145.000000, 8282.000000
2796, 53860848.000000, 1943.500000, 8376.000000, 7952.000000, 8042.000000
2797, 53861008.000000, 1991.750000, 8164.000000, 8120.000000, 8093.000000
2798, 53861168.000000, 2029.250000, 8183.000000, 8198.000000, 8191.000000
2799, 53861328.000000, 2038.250000, 8181.000000, 8208.000000, 8200.000000
2800, 53861488.000000, 2019.000000, 8182.000000, 8211.000000, 8200.000000
2801, 53861648.000000, 1974.500000, 8185.000000, 8211.000000, 8202.000000
2802, 53861808.000000, 1919.500000, 8197.000000, 8215.000000, 8212.000000
2803, 53861968.000000, 1863.750000, 8202.000000, 8222.000000, 8224.000000
2804, 53862128.000000, 1814.500000, 8214.000000, 8226.000000, 8234.000000
2805, 53862288.000000, 1774.250000, 8226.000000, 8234.000000, 8246.000000
2806, 53862448.000000, 1740.000000, 8234.000000, 8237.000000, 8254.000000
2807, 53862608.000000, 1712.750000, 8237.000000, 8238.000000, 8259.000000
2808, 53862768.000000, 1689.250000, 8226.000000, 8237.000000, 8257.000000
2809, 53862928.000000, 1670.250000, 8208.000000, 8224.000000, 8238.000000
2810, 53863088.000000, 1654.500000, 8182.000000, 8208.000000, 8210.000000
2811, 53863248.000000, 1640.250000, 8163.000000, 8193.000000, 8183.000000
2812, 53863408.000000, 1626.250000, 8158.000000, 8191.000000, 8174.000000
2813, 53863568.000000, 1613.750000, 8160.000000, 8193.000000, 8181.000000
2814, 53863728.000000, 1600.250000, 8164.000000, 8196.000000, 8185.000000
2815, 53863888.000000, 1586.750000, 8165.000000, 8194.000000, 8185.000000
2816, 53864048.000000, 1575.250000, 8171.000000, 8192.000000, 8185.000000
2817, 53864208.000000, 1557.750000, 8171.000000, 8189.000000, 8182.000000
2818, 53864368.000000, 1532.750000, 8171.000000, 8190.000000, 8183.000000
2819, 53864528.000000, 1499.250000, 8168.000000, 8188.000000, 8179.000000
2820, 53864688.000000, 1462.500000, 8167.000000, 8185.000000, 8174.000000
2821, 53864848.000000, 1431.250000, 8164.000000, 8184.000000, 8169.000000
2822, 53865008.000000, 1452.250000, 8164.000000, 8184.000000, 8171.000000
2823, 53865168.000000, 1615.250000, 8166.000000, 8186.000000, 8174.000000
2824, 53865328.000000, 1898.250000, 8166.000000, 8186.000000, 8176.000000
2825, 53865488.000000, 2232.250000, 8166.000000, 8184.000000, 8172.000000
2826, 53865648.000000, 2541.750000, 8170.000000, 8189.000000, 8180.000000
2827, 53865808.000000, 2757.750000, 8181.000000, 8201.000000, 8207.000000
2828, 53865968.000000, 2862.000000, 8190.000000, 8207.000000, 8221.000000
2829, 53866128.000000, 2849.750000, 8186.000000, 8197.000000, 8206.000000
2830, 53866288.000000, 2734.750000, 8174.000000, 8185.000000, 8174.000000
2831, 53866448.000000, 2551.750000, 8167.000000, 8176.000000, 8157.000000
2832, 53866608.000000, 2380.000000, 8164.000000, 8176.000000, 8157.000000
2833, 53866768.000000, 2229.500000, 8167.000000, 8180.000000, 8161.000000
2834, 53866928.000000, 2123.500000, 8145.000000, 8226.000000, 8200.000000
2835, 53867088.000000, 2103.750000, 8432.000000, 8113.000000, 8250.000000
2836, 53867248.000000, 2134.000000, 8363.000000, 7927.000000, 8004.000000
2837, 53867408.000000, 2181.500000, 8166.000000, 8138.000000, 8118.000000
2838, 53867568.000000, 2221.500000, 8172.000000, 8208.000000, 8194.000000
2839, 53867728.000000, 2237.000000, 8170.000000, 8215.000000, 8202.000000
2840, 53867888.000000, 2212.750000, 8173.000000, 8217.000000, 8206.000000
2841, 53868048.000000, 2148.250000, 8177.000000, 8218.000000, 8209.000000
2842, 53868208.000000, 2075.500000, 8186.000000, 8222.000000, 8217.000000
2843, 53868368.000000, 2000.750000, 8194.000000, 8228.000000, 8228.000000
2844, 53868528.000000, 1932.500000, 8203.000000, 8237.000000, 8243.000000
2845, 53868688.000000, 1873.750000, 8217.000000, 8241.000000, 8253.000000
2846, 53868848.000000, 1826.250000, 8226.000000, 8246.000000, 8264.000000
2847, 53869008.000000, 1787.500000, 8223.000000, 8247.000000, 8265.000000
2848, 53869168.000000, 1755.000000, 8218.000000, 8246.000000, 8268.000000
2849, 53869328.000000, 1729.500000, 8198.000000, 8228.000000, 8241.000000
2850, 53869488.000000, 1707.750000, 8170.000000, 8208.000000, 8203.000000
2851, 53869648.000000, 1688.500000, 8158.000000, 8196.000000, 8183.000000
2852, 53869808.000000, 1676.000000, 8151.000000, 8192.000000, 8174.000000
2853, 53869968.000000, 1664.250000, 8154.000000, 8194.000000, 8178.000000
2854, 53870128.000000, 1655.000000, 8160.000000, 8196.000000, 8184.000000
2855, 53870288.000000, 1644.750000, 8160.000000, 8196.000000, 8184.000000
2856, 53870448.000000, 1629.000000, 8163.000000, 8191.000000, 8181.000000
2857, 53870608.000000, 1599.500000, 8164.000000, 8192.000000, 8181.000000
2858, 53870768.000000, 1558.500000, 8163.000000, 8191.000000, 8181.000000
2859, 53870928.000000, 1521.750000, 8162.000000, 8189.000000, 8178.000000
2860, 53871088.000000, 1524.500000, 8162.000000, 8188.000000, 8175.000000
2861, 53871248.000000, 1652.250000, 8162.000000, 8184.000000, 8171.000000
2862, 53871408.000000, 1930.750000, 8159.000000, 8185.000000, 8170.000000
2863, 53871568.000000, 2319.500000, 8161.000000, 8186.000000, 8171.000000
2864, 53871728.000000, 2706.500000, 8161.000000, 8186.000000, 8171.000000
2865, 53871888.000000, 3011.500000, 8162.000000, 8185.000000, 8172.000000
2866, 53872048.000000, 3185.500000, 8172.000000, 8197.000000, 8195.000000
2867, 53872208.000000, 3228.000000, 8181.000000, 8206.000000, 8216.000000
2868, 53872368.000000, 3164.000000, 8183.000000, 8203.000000, 8216.000000
2869, 53872528.000000, 3025.500000, 8176.000000, 8194.000000, 8191.000000
2870, 53872688.000000, 2848.750000, 8164.000000, 8182.000000, 8165.000000
2871, 53872848.000000, 2659.500000, 8159.000000, 8176.000000, 8153.000000
2872, 53873008.000000, 2492.750000, 8161.000000, 8177.000000, 8154.000000
2873, 53873168.000000, 2379.500000, 8155.000000, 8186.000000, 8159.000000
2874, 53873328.000000, 2338.000000, 8200.000000, 8209.000000, 8215.000000
2875, 53873488.000000, 2348.000000, 8479.000000, 7914.000000, 8084.000000
2876, 53873648.000000, 2382.250000, 8194.000000, 7986.000000, 7963.000000
2877, 53873808.000000, 2412.000000, 8173.000000, 8191.000000, 8178.000000
2878, 53873968.000000, 2419.750000, 8167.000000, 8220.000000, 8205.000000
2879, 53874128.000000, 2393.000000, 8166.000000, 8225.000000, 8209.000000
2880, 53874288.000000, 2332.000000, 8167.000000, 8225.000000, 8210.000000
2881, 53874448.000000, 2249.750000, 8177.000000, 8228.000000, 8219.000000
2882, 53874608.000000, 2154.500000, 8182.000000, 8233.000000, 8226.000000
2883, 53874768.000000, 2061.250000, 8193.000000, 8240.000000, 8240.000000
2884, 53874928.000000, 1978.000000, 8205.000000, 8248.000000, 8254.000000
2885, 53875088.000000, 1905.750000, 8214.000000, 8254.000000, 8266.000000
2886, 53875248.000000, 1850.000000, 8219.000000, 8256.000000, 8271.000000
2887, 53875408.000000, 1807.250000, 8217.000000, 8258.000000, 8276.000000
2888, 53875568.000000, 1772.000000, 8206.000000, 8247.000000, 8263.000000
2889, 53875728.000000, 1743.250000, 8185.000000, 8224.000000, 8230.000000
2890, 53875888.000000, 1717.500000, 8164.000000, 8205.000000, 8194.000000
2891, 53876048.000000, 1692.750000, 8150.000000, 8194.000000, 8175.000000
2892, 53876208.000000, 1670.250000, 8148.000000, 8193.000000, 8173.000000
2893, 53876368.000000, 1647.250000, 8155.000000, 8195.000000, 8178.000000
2894, 53876528.000000, 1629.750000, 8158.000000, 8196.000000, 8181.000000
2895, 53876688.000000, 1609.750000, 8162.000000, 8195.000000, 8182.000000
2896, 53876848.000000, 1581.500000, 8163.000000, 8192.000000, 8180.000000
2897, 53877008.000000, 1538.000000, 8162.000000, 8192.000000, 8179.000000
2898, 53877168.000000, 1486.250000, 8161.000000, 8190.000000, 8177.000000
2899, 53877328.000000, 1463.500000, 8161.000000, 8190.000000, 8175.000000
2900, 53877488.000000, 1543.500000, 8159.000000, 8185.000000, 8170.000000
2901, 53877648.000000, 1810.500000, 8159.000000, 8183.000000, 8168.000000
2902, 53877808.000000, 2227.250000, 8160.000000, 8184.000000, 8168.000000
2903, 53877968.000000, 2689.250000, 8160.000000, 8186.000000, 8170.000000
2904, 53878128.000000, 3073.500000, 8161.000000, 8186.000000, 8171.000000
2905, 53878288.000000, 3320.250000, 8162.000000, 8183.000000, 8168.000000
2906, 53878448.000000, 3405.750000, 8165.000000, 8188.000000, 8177.000000
2907, 53878608.000000, 3362.250000, 8178.000000, 8205.000000, 8209.000000
2908, 53878768.000000, 3231.250000, 8187.000000, 8210.000000, 8226.000000
2909, 53878928.000000, 3053.000000, 8180.000000, 8199.000000, 8204.000000
2910, 53879088.000000, 2853.750000, 8166.000000, 8186.000000, 8170.000000
2911, 53879248.000000, 2652.250000, 8159.000000, 8177.000000, 8152.000000
2912, 53879408.000000, 2487.250000, 8160.000000, 8177.000000, 8153.000000
2913, 53879568.000000, 2385.500000, 8163.000000, 8181.000000, 8159.000000
2914, 53879728.000000, 2350.750000, 8136.000000, 8222.000000, 8190.000000
2915, 53879888.000000, 2354.500000, 8396.000000, 8088.000000, 8209.000000
2916, 53880048.000000, 2368.750000, 8420.000000, 7843.000000, 7938.000000
2917, 53880208.000000, 2367.750000, 8172.000000, 8148.000000, 8132.000000
2918, 53880368.000000, 2341.000000, 8167.000000, 8218.000000, 8203.000000
2919, 53880528.000000, 2285.500000, 8166.000000, 8228.000000, 8212.000000
2920, 53880688.000000, 2202.000000, 8167.000000, 8229.000000, 8214.000000
2921, 53880848.000000, 2106.000000, 8172.000000, 8231.000000, 8219.000000
2922, 53881008.000000, 2009.250000, 8178.000000, 8236.000000, 8228.000000
2923, 53881168.000000, 1919.500000, 8187.000000, 8242.000000, 8240.000000
2924, 53881328.000000, 1840.250000, 8196.000000, 8248.000000, 8252.000000
2925, 53881488.000000, 1778.500000, 8206.000000, 8252.000000, 8262.000000
2926, 53881648.000000, 1728.500000, 8217.000000, 8257.000000, 8273.000000
2927, 53881808.000000, 1692.750000, 8218.000000, 8259.000000, 8277.000000
2928, 53881968.000000, 1662.000000, 8211.000000, 8257.000000, 8275.000000
2929, 53882128.000000, 1634.750000, 8193.000000, 8239.000000, 8249.000000
2930, 53882288.000000, 1613.000000, 8171.000000, 8214.000000, 8211.000000
2931, 53882448.000000, 1591.750000, 8154.000000, 8198.000000, 8182.000000
2932, 53882608.000000, 1571.000000, 8150.000000, 8194.000000, 8175.000000
2933, 53882768.000000, 1548.000000, 8153.000000, 8196.000000, 8179.000000
2934, 53882928.000000, 1529.750000, 8156.000000, 8196.000000, 8181.000000
2935, 53883088.000000, 1511.250000, 8161.000000, 8196.000000, 8183.000000
2936, 53883248.000000, 1487.750000, 8162.000000, 8192.000000, 8179.000000
2937, 53883408.000000, 1453.500000, 8165.000000, 8191.000000, 8180.000000
2938, 53883568.000000, 1404.250000, 8163.000000, 8191.000000, 8179.000000
2939, 53883728.000000, 1365.750000, 8163.000000, 8189.000000, 8177.000000
2940, 53883888.000000, 1393.750000, 8161.000000, 8187.000000, 8172.000000
2941, 53884048.000000, 1601.000000, 8162.000000, 8183.000000, 8168.000000
2942, 53884208.000000, 1995.000000, 8161.000000, 8184.000000, 8167.000000
2943, 53884368.000000, 2491.000000, 8162.000000, 8186.000000, 8171.000000
2944, 53884528.000000, 2939.500000, 8162.000000, 8185.000000, 8170.000000
2945, 53884688.000000, 3254.000000, 8163.000000, 8184.000000, 8168.000000
2946, 53884848.000000, 3389.500000, 8164.000000, 8182.000000, 8165.000000
2947, 53885008.000000, 3374.250000, 8176.000000, 8196.000000, 8196.000000
2948, 53885168.000000, 3257.500000, 8184.000000, 8209.000000, 8221.000000
2949, 53885328.000000, 3087.250000, 8186.000000, 8204.000000, 8219.000000
2950, 53885488.000000, 2892.250000, 8181.000000, 8194.000000, 8194.000000
2951, 53885648.000000, 2687.000000, 8165.000000, 8179.000000, 8160.000000
2952, 53885808.000000, 2500.250000, 8162.000000, 8176.000000, 8153.000000
2953, 53885968.000000, 2364.750000, 8163.000000, 8177.000000, 8155.000000
2954, 53886128.000000, 2296.750000, 8159.000000, 8182.000000, 8157.000000
2955, 53886288.000000, 2275.000000, 8184.000000, 8206.000000, 8200.000000
2956, 53886448.000000, 2279.250000, 8498.000000, 7897.000000, 8074.000000
2957, 53886608.000000, 2279.000000, 8212.000000, 7968.000000, 7947.000000
2958, 53886768.000000, 2260.000000, 8179.000000, 8196.000000, 8189.000000
2959, 53886928.000000, 2211.250000, 8168.000000, 8223.000000, 8210.000000
2960, 53887088.000000, 2136.250000, 8167.000000, 8225.000000, 8210.000000
2961, 53887248.000000, 2044.250000, 8173.000000, 8228.000000, 8217.000000
2962, 53887408.000000, 1949.250000, 8177.000000, 8233.000000, 8226.000000
2963, 53887568.000000, 1859.500000, 8185.000000, 8237.000000, 8234.000000
2964, 53887728.000000, 1779.500000, 8192.000000, 8241.000000, 8242.000000
2965, 53887888.000000, 1715.250000, 8203.000000, 8245.000000, 8251.000000
2966, 53888048.000000, 1663.500000, 8215.000000, 8250.000000, 8264.000000
2967, 53888208.000000, 1622.500000, 8220.000000, 8254.000000, 8272.000000
2968, 53888368.000000, 1591.750000, 8217.000000, 8256.000000, 8274.000000
2969, 53888528.000000, 1569.000000, 8209.000000, 8248.000000, 8266.000000
2970, 53888688.000000, 1550.000000, 8189.000000, 8226.000000, 8233.000000
2971, 53888848.000000, 1530.250000, 8167.000000, 8207.000000, 8200.000000
2972, 53889008.000000, 1513.750000, 8158.000000, 8198.000000, 8185.000000
2973, 53889168.000000, 1494.000000, 8157.000000, 8196.000000, 8180.000000
2974, 53889328.000000, 1474.750000, 8161.000000, 8196.000000, 8183.000000
2975, 53889488.000000, 1459.500000, 8165.000000, 8195.000000, 8184.000000
2976, 53889648.000000, 1440.250000, 8170.000000, 8193.000000, 8184.000000
2977, 53889808.000000, 1415.750000, 8173.000000, 8195.000000, 8188.000000
2978, 53889968.000000, 1379.000000, 8173.000000, 8194.000000, 8187.000000
2979, 53890128.000000, 1333.250000, 8171.000000, 8189.000000, 8180.000000
2980, 53890288.000000, 1295.500000, 8170.000000, 8184.000000, 8173.000000
2981, 53890448.000000, 1335.250000, 8171.000000, 8183.000000, 8172.000000
2982, 53890608.000000, 1535.000000, 8172.000000, 8183.000000, 8173.000000
2983, 53890768.000000, 1923.250000, 8173.000000, 8184.000000, 8175.000000
2984, 53890928.000000, 2395.500000, 8173.000000, 8183.000000, 8172.000000
2985, 53891088.000000, 2819.750000, 8172.000000, 8180.000000, 8168.000000
2986, 53891248.000000, 3099.000000, 8175.000000, 8181.000000, 8171.000000
2987, 53891408.000000, 3207.750000, 8179.000000, 8183.000000, 8174.000000
2988, 53891568.000000, 3166.750000, 8189.000000, 8198.000000, 8205.000000
2989, 53891728.000000, 3025.500000, 8199.000000, 8207.000000, 8225.000000
2990, 53891888.000000, 2832.000000, 8200.000000, 8197.000000, 8215.000000
2991, 53892048.000000, 2612.500000, 8196.000000, 8189.000000, 8195.000000
2992, 53892208.000000, 2393.250000, 8183.000000, 8177.000000, 8164.000000
2993, 53892368.000000, 2209.000000, 8179.000000, 8172.000000, 8155.000000
2994, 53892528.000000, 2095.750000, 8182.000000, 8172.000000, 8155.000000
2995, 53892688.000000, 2051.750000, 8171.000000, 8179.000000, 8154.000000
2996, 53892848.000000, 2051.000000, 8241.000000, 8203.000000, 8227.000000
2997, 53893008.000000, 2066.500000, 8521.000000, 7888.000000, 8076.000000
2998, 53893168.000000, 2072.500000, 8193.000000, 8007.000000, 7979.000000
2999, 53893328.000000, 2051.250000, 8201.000000, 8192.000000, 8191.000000
3000, 53893488.000000, 1997.750000, 8189.000000, 8213.000000, 8204.000000
3001, 53893648.000000, 1920.250000, 8192.000000, 8218.000000, 8211.000000
3002, 53893808.000000, 1830.250000, 8198.000000, 8220.000000, 8215.000000
3003, 53893968.000000, 1738.250000, 8202.000000, 8225.000000, 8223.000000
3004, 53894128.000000, 1652.250000, 8210.000000, 8226.000000, 8229.000000
3005, 53894288.000000, 1578.500000, 8217.000000, 8230.000000, 8238.000000
3006, 53894448.000000, 1516.000000, 8233.000000, 8236.000000, 8250.000000
3007, 53894608.000000, 1466.750000, 8242.000000, 8241.000000, 8261.000000
3008, 53894768.000000, 1427.500000, 8246.000000, 8242.000000, 8265.000000
3009, 53894928.000000, 1399.750000, 8241.000000, 8240.000000, 8262.000000
3010, 53895088.000000, 1379.000000, 8234.000000, 8233.000000, 8254.000000
3011, 53895248.000000, 1360.250000, 8213.000000, 8214.000000, 8225.000000
3012, 53895408.000000, 1342.750000, 8193.000000, 8197.000000, 8197.000000
3013, 53895568.000000, 1326.250000, 8180.000000, 8190.000000, 8181.000000
3014, 53895728.000000, 1307.250000, 8181.000000, 8186.000000, 8178.000000
3015, 53895888.000000, 1287.000000, 8186.000000, 8187.000000, 8180.000000
3016, 53896048.000000, 1267.750000, 8187.000000, 8186.000000, 8182.000000
3017, 53896208.000000, 1252.000000, 8194.000000, 8186.000000, 8183.000000
3018, 53896368.000000, 1229.500000, 8194.000000, 8186.000000, 8186.000000
3019, 53896528.000000, 1193.500000, 8191.000000, 8182.000000, 8179.000000
3020, 53896688.000000, 1146.000000, 8193.000000, 8180.000000, 8178.000000
3021, 53896848.000000, 1099.500000, 8192.000000, 8176.000000, 8173.000000
3022, 53897008.000000, 1094.500000, 8192.000000, 8177.000000, 8174.000000
3023, 53897168.000000, 1213.250000, 8191.000000, 8177.000000, 8172.000000
3024, 53897328.000000, 1515.500000, 8190.000000, 8175.000000, 8169.000000
3025, 53897488.000000, 1947.250000, 8191.000000, 8175.000000, 8168.000000
3026, 53897648.000000, 2392.750000, 8189.000000, 8173.000000, 8168.000000
3027, 53897808.000000, 2732.500000, 8189.000000, 8177.000000, 8172.000000
3028, 53897968.000000, 2916.250000, 8194.000000, 8177.000000, 8174.000000
3029, 53898128.000000, 2934.000000, 8200.000000, 8188.000000, 8198.000000
3030, 53898288.000000, 2830.500000, 8210.000000, 8195.000000, 8216.000000
3031, 53898448.000000, 2649.750000, 8208.000000, 8190.000000, 8208.000000
3032, 53898608.000000, 2422.750000, 8203.000000, 8184.000000, 8192.000000
3033, 53898768.000000, 2187.000000, 8188.000000, 8173.000000, 8164.000000
3034, 53898928.000000, 1987.750000, 8186.000000, 8168.000000, 8155.000000
3035, 53899088.000000, 1864.500000, 8183.000000, 8167.000000, 8154.000000
3036, 53899248.000000, 1827.000000, 8178.000000, 8178.000000, 8158.000000
3037, 53899408.000000, 1850.750000, 8262.000000, 8209.000000, 8247.000000
3038, 53899568.000000, 1903.500000, 8494.000000, 7980.000000, 8156.000000
3039, 53899728.000000, 1950.000000, 8169.000000, 8017.000000, 7991.000000
3040, 53899888.000000, 1960.750000, 8190.000000, 8172.000000, 8166.000000
3041, 53900048.000000, 1929.250000, 8183.000000, 8201.000000, 8190.000000
3042, 53900208.000000, 1860.000000, 8184.000000, 8207.000000, 8197.000000
3043, 53900368.000000, 1771.750000, 8188.000000, 8210.000000, 8201.000000
3044, 53900528.000000, 1680.000000, 8195.000000, 8212.000000, 8209.000000
3045, 53900688.000000, 1595.500000, 8201.000000, 8215.000000, 8216.000000
3046, 53900848.000000, 1527.000000, 8211.000000, 8223.000000, 8227.000000
3047, 53901008.000000, 1475.750000, 8223.000000, 8231.000000, 8241.000000
3048, 53901168.000000, 1439.250000, 8230.000000, 8236.000000, 8252.000000
3049, 53901328.000000, 1411.750000, 8232.000000, 8238.000000, 8254.000000
3050, 53901488.000000, 1391.750000, 8228.000000, 8235.000000, 8252.000000
3051, 53901648.000000, 1378.000000, 8216.000000, 8230.000000, 8247.000000
3052, 53901808.000000, 1369.750000, 8195.000000, 8214.000000, 8223.000000
3053, 53901968.000000, 1362.500000, 8172.000000, 8200.000000, 8196.000000
3054, 53902128.000000, 1357.500000, 8161.000000, 8192.000000, 8179.000000
3055, 53902288.000000, 1353.750000, 8162.000000, 8192.000000, 8179.000000
3056, 53902448.000000, 1350.500000, 8166.000000, 8195.000000, 8185.000000
3057, 53902608.000000, 1344.250000, 8167.000000, 8198.000000, 8189.000000
3058, 53902768.000000, 1334.250000, 8171.000000, 8197.000000, 8190.000000
3059, 53902928.000000, 1313.250000, 8171.000000, 8192.000000, 8185.000000
3060, 53903088.000000, 1280.000000, 8170.000000, 8188.000000, 8181.000000
3061, 53903248.000000, 1236.500000, 8168.000000, 8188.000000, 8179.000000
3062, 53903408.000000, 1192.250000, 8168.000000, 8187.000000, 8178.000000
3063, 53903568.000000, 1162.750000, 8165.000000, 8186.000000, 8177.000000
3064, 53903728.000000, 1201.000000, 8164.000000, 8184.000000, 8171.000000
3065, 53903888.000000, 1372.250000, 8164.000000, 8182.000000, 8169.000000
3066, 53904048.000000, 1711.250000, 8164.000000, 8184.000000, 8171.000000
3067, 53904208.000000, 2134.250000, 8167.000000, 8185.000000, 8174.000000
3068, 53904368.000000, 2527.500000, 8167.000000, 8186.000000, 8173.000000
3069, 53904528.000000, 2792.000000, 8166.000000, 8185.000000, 8173.000000
3070, 53904688.000000, 2900.250000, 8181.000000, 8200.000000, 8204.000000
3071, 53904848.000000, 2860.750000, 8191.000000, 8210.000000, 8230.000000
3072, 53905008.000000, 2709.750000, 8188.000000, 8203.000000, 8217.000000
3073, 53905168.000000, 2493.000000, 8179.000000, 8192.000000, 8189.000000
3074, 53905328.000000, 2246.750000, 8165.000000, 8181.000000, 8162.000000
3075, 53905488.000000, 2022.000000, 8162.000000, 8176.000000, 8155.000000
3076, 53905648.000000, 1864.250000, 8165.000000, 8177.000000, 8158.000000
3077, 53905808.000000, 1800.250000, 8151.000000, 8196.000000, 8166.000000
3078, 53905968.000000, 1811.250000, 8275.000000, 8212.000000, 8268.000000
3079, 53906128.000000, 1872.250000, 8481.000000, 7908.000000, 8076.000000
3080, 53906288.000000, 1939.750000, 8147.000000, 8050.000000, 8009.000000
3081, 53906448.000000, 1981.250000, 8173.000000, 8197.000000, 8184.000000
3082, 53906608.000000, 1977.000000, 8167.000000, 8217.000000, 8202.000000
3083, 53906768.000000, 1931.250000, 8170.000000, 8221.000000, 8206.000000
3084, 53906928.000000, 1855.500000, 8171.000000, 8222.000000, 8209.000000
3085, 53907088.000000, 1766.000000, 8180.000000, 8223.000000, 8214.000000
3086, 53907248.000000, 1676.750000, 8188.000000, 8230.000000, 8225.000000
3087, 53907408.000000, 1598.000000, 8197.000000, 8237.000000, 8239.000000
3088, 53907568.000000, 1537.250000, 8206.000000, 8244.000000, 8250.000000
3089, 53907728.000000, 1491.750000, 8218.000000, 8248.000000, 8262.000000
3090, 53907888.000000, 1460.000000, 8218.000000, 8249.000000, 8263.000000
3091, 53908048.000000, 1435.750000, 8212.000000, 8247.000000, 8261.000000
3092, 53908208.000000, 1415.750000, 8202.000000, 8237.000000, 8249.000000
3093, 53908368.000000, 1399.750000, 8178.000000, 8218.000000, 8218.000000
3094, 53908528.000000, 1387.250000, 8162.000000, 8200.000000, 8191.000000
3095, 53908688.000000, 1374.000000, 8151.000000, 8194.000000, 8174.000000
3096, 53908848.000000, 1364.000000, 8154.000000, 8194.000000, 8176.000000
3097, 53909008.000000, 1354.000000, 8158.000000, 8199.000000, 8186.000000
3098, 53909168.000000, 1344.000000, 8161.000000, 8199.000000, 8188.000000
3099, 53909328.000000, 1333.750000, 8162.000000, 8196.000000, 8183.000000
3100, 53909488.000000, 1317.000000, 8164.000000, 8194.000000, 8183.000000
3101, 53909648.000000, 1287.750000, 8162.000000, 8192.000000, 8181.000000
3102, 53909808.000000, 1247.500000, 8164.000000, 8193.000000, 8182.000000
3103, 53909968.000000, 1205.750000, 8163.000000, 8190.000000, 8178.000000
3104, 53910128.000000, 1203.000000, 8160.000000, 8188.000000, 8174.000000
3105, 53910288.000000, 1315.250000, 8162.000000, 8184.000000, 8171.000000
3106, 53910448.000000, 1617.500000, 8163.000000, 8184.000000, 8170.000000
3107, 53910608.000000, 2062.750000, 8163.000000, 8186.000000, 8172.000000
3108, 53910768.000000, 2537.000000, 8164.000000, 8188.000000, 8175.000000
3109, 53910928.000000, 2904.250000, 8162.000000, 8185.000000, 8170.000000
3110, 53911088.000000, 3109.500000, 8175.000000, 8198.000000, 8198.000000
3111, 53911248.000000, 3141.250000, 8184.000000, 8210.000000, 8222.000000
3112, 53911408.000000, 3032.250000, 8186.000000, 8209.000000, 8224.000000
3113, 53911568.000000, 2840.500000, 8182.000000, 8200.000000, 8208.000000
3114, 53911728.000000, 2603.750000, 8163.000000, 8183.000000, 8163.000000
3115, 53911888.000000, 2357.750000, 8158.000000, 8176.000000, 8151.000000
3116, 53912048.000000, 2145.750000, 8158.000000, 8176.000000, 8149.000000
3117, 53912208.000000, 2013.500000, 8157.000000, 8181.000000, 8153.000000
3118, 53912368.000000, 1966.000000, 8171.000000, 8214.000000, 8199.000000
3119, 53912528.000000, 1985.500000, 8475.000000, 7944.000000, 8108.000000
3120, 53912688.000000, 2034.000000, 8230.000000, 7951.000000, 7940.000000
3121, 53912848.000000, 2077.000000, 8173.000000, 8185.000000, 8170.000000
3122, 53913008.000000, 2093.750000, 8165.000000, 8219.000000, 8202.000000
3123, 53913168.000000, 2066.500000, 8162.000000, 8226.000000, 8207.000000
3124, 53913328.000000, 2000.000000, 8168.000000, 8226.000000, 8211.000000
3125, 53913488.000000, 1907.000000, 8172.000000, 8230.000000, 8216.000000
3126, 53913648.000000, 1807.000000, 8182.000000, 8233.000000, 8226.000000
3127, 53913808.000000, 1712.750000, 8189.000000, 8240.000000, 8237.000000
3128, 53913968.000000, 1636.000000, 8199.000000, 8247.000000, 8251.000000
3129, 53914128.000000, 1576.000000, 8210.000000, 8251.000000, 8260.000000
3130, 53914288.000000, 1531.750000, 8215.000000, 8253.000000, 8267.000000
3131, 53914448.000000, 1500.250000, 8211.000000, 8254.000000, 8268.000000
3132, 53914608.000000, 1477.750000, 8202.000000, 8248.000000, 8262.000000
3133, 53914768.000000, 1459.500000, 8185.000000, 8229.000000, 8235.000000
3134, 53914928.000000, 1442.750000, 8163.000000, 8208.000000, 8198.000000
3135, 53915088.000000, 1427.500000, 8151.000000, 8199.000000, 8181.000000
3136, 53915248.000000, 1413.250000, 8151.000000, 8197.000000, 8179.000000
3137, 53915408.000000, 1398.750000, 8155.000000, 8198.000000, 8183.000000
3138, 53915568.000000, 1385.500000, 8159.000000, 8199.000000, 8186.000000
3139, 53915728.000000, 1372.500000, 8163.000000, 8196.000000, 8184.000000
3140, 53915888.000000, 1356.750000, 8165.000000, 8195.000000, 8184.000000
3141, 53916048.000000, 1333.750000, 8163.000000, 8194.000000, 8182.000000
3142, 53916208.000000, 1293.500000, 8165.000000, 8195.000000, 8186.000000
3143, 53916368.000000, 1245.500000, 8162.000000, 8189.000000, 8176.000000
3144, 53916528.000000, 1227.000000, 8162.000000, 8186.000000, 8173.000000
3145, 53916688.000000, 1319.500000, 8164.000000, 8185.000000, 8170.000000
3146, 53916848.000000, 1613.250000, 8163.000000, 8184.000000, 8170.000000
3147, 53917008.000000, 2080.500000, 8165.000000, 8186.000000, 8173.000000
3148, 53917168.000000, 2598.750000, 8163.000000, 8185.000000, 8169.000000
3149, 53917328.000000, 3019.000000, 8164.000000, 8184.000000, 8167.000000
3150, 53917488.000000, 3266.000000, 8173.000000, 8192.000000, 8187.000000
3151, 53917648.000000, 3320.500000, 8182.000000, 8205.000000, 8213.000000
3152, 53917808.000000, 3218.250000, 8190.000000, 8213.000000, 8233.000000
3153, 53917968.000000, 3025.250000, 8191.000000, 8203.000000, 8221.000000
3154, 53918128.000000, 2787.750000, 8170.000000, 8183.000000, 8168.000000
3155, 53918288.000000, 2538.250000, 8163.000000, 8176.000000, 8152.000000
3156, 53918448.000000, 2304.500000, 8163.000000, 8176.000000, 8152.000000
3157, 53918608.000000, 2137.000000, 8166.000000, 8177.000000, 8155.000000
3158, 53918768.000000, 2053.000000, 8140.000000, 8220.000000, 8187.000000
3159, 53918928.000000, 2040.500000, 8420.000000, 8068.000000, 8199.000000
3160, 53919088.000000, 2064.750000, 8390.000000, 7862.000000, 7939.000000
3161, 53919248.000000, 2095.000000, 8178.000000, 8157.000000, 8145.000000
3162, 53919408.000000, 2104.250000, 8171.000000, 8216.000000, 8201.000000
3163, 53919568.000000, 2075.750000, 8168.000000, 8224.000000, 8209.000000
3164, 53919728.000000, 2011.500000, 8170.000000, 8226.000000, 8211.000000
3165, 53919888.000000, 1921.000000, 8176.000000, 8227.000000, 8214.000000
3166, 53920048.000000, 1819.250000, 8182.000000, 8233.000000, 8226.000000
3167, 53920208.000000, 1720.750000, 8192.000000, 8238.000000, 8237.000000
3168, 53920368.000000, 1636.000000, 8202.000000, 8243.000000, 8247.000000
3169, 53920528.000000, 1565.000000, 8213.000000, 8248.000000, 8259.000000
3170, 53920688.000000, 1511.000000, 8222.000000, 8250.000000, 8267.000000
3171, 53920848.000000, 1469.750000, 8218.000000, 8253.000000, 8269.000000
3172, 53921008.000000, 1440.500000, 8211.000000, 8248.000000, 8264.000000
3173, 53921168.000000, 1420.250000, 8198.000000, 8232.000000, 8243.000000
3174, 53921328.000000, 1405.250000, 8175.000000, 8211.000000, 8209.000000
3175, 53921488.000000, 1392.500000, 8161.000000, 8197.000000, 8182.000000
3176, 53921648.000000, 1377.500000, 8159.000000, 8194.000000, 8179.000000
3177, 53921808.000000, 1365.750000, 8161.000000, 8196.000000, 8181.000000
3178, 53921968.000000, 1352.250000, 8167.000000, 8198.000000, 8187.000000
3179, 53922128.000000, 1342.000000, 8169.000000, 8195.000000, 8185.000000
3180, 53922288.000000, 1329.500000, 8171.000000, 8193.000000, 8184.000000
3181, 53922448.000000, 1310.750000, 8172.000000, 8194.000000, 8186.000000
3182, 53922608.000000, 1279.000000, 8171.000000, 8192.000000, 8183.000000
3183, 53922768.000000, 1231.750000, 8171.000000, 8188.000000, 8179.000000
3184, 53922928.000000, 1190.750000, 8170.000000, 8185.000000, 8174.000000
3185, 53923088.000000, 1219.000000, 8170.000000, 8182.000000, 8169.000000
3186, 53923248.000000, 1419.750000, 8171.000000, 8184.000000, 8173.000000
3187, 53923408.000000, 1814.500000, 8173.000000, 8185.000000, 8174.000000
3188, 53923568.000000, 2316.000000, 8173.000000, 8183.000000, 8172.000000
3189, 53923728.000000, 2770.500000, 8172.000000, 8183.000000, 8171.000000
3190, 53923888.000000, 3076.750000, 8185.000000, 8192.000000, 8194.000000
3191, 53924048.000000, 3194.250000, 8193.000000, 8205.000000, 8217.000000
3192, 53924208.000000, 3141.000000, 8201.000000, 8210.000000, 8235.000000
3193, 53924368.000000, 2979.250000, 8197.000000, 8201.000000, 8219.000000
3194, 53924528.000000, 2758.250000, 8179.000000, 8180.000000, 8167.000000
3195, 53924688.000000, 2516.500000, 8173.000000, 8173.000000, 8152.000000
3196, 53924848.000000, 2279.750000, 8171.000000, 8173.000000, 8150.000000
3197, 53925008.000000, 2093.250000, 8176.000000, 8174.000000, 8155.000000
3198, 53925168.000000, 1983.250000, 8159.000000, 8218.000000, 8193.000000
3199, 53925328.000000, 1949.000000, 8458.000000, 8029.000000, 8175.000000
3200, 53925488.000000, 1963.250000, 8348.000000, 7884.000000, 7933.000000
3201, 53925648.000000, 1994.500000, 8191.000000, 8162.000000, 8153.000000
3202, 53925808.000000, 2012.250000, 8185.000000, 8210.000000, 8199.000000
3203, 53925968.000000, 1994.750000, 8182.000000, 8217.000000, 8204.000000
3204, 53926128.000000, 1939.750000, 8188.000000, 8216.000000, 8207.000000
3205, 53926288.000000, 1855.500000, 8196.000000, 8221.000000, 8213.000000
3206, 53926448.000000, 1757.000000, 8200.000000, 8225.000000, 8225.000000
3207, 53926608.000000, 1659.750000, 8210.000000, 8231.000000, 8234.000000
3208, 53926768.000000, 1573.000000, 8224.000000, 8235.000000, 8245.000000
3209, 53926928.000000, 1498.500000, 8235.000000, 8239.000000, 8255.000000
3210, 53927088.000000, 1438.500000, 8242.000000, 8242.000000, 8264.000000
3211, 53927248.000000, 1392.000000, 8243.000000, 8243.000000, 8266.000000
3212, 53927408.000000, 1357.750000, 8229.000000, 8241.000000, 8261.000000
3213, 53927568.000000, 1335.250000, 8217.000000, 8223.000000, 8237.000000
3214, 53927728.000000, 1317.750000, 8191.000000, 8204.000000, 8204.000000
3215, 53927888.000000, 1301.250000, 8183.000000, 8192.000000, 8185.000000
3216, 53928048.000000, 1282.000000, 8182.000000, 8190.000000, 8181.000000
3217, 53928208.000000, 1261.000000, 8183.000000, 8192.000000, 8185.000000
3218, 53928368.000000, 1242.000000, 8185.000000, 8189.000000, 8182.000000
3219, 53928528.000000, 1222.250000, 8191.000000, 8189.000000, 8186.000000
3220, 53928688.000000, 1205.750000, 8192.000000, 8185.000000, 8182.000000
3221, 53928848.000000, 1182.250000, 8194.000000, 8185.000000, 8185.000000
3222, 53929008.000000, 1149.000000, 8191.000000, 8184.000000, 8181.000000
3223, 53929168.000000, 1101.000000, 8189.000000, 8182.000000, 8177.000000
3224, 53929328.000000, 1054.250000, 8189.000000, 8178.000000, 8173.000000
3225, 53929488.000000, 1045.500000, 8191.000000, 8177.000000, 8172.000000
3226, 53929648.000000, 1171.250000, 8190.000000, 8179.000000, 8173.000000
3227, 53929808.000000, 1486.250000, 8191.000000, 8178.000000, 8173.000000
3228, 53929968.000000, 1942.500000, 8190.000000, 8175.000000, 8169.000000
3229, 53930128.000000, 2403.500000, 8192.000000, 8175.000000, 8172.000000
3230, 53930288.000000, 2751.500000, 8193.000000, 8173.000000, 8167.000000
3231, 53930448.000000, 2925.750000, 8194.000000, 8176.000000, 8171.000000
3232, 53930608.000000, 2925.000000, 8203.000000, 8186.000000, 8194.000000
3233, 53930768.000000, 2800.750000, 8209.000000, 8195.000000, 8213.000000
3234, 53930928.000000, 2593.750000, 8215.000000, 8194.000000, 8218.000000
3235, 53931088.000000, 2346.000000, 8210.000000, 8183.000000, 8198.000000
3236, 53931248.000000, 2092.500000, 8197.000000, 8175.000000, 8170.000000
3237, 53931408.000000, 1885.750000, 8192.000000, 8171.000000, 8162.000000
3238, 53931568.000000, 1763.250000, 8190.000000, 8169.000000, 8159.000000
3239, 53931728.000000, 1731.000000, 8188.000000, 8169.000000, 8154.000000
3240, 53931888.000000, 1762.000000, 8207.000000, 8208.000000, 8213.000000
3241, 53932048.000000, 1818.250000, 8497.000000, 8051.000000, 8225.000000
3242, 53932208.000000, 1861.500000, 8240.000000, 7987.000000, 8000.000000
3243, 53932368.000000, 1867.750000, 8188.000000, 8152.000000, 8143.000000
3244, 53932528.000000, 1831.250000, 8192.000000, 8194.000000, 8187.000000
3245, 53932688.000000, 1755.000000, 8190.000000, 8201.000000, 8193.000000
3246, 53932848.000000, 1661.500000, 8193.000000, 8206.000000, 8200.000000
3247, 53933008.000000, 1566.750000, 8202.000000, 8209.000000, 8207.000000
3248, 53933168.000000, 1479.250000, 8204.000000, 8212.000000, 8213.000000
3249, 53933328.000000, 1409.250000, 8216.000000, 8215.000000, 8220.000000
3250, 53933488.000000, 1357.500000, 8228.000000, 8221.000000, 8232.000000
3251, 53933648.000000, 1321.000000, 8240.000000, 8229.000000, 8248.000000
3252, 53933808.000000, 1295.250000, 8244.000000, 8231.000000, 8253.000000
3253, 53933968.000000, 1278.750000, 8238.000000, 8233.000000, 8253.000000
3254, 53934128.000000, 1268.000000, 8229.000000, 8227.000000, 8247.000000
3255, 53934288.000000, 1260.500000, 8210.000000, 8213.000000, 8226.000000
3256, 53934448.000000, 1255.500000, 8186.000000, 8200.000000, 8201.000000
3257, 53934608.000000, 1250.750000, 8172.000000, 8191.000000, 8181.000000
3258, 53934768.000000, 1246.500000, 8171.000000, 8188.000000, 8177.000000
3259, 53934928.000000, 1243.250000, 8173.000000, 8188.000000, 8179.000000
3260, 53935088.000000, 1235.000000, 8175.000000, 8190.000000, 8182.000000
3261, 53935248.000000, 1224.750000, 8175.000000, 8190.000000, 8184.000000
3262, 53935408.000000, 1209.750000, 8179.000000, 8189.000000, 8182.000000
3263, 53935568.000000, 1186.750000, 8177.000000, 8186.000000, 8179.000000
3264, 53935728.000000, 1149.250000, 8182.000000, 8184.000000, 8177.000000
3265, 53935888.000000, 1105.750000, 8177.000000, 8183.000000, 8174.000000
3266, 53936048.000000, 1065.750000, 8171.000000, 8182.000000, 8173.000000
3267, 53936208.000000, 1055.000000, 8173.000000, 8182.000000, 8171.000000
3268, 53936368.000000, 1133.250000, 8174.000000, 8181.000000, 8172.000000
3269, 53936528.000000, 1394.000000, 8172.000000, 8178.000000, 8168.000000
3270, 53936688.000000, 1808.000000, 8180.000000, 8189.000000, 8188.000000
3271, 53936848.000000, 2277.000000, 8190.000000, 8202.000000, 8212.000000
3272, 53937008.000000, 2662.750000, 8195.000000, 8206.000000, 8225.000000
3273, 53937168.000000, 2897.750000, 8198.000000, 8196.000000, 8211.000000
3274, 53937328.000000, 2952.500000, 8176.000000, 8178.000000, 8165.000000
3275, 53937488.000000, 2861.000000, 8171.000000, 8174.000000, 8155.000000
3276, 53937648.000000, 2671.750000, 8170.000000, 8172.000000, 8153.000000
3277, 53937808.000000, 2427.250000, 8173.000000, 8176.000000, 8159.000000
3278, 53937968.000000, 2171.750000, 8159.000000, 8217.000000, 8196.000000
3279, 53938128.000000, 1951.250000, 8443.000000, 8142.000000, 8278.000000
3280, 53938288.000000, 1811.250000, 8350.000000, 7969.000000, 8047.000000
3281, 53938448.000000, 1762.500000, 8157.000000, 8121.000000, 8091.000000
3282, 53938608.000000, 1793.500000, 8177.000000, 8196.000000, 8183.000000
3283, 53938768.000000, 1865.750000, 8174.000000, 8204.000000, 8191.000000
3284, 53938928.000000, 1938.500000, 8177.000000, 8206.000000, 8193.000000
3285, 53939088.000000, 1977.250000, 8183.000000, 8209.000000, 8200.000000
3286, 53939248.000000, 1967.250000, 8193.000000, 8215.000000, 8211.000000
3287, 53939408.000000, 1911.250000, 8204.000000, 8220.000000, 8221.000000
3288, 53939568.000000, 1823.500000, 8214.000000, 8223.000000, 8227.000000
3289, 53939728.000000, 1723.250000, 8227.000000, 8226.000000, 8238.000000
3290, 53939888.000000, 1629.000000, 8234.000000, 8233.000000, 8248.000000
3291, 53940048.000000, 1550.000000, 8234.000000, 8235.000000, 8252.000000
3292, 53940208.000000, 1489.250000, 8224.000000, 8234.000000, 8252.000000
3293, 53940368.000000, 1443.500000, 8202.000000, 8222.000000, 8232.000000
3294, 53940528.000000, 1413.500000, 8175.000000, 8204.000000, 8200.000000
3295, 53940688.000000, 1391.250000, 8160.000000, 8195.000000, 8179.000000
3296, 53940848.000000, 1376.250000, 8156.000000, 8195.000000, 8178.000000
3297, 53941008.000000, 1368.500000, 8155.000000, 8195.000000, 8180.000000
3298, 53941168.000000, 1363.500000, 8159.000000, 8194.000000, 8181.000000
3299, 53941328.000000, 1358.500000, 8167.000000, 8195.000000, 8184.000000
3300, 53941488.000000, 1351.000000, 8168.000000, 8193.000000, 8184.000000
3301, 53941648.000000, 1337.000000, 8171.000000, 8193.000000, 8186.000000
3302, 53941808.000000, 1308.750000, 8170.000000, 8191.000000, 8180.000000
3303, 53941968.000000, 1264.500000, 8165.000000, 8187.000000, 8176.000000
3304, 53942128.000000, 1219.500000, 8166.000000, 8187.000000, 8173.000000
3305, 53942288.000000, 1183.000000, 8165.000000, 8185.000000, 8172.000000
3306, 53942448.000000, 1186.750000, 8164.000000, 8186.000000, 8171.000000
3307, 53942608.000000, 1309.250000, 8163.000000, 8187.000000, 8173.000000
3308, 53942768.000000, 1591.250000, 8165.000000, 8184.000000, 8171.000000
3309, 53942928.000000, 2001.500000, 8167.000000, 8184.000000, 8171.000000
3310, 53943088.000000, 2417.250000, 8168.000000, 8189.000000, 8180.000000
3311, 53943248.000000, 2734.750000, 8179.000000, 8202.000000, 8204.000000
3312, 53943408.000000, 2889.500000, 8192.000000, 8211.000000, 8230.000000
3313, 53943568.000000, 2889.250000, 8188.000000, 8201.000000, 8213.000000
3314, 53943728.000000, 2763.000000, 8174.000000, 8185.000000, 8176.000000
3315, 53943888.000000, 2560.250000, 8165.000000, 8178.000000, 8159.000000
3316, 53944048.000000, 2316.000000, 8165.000000, 8178.000000, 8157.000000
3317, 53944208.000000, 2073.750000, 8163.000000, 8177.000000, 8157.000000
3318, 53944368.000000, 1882.500000, 8148.000000, 8208.000000, 8178.000000
3319, 53944528.000000, 1778.000000, 8350.000000, 8196.000000, 8290.000000
3320, 53944688.000000, 1762.500000, 8464.000000, 7923.000000, 8069.000000
3321, 53944848.000000, 1810.250000, 8148.000000, 8084.000000, 8046.000000
3322, 53945008.000000, 1884.500000, 8171.000000, 8197.000000, 8184.000000
3323, 53945168.000000, 1945.000000, 8167.000000, 8210.000000, 8195.000000
3324, 53945328.000000, 1968.500000, 8171.000000, 8214.000000, 8199.000000
3325, 53945488.000000, 1940.750000, 8175.000000, 8217.000000, 8205.000000
3326, 53945648.000000, 1872.500000, 8183.000000, 8223.000000, 8214.000000
3327, 53945808.000000, 1777.250000, 8191.000000, 8227.000000, 8224.000000
3328, 53945968.000000, 1678.750000, 8200.000000, 8231.000000, 8233.000000
3329, 53946128.000000, 1589.250000, 8214.000000, 8239.000000, 8247.000000
3330, 53946288.000000, 1518.250000, 8226.000000, 8246.000000, 8262.000000
3331, 53946448.000000, 1467.000000, 8226.000000, 8250.000000, 8268.000000
3332, 53946608.000000, 1433.750000, 8220.000000, 8249.000000, 8267.000000
3333, 53946768.000000, 1411.250000, 8203.000000, 8232.000000, 8246.000000
3334, 53946928.000000, 1396.250000, 8176.000000, 8210.000000, 8210.000000
3335, 53947088.000000, 1386.250000, 8158.000000, 8199.000000, 8186.000000
3336, 53947248.000000, 1378.750000, 8150.000000, 8195.000000, 8176.000000
3337, 53947408.000000, 1372.250000, 8152.000000, 8195.000000, 8178.000000
3338, 53947568.000000, 1365.500000, 8155.000000, 8195.000000, 8180.000000
3339, 53947728.000000, 1357.000000, 8159.000000, 8195.000000, 8182.000000
3340, 53947888.000000, 1344.000000, 8163.000000, 8195.000000, 8183.000000
3341, 53948048.000000, 1322.750000, 8164.000000, 8193.000000, 8182.000000
3342, 53948208.000000, 1284.000000, 8163.000000, 8192.000000, 8180.000000
3343, 53948368.000000, 1229.250000, 8164.000000, 8189.000000, 8176.000000
3344, 53948528.000000, 1191.500000, 8159.000000, 8186.000000, 8171.000000
3345, 53948688.000000, 1271.500000, 8160.000000, 8186.000000, 8172.000000
3346, 53948848.000000, 1543.750000, 8161.000000, 8187.000000, 8172.000000
3347, 53949008.000000, 2015.000000, 8159.000000, 8185.000000, 8170.000000
3348, 53949168.000000, 2555.750000, 8161.000000, 8184.000000, 8169.000000
3349, 53949328.000000, 3022.250000, 8161.000000, 8184.000000, 8167.000000
3350, 53949488.000000, 3314.750000, 8163.000000, 8186.000000, 8170.000000
3351, 53949648.000000, 3410.500000, 8164.000000, 8186.000000, 8173.000000
3352, 53949808.000000, 3343.000000, 8162.000000, 8188.000000, 8173.000000
3353, 53949968.000000, 3165.750000, 8171.000000, 8195.000000, 8190.000000
3354, 53950128.000000, 2892.750000, 8180.000000, 8205.000000, 8212.000000
3355, 53950288.000000, 2605.750000, 8184.000000, 8204.000000, 8216.000000
3356, 53950448.000000, 2384.750000, 8182.000000, 8196.000000, 8200.000000
3357, 53950608.000000, 2221.500000, 8167.000000, 8184.000000, 8167.000000
3358, 53950768.000000, 2132.750000, 8159.000000, 8176.000000, 8153.000000
3359, 53950928.000000, 2123.750000, 8163.000000, 8177.000000, 8155.000000
3360, 53951088.000000, 2151.250000, 8161.000000, 8181.000000, 8158.000000
3361, 53951248.000000, 2170.250000, 8168.000000, 8220.000000, 8207.000000
3362, 53951408.000000, 2163.750000, 8478.000000, 7966.000000, 8128.000000
3363, 53951568.000000, 2114.750000, 8271.000000, 7936.000000, 7948.000000
3364, 53951728.000000, 2033.250000, 8174.000000, 8177.000000, 8166.000000
3365, 53951888.000000, 1926.750000, 8164.000000, 8216.000000, 8199.000000
3366, 53952048.000000, 1814.250000, 8164.000000, 8226.000000, 8211.000000
3367, 53952208.000000, 1708.000000, 8167.000000, 8228.000000, 8213.000000
3368, 53952368.000000, 1616.250000, 8171.000000, 8229.000000, 8216.000000
3369, 53952528.000000, 1544.250000, 8181.000000, 8233.000000, 8227.000000
3370, 53952688.000000, 1497.750000, 8187.000000, 8241.000000, 8239.000000
3371, 53952848.000000, 1470.000000, 8200.000000, 8250.000000, 8258.000000
3372, 53953008.000000, 1453.250000, 8214.000000, 8259.000000, 8273.000000
3373, 53953168.000000, 1438.500000, 8219.000000, 8261.000000, 8280.000000
3374, 53953328.000000, 1423.500000, 8222.000000, 8264.000000, 8285.000000
3375, 53953488.000000, 1408.250000, 8211.000000, 8255.000000, 8275.000000
3376, 53953648.000000, 1393.250000, 8187.000000, 8233.000000, 8241.000000
3377, 53953808.000000, 1377.500000, 8162.000000, 8210.000000, 8203.000000
3378, 53953968.000000, 1362.500000, 8147.000000, 8197.000000, 8178.000000
3379, 53954128.000000, 1343.250000, 8147.000000, 8194.000000, 8173.000000
3380, 53954288.000000, 1325.000000, 8147.000000, 8196.000000, 8177.000000
3381, 53954448.000000, 1301.250000, 8151.000000, 8196.000000, 8178.000000
3382, 53954608.000000, 1273.000000, 8154.000000, 8196.000000, 8180.000000
3383, 53954768.000000, 1239.000000, 8157.000000, 8194.000000, 8180.000000
3384, 53954928.000000, 1190.500000, 8159.000000, 8192.000000, 8179.000000
3385, 53955088.000000, 1144.500000, 8157.000000, 8191.000000, 8177.000000
3386, 53955248.000000, 1169.750000, 8159.000000, 8190.000000, 8177.000000
3387, 53955408.000000, 1392.000000, 8159.000000, 8188.000000, 8175.000000
3388, 53955568.000000, 1856.750000, 8158.000000, 8185.000000, 8170.000000
3389, 53955728.000000, 2468.750000, 8156.000000, 8184.000000, 8169.000000
3390, 53955888.000000, 3051.750000, 8157.000000, 8183.000000, 8167.000000
3391, 53956048.000000, 3465.000000, 8160.000000, 8186.000000, 8172.000000
3392, 53956208.000000, 3659.500000, 8160.000000, 8184.000000, 8168.000000
3393, 53956368.000000, 3659.500000, 8159.000000, 8185.000000, 8170.000000
3394, 53956528.000000, 3518.250000, 8163.000000, 8183.000000, 8169.000000
3395, 53956688.000000, 3319.750000, 8162.000000, 8184.000000, 8169.000000
3396, 53956848.000000, 3103.750000, 8163.000000, 8185.000000, 8171.000000
3397, 53957008.000000, 2882.750000, 8165.000000, 8185.000000, 8172.000000
3398, 53957168.000000, 2664.750000, 8172.000000, 8195.000000, 8191.000000
3399, 53957328.000000, 2478.500000, 8181.000000, 8205.000000, 8213.000000
3400, 53957488.000000, 2354.500000, 8185.000000, 8204.000000, 8218.000000
3401, 53957648.000000, 2290.500000, 8181.000000, 8196.000000, 8196.000000
3402, 53957808.000000, 2264.750000, 8167.000000, 8184.000000, 8167.000000
3403, 53957968.000000, 2247.750000, 8162.000000, 8177.000000, 8154.000000
3404, 53958128.000000, 2220.500000, 8162.000000, 8178.000000, 8157.000000
3405, 53958288.000000, 2166.750000, 8163.000000, 8182.000000, 8160.000000
3406, 53958448.000000, 2084.250000, 8150.000000, 8224.000000, 8201.000000
3407, 53958608.000000, 1982.250000, 8467.000000, 7943.000000, 8099.000000
3408, 53958768.000000, 1873.000000, 8323.000000, 7889.000000, 7919.000000
3409, 53958928.000000, 1766.750000, 8179.000000, 8182.000000, 8173.000000
3410, 53959088.000000, 1669.250000, 8167.000000, 8225.000000, 8210.000000
3411, 53959248.000000, 1586.750000, 8165.000000, 8233.000000, 8218.000000
3412, 53959408.000000, 1522.750000, 8170.000000, 8236.000000, 8225.000000
3413, 53959568.000000, 1476.250000, 8175.000000, 8238.000000, 8230.000000
3414, 53959728.000000, 1446.500000, 8180.000000, 8240.000000, 8235.000000
3415, 53959888.000000, 1426.000000, 8191.000000, 8247.000000, 8249.000000
3416, 53960048.000000, 1408.500000, 8200.000000, 8255.000000, 8263.000000
3417, 53960208.000000, 1390.000000, 8213.000000, 8262.000000, 8277.000000
3418, 53960368.000000, 1369.250000, 8224.000000, 8266.000000, 8290.000000
3419, 53960528.000000, 1345.500000, 8226.000000, 8267.000000, 8293.000000
3420, 53960688.000000, 1323.000000, 8219.000000, 8263.000000, 8288.000000
3421, 53960848.000000, 1303.000000, 8197.000000, 8240.000000, 8256.000000
3422, 53961008.000000, 1284.750000, 8169.000000, 8213.000000, 8209.000000
3423, 53961168.000000, 1264.750000, 8151.000000, 8200.000000, 8182.000000
3424, 53961328.000000, 1240.500000, 8148.000000, 8196.000000, 8176.000000
3425, 53961488.000000, 1219.000000, 8150.000000, 8199.000000, 8180.000000
3426, 53961648.000000, 1199.000000, 8154.000000, 8199.000000, 8183.000000
3427, 53961808.000000, 1179.000000, 8158.000000, 8197.000000, 8182.000000
3428, 53961968.000000, 1155.000000, 8162.000000, 8195.000000, 8184.000000
3429, 53962128.000000, 1117.750000, 8163.000000, 8193.000000, 8181.000000
3430, 53962288.000000, 1080.750000, 8165.000000, 8192.000000, 8181.000000
3431, 53962448.000000, 1093.500000, 8164.000000, 8190.000000, 8179.000000
3432, 53962608.000000, 1288.000000, 8162.000000, 8189.000000, 8176.000000
3433, 53962768.000000, 1716.000000, 8163.000000, 8185.000000, 8171.000000
3434, 53962928.000000, 2327.250000, 8163.000000, 8183.000000, 8169.000000
3435, 53963088.000000, 2930.750000, 8163.000000, 8184.000000, 8168.000000
3436, 53963248.000000, 3383.250000, 8164.000000, 8186.000000, 8171.000000
3437, 53963408.000000, 3606.250000, 8162.000000, 8185.000000, 8170.000000
3438, 53963568.000000, 3630.250000, 8165.000000, 8185.000000, 8170.000000
3439, 53963728.000000, 3511.000000, 8165.000000, 8182.000000, 8167.000000
3440, 53963888.000000, 3326.500000, 8166.000000, 8186.000000, 8170.000000
3441, 53964048.000000, 3127.750000, 8169.000000, 8187.000000, 8175.000000
3442, 53964208.000000, 2923.750000, 8168.000000, 8186.000000, 8173.000000
3443, 53964368.000000, 2715.500000, 8169.000000, 8186.000000, 8174.000000
3444, 53964528.000000, 2522.750000, 8179.000000, 8194.000000, 8191.000000
3445, 53964688.000000, 2380.000000, 8186.000000, 8207.000000, 8216.000000
3446, 53964848.000000, 2291.750000, 8194.000000, 8207.000000, 8227.000000
3447, 53965008.000000, 2246.000000, 8189.000000, 8196.000000, 8203.000000
3448, 53965168.000000, 2217.750000, 8174.000000, 8183.000000, 8170.000000
3449, 53965328.000000, 2184.750000, 8168.000000, 8178.000000, 8159.000000
3450, 53965488.000000, 2134.750000, 8169.000000, 8180.000000, 8162.000000
3451, 53965648.000000, 2061.250000, 8169.000000, 8181.000000, 8163.000000
3452, 53965808.000000, 1966.250000, 8144.000000, 8224.000000, 8197.000000
3453, 53965968.000000, 1859.000000, 8433.000000, 8042.000000, 8182.000000
3454, 53966128.000000, 1749.750000, 8416.000000, 7844.000000, 7930.000000
3455, 53966288.000000, 1652.000000, 8183.000000, 8166.000000, 8161.000000
3456, 53966448.000000, 1567.750000, 8174.000000, 8223.000000, 8214.000000
3457, 53966608.000000, 1501.500000, 8170.000000, 8230.000000, 8219.000000
3458, 53966768.000000, 1452.250000, 8173.000000, 8230.000000, 8219.000000
3459, 53966928.000000, 1417.000000, 8176.000000, 8235.000000, 8226.000000
3460, 53967088.000000, 1390.250000, 8181.000000, 8238.000000, 8232.000000
3461, 53967248.000000, 1370.250000, 8191.000000, 8245.000000, 8247.000000
3462, 53967408.000000, 1353.750000, 8202.000000, 8248.000000, 8256.000000
3463, 53967568.000000, 1334.000000, 8216.000000, 8252.000000, 8269.000000
3464, 53967728.000000, 1312.250000, 8227.000000, 8258.000000, 8282.000000
3465, 53967888.000000, 1289.500000, 8230.000000, 8262.000000, 8290.000000
3466, 53968048.000000, 1266.250000, 8223.000000, 8258.000000, 8284.000000
3467, 53968208.000000, 1243.000000, 8205.000000, 8239.000000, 8257.000000
3468, 53968368.000000, 1223.000000, 8177.000000, 8213.000000, 8214.000000
3469, 53968528.000000, 1203.000000, 8158.000000, 8199.000000, 8186.000000
3470, 53968688.000000, 1183.000000, 8153.000000, 8194.000000, 8177.000000
3471, 53968848.000000, 1163.000000, 8153.000000, 8194.000000, 8177.000000
3472, 53969008.000000, 1143.000000, 8159.000000, 8195.000000, 8182.000000
3473, 53969168.000000, 1125.250000, 8161.000000, 8192.000000, 8179.000000
3474, 53969328.000000, 1107.750000, 8166.000000, 8191.000000, 8181.000000
3475, 53969488.000000, 1080.500000, 8168.000000, 8193.000000, 8186.000000
3476, 53969648.000000, 1043.750000, 8166.000000, 8191.000000, 8181.000000
3477, 53969808.000000, 1019.250000, 8167.000000, 8187.000000, 8176.000000
3478, 53969968.000000, 1080.500000, 8167.000000, 8186.000000, 8173.000000
3479, 53970128.000000, 1337.750000, 8166.000000, 8184.000000, 8172.000000
3480, 53970288.000000, 1819.750000, 8166.000000, 8186.000000, 8172.000000
3481, 53970448.000000, 2398.000000, 8166.000000, 8185.000000, 8171.000000
3482, 53970608.000000, 2912.750000, 8167.000000, 8183.000000, 8170.000000
3483, 53970768.000000, 3247.750000, 8168.000000, 8184.000000, 8171.000000
3484, 53970928.000000, 3378.750000, 8170.000000, 8184.000000, 8171.000000
3485, 53971088.000000, 3328.000000, 8171.000000, 8185.000000, 8174.000000
3486, 53971248.000000, 3176.000000, 8173.000000, 8186.000000, 8175.000000
3487, 53971408.000000, 2981.750000, 8173.000000, 8185.000000, 8174.000000
3488, 53971568.000000, 2776.750000, 8175.000000, 8184.000000, 8174.000000
3489, 53971728.000000, 2567.750000, 8178.000000, 8184.000000, 8176.000000
3490, 53971888.000000, 2374.250000, 8185.000000, 8194.000000, 8194.000000
3491, 53972048.000000, 2225.750000, 8196.000000, 8205.000000, 8217.000000
3492, 53972208.000000, 2135.500000, 8202.000000, 8207.000000, 8229.000000
3493, 53972368.000000, 2095.500000, 8198.000000, 8193.000000, 8206.000000
3494, 53972528.000000, 2077.250000, 8189.000000, 8181.000000, 8176.000000
3495, 53972688.000000, 2059.500000, 8180.000000, 8177.000000, 8164.000000
3496, 53972848.000000, 2024.500000, 8183.000000, 8177.000000, 8164.000000
3497, 53973008.000000, 1966.250000, 8180.000000, 8176.000000, 8161.000000
3498, 53973168.000000, 1882.750000, 8159.000000, 8210.000000, 8185.000000
3499, 53973328.000000, 1784.750000, 8393.000000, 8141.000000, 8260.000000
3500, 53973488.000000, 1683.000000, 8489.000000, 7841.000000, 7980.000000
3501, 53973648.000000, 1587.000000, 8189.000000, 8130.000000, 8119.000000
3502, 53973808.000000, 1504.500000, 8190.000000, 8212.000000, 8206.000000
3503, 53973968.000000, 1435.250000, 8186.000000, 8221.000000, 8212.000000
3504, 53974128.000000, 1381.000000, 8190.000000, 8225.000000, 8219.000000
3505, 53974288.000000, 1342.000000, 8195.000000, 8228.000000, 8225.000000
3506, 53974448.000000, 1313.750000, 8203.000000, 8232.000000, 8232.000000
3507, 53974608.000000, 1294.000000, 8208.000000, 8235.000000, 8239.000000
3508, 53974768.000000, 1274.000000, 8218.000000, 8239.000000, 8249.000000
3509, 53974928.000000, 1254.000000, 8235.000000, 8245.000000, 8263.000000
3510, 53975088.000000, 1233.250000, 8247.000000, 8252.000000, 8276.000000
3511, 53975248.000000, 1211.000000, 8247.000000, 8251.000000, 8277.000000
3512, 53975408.000000, 1191.000000, 8242.000000, 8248.000000, 8276.000000
3513, 53975568.000000, 1171.000000, 8231.000000, 8233.000000, 8256.000000
3514, 53975728.000000, 1151.000000, 8201.000000, 8211.000000, 8218.000000
3515, 53975888.000000, 1127.750000, 8182.000000, 8196.000000, 8191.000000
3516, 53976048.000000, 1107.000000, 8178.000000, 8190.000000, 8180.000000
3517, 53976208.000000, 1083.750000, 8173.000000, 8188.000000, 8177.000000
3518, 53976368.000000, 1061.250000, 8182.000000, 8186.000000, 8177.000000
3519, 53976528.000000, 1042.250000, 8184.000000, 8186.000000, 8180.000000
3520, 53976688.000000, 1025.750000, 8185.000000, 8186.000000, 8181.000000
3521, 53976848.000000, 1004.500000, 8191.000000, 8186.000000, 8183.000000
3522, 53977008.000000, 976.250000, 8187.000000, 8182.000000, 8178.000000
3523, 53977168.000000, 938.500000, 8190.000000, 8178.000000, 8174.000000
