2252, 56291520.000000, 2136.000000, 8161.000000, 8184.000000, 8167.000000
2253, 56291680.000000, 2373.000000, 8164.000000, 8181.000000, 8164.000000
2254, 56291840.000000, 2520.000000, 8162.000000, 8184.000000, 8169.000000
2255, 56292000.000000, 2563.500000, 8174.000000, 8196.000000, 8193.000000
2256, 56292160.000000, 2555.000000, 8181.000000, 8203.000000, 8211.000000
2257, 56292320.000000, 2522.500000, 8176.000000, 8196.000000, 8198.000000
2258, 56292480.000000, 2481.000000, 8183.000000, 8186.000000, 8183.000000
2259, 56292640.000000, 2421.000000, 8165.000000, 8177.000000, 8158.000000
2260, 56292800.000000, 2343.000000, 8156.000000, 8176.000000, 8153.000000
2261, 56292960.000000, 2263.500000, 8156.000000, 8176.000000, 8151.000000
2262, 56293120.000000, 2216.000000, 8149.000000, 8197.000000, 8172.000000
2263, 56293280.000000, 2221.500000, 8248.000000, 8208.000000, 8246.000000
2264, 56293440.000000, 2249.000000, 8549.000000, 7848.000000, 8027.000000
2265, 56293600.000000, 2264.500000, 8162.000000, 8012.000000, 7981.000000
2266, 56293760.000000, 2263.000000, 8168.000000, 8195.000000, 8186.000000
2267, 56293920.000000, 2254.500000, 8162.000000, 8219.000000, 8208.000000
2268, 56294080.000000, 2231.000000, 8160.000000, 8220.000000, 8204.000000
2269, 56294240.000000, 2180.000000, 8164.000000, 8223.000000, 8210.000000
2270, 56294400.000000, 2114.000000, 8180.000000, 8228.000000, 8227.000000
2271, 56294560.000000, 2051.000000, 8181.000000, 8231.000000, 8225.000000
2272, 56294720.000000, 2002.000000, 8196.000000, 8238.000000, 8246.000000
2273, 56294880.000000, 1965.500000, 8212.000000, 8246.000000, 8260.000000
2274, 56295040.000000, 1940.000000, 8225.000000, 8248.000000, 8261.000000
2275, 56295200.000000, 1917.000000, 8245.000000, 8258.000000, 8290.000000
2276, 56295360.000000, 1894.000000, 8243.000000, 8264.000000, 8301.000000
2277, 56295520.000000, 1896.500000, 8214.000000, 8244.000000, 8266.000000
2278, 56295680.000000, 1917.000000, 8173.000000, 8211.000000, 8211.000000
2279, 56295840.000000, 1936.000000, 8149.000000, 8202.000000, 8197.000000
2280, 56296000.000000, 1949.000000, 8141.000000, 8195.000000, 8188.000000
2281, 56296160.000000, 1975.000000, 8140.000000, 8199.000000, 8192.000000
2282, 56296320.000000, 2002.000000, 8142.000000, 8194.000000, 8188.000000
2283, 56296480.000000, 2022.500000, 8144.000000, 8196.000000, 8187.000000
2284, 56296640.000000, 2046.000000, 8160.000000, 8201.000000, 8203.000000
2285, 56296800.000000, 2099.000000, 8154.000000, 8200.000000, 8198.000000
2286, 56296960.000000, 2156.000000, 8160.000000, 8199.000000, 8201.000000
2287, 56297120.000000, 2179.500000, 8161.000000, 8196.000000, 8198.000000
2288, 56297280.000000, 2141.000000, 8162.000000, 8191.000000, 8190.000000
2289, 56297440.000000, 2037.000000, 8168.000000, 8193.000000, 8196.000000
2290, 56297600.000000, 1954.000000, 8161.000000, 8191.000000, 8188.000000
2291, 56297760.000000, 1981.000000, 8165.000000, 8190.000000, 8191.000000
2292, 56297920.000000, 2115.000000, 8163.000000, 8191.000000, 8191.000000
2293, 56298080.000000, 2276.500000, 8162.000000, 8187.000000, 8180.000000
2294, 56298240.000000, 2402.000000, 8163.000000, 8188.000000, 8182.000000
2295, 56298400.000000, 2495.500000, 8172.000000, 8184.000000, 8186.000000
2296, 56298560.000000, 2586.000000, 8162.000000, 8188.000000, 8189.000000
2297, 56298720.000000, 2670.000000, 8171.000000, 8194.000000, 8207.000000
2298, 56298880.000000, 2730.000000, 8193.000000, 8210.000000, 8222.000000
2299, 56299040.000000, 2765.500000, 8188.000000, 8205.000000, 8225.000000
2300, 56299200.000000, 2767.000000, 8195.000000, 8191.000000, 8202.000000
2301, 56299360.000000, 2718.500000, 8185.000000, 8188.000000, 8185.000000
2302, 56299520.000000, 2648.000000, 8171.000000, 8180.000000, 8171.000000
2303, 56299680.000000, 2582.500000, 8184.000000, 8177.000000, 8169.000000
2304, 56299840.000000, 2533.000000, 8195.000000, 8171.000000, 8166.000000
2305, 56300000.000000, 2497.500000, 8167.000000, 8222.000000, 8209.000000
2306, 56300160.000000, 2468.000000, 8544.000000, 8133.000000, 8305.000000
2307, 56300320.000000, 2438.000000, 8570.000000, 7900.000000, 8057.000000
2308, 56300480.000000, 2405.000000, 8242.000000, 8102.000000, 8110.000000
2309, 56300640.000000, 2350.000000, 8262.000000, 8175.000000, 8195.000000
2310, 56300800.000000, 2268.000000, 8273.000000, 8189.000000, 8218.000000
2311, 56300960.000000, 2164.000000, 8292.000000, 8184.000000, 8218.000000
2312, 56301120.000000, 2061.000000, 8295.000000, 8185.000000, 8217.000000
2313, 56301280.000000, 1972.000000, 8315.000000, 8186.000000, 8237.000000
2314, 56301440.000000, 1896.000000, 8335.000000, 8188.000000, 8240.000000
2315, 56301600.000000, 1820.500000, 8353.000000, 8188.000000, 8248.000000
2316, 56301760.000000, 1743.000000, 8381.000000, 8197.000000, 8270.000000
2317, 56301920.000000, 1668.500000, 8392.000000, 8199.000000, 8281.000000
2318, 56302080.000000, 1599.000000, 8405.000000, 8202.000000, 8289.000000
2319, 56302240.000000, 1524.500000, 8397.000000, 8202.000000, 8288.000000
2320, 56302400.000000, 1444.000000, 8362.000000, 8194.000000, 8270.000000
2321, 56302560.000000, 1359.000000, 8312.000000, 8183.000000, 8240.000000
2322, 56302720.000000, 1283.000000, 8281.000000, 8171.000000, 8211.000000
2323, 56302880.000000, 1217.000000, 8276.000000, 8166.000000, 8201.000000
2324, 56303040.000000, 1135.000000, 8269.000000, 8166.000000, 8200.000000
2325, 56303200.000000, 1021.500000, 8269.000000, 8171.000000, 8205.000000
2326, 56303360.000000, 900.000000, 8271.000000, 8176.000000, 8210.000000
2327, 56303520.000000, 809.500000, 8278.000000, 8175.000000, 8219.000000
2328, 56303680.000000, 737.000000, 8272.000000, 8174.000000, 8210.000000
2329, 56303840.000000, 657.000000, 8275.000000, 8172.000000, 8212.000000
2330, 56304000.000000, 550.000000, 8273.000000, 8175.000000, 8214.000000
2331, 56304160.000000, 459.000000, 8266.000000, 8179.000000, 8217.000000
2332, 56304320.000000, 455.000000, 8271.000000, 8179.000000, 8221.000000
2333, 56304480.000000, 600.500000, 8262.000000, 8176.000000, 8212.000000
2334, 56304640.000000, 867.000000, 8268.000000, 8179.000000, 8219.000000
2335, 56304800.000000, 1188.500000, 8261.000000, 8180.000000, 8217.000000
2336, 56304960.000000, 1475.000000, 8259.000000, 8182.000000, 8216.000000
2337, 56305120.000000, 1699.000000, 8252.000000, 8184.000000, 8219.000000
2338, 56305280.000000, 1875.000000, 8248.000000, 8183.000000, 8217.000000
2339, 56305440.000000, 2017.500000, 8246.000000, 8187.000000, 8224.000000
2340, 56305600.000000, 2140.000000, 8252.000000, 8201.000000, 8246.000000
2341, 56305760.000000, 2250.000000, 8253.000000, 8206.000000, 8258.000000
2342, 56305920.000000, 2346.000000, 8247.000000, 8194.000000, 8234.000000
2343, 56306080.000000, 2391.500000, 8229.000000, 8184.000000, 8208.000000
2344, 56306240.000000, 2378.000000, 8218.000000, 8181.000000, 8195.000000
2345, 56306400.000000, 2320.500000, 8209.000000, 8180.000000, 8190.000000
2346, 56306560.000000, 2273.000000, 8209.000000, 8184.000000, 8196.000000
2347, 56306720.000000, 2240.000000, 8182.000000, 8222.000000, 8222.000000
2348, 56306880.000000, 2200.000000, 8473.000000, 8195.000000, 8345.000000
2349, 56307040.000000, 2156.500000, 8572.000000, 7953.000000, 8133.000000
2350, 56307200.000000, 2117.000000, 8180.000000, 8098.000000, 8087.000000
2351, 56307360.000000, 2075.500000, 8191.000000, 8196.000000, 8196.000000
2352, 56307520.000000, 2011.000000, 8179.000000, 8209.000000, 8200.000000
2353, 56307680.000000, 1916.500000, 8188.000000, 8213.000000, 8213.000000
2354, 56307840.000000, 1814.000000, 8187.000000, 8213.000000, 8207.000000
2355, 56308000.000000, 1719.000000, 8191.000000, 8216.000000, 8211.000000
2356, 56308160.000000, 1632.000000, 8195.000000, 8223.000000, 8222.000000
2357, 56308320.000000, 1565.000000, 8199.000000, 8224.000000, 8220.000000
2358, 56308480.000000, 1516.000000, 8200.000000, 8227.000000, 8222.000000
2359, 56308640.000000, 1483.000000, 8186.000000, 8245.000000, 8238.000000
2360, 56308800.000000, 1447.000000, 8167.000000, 8257.000000, 8244.000000
2361, 56308960.000000, 1405.000000, 8152.000000, 8263.000000, 8246.000000
2362, 56309120.000000, 1366.000000, 8125.000000, 8249.000000, 8224.000000
2363, 56309280.000000, 1338.000000, 8069.000000, 8234.000000, 8183.000000
2364, 56309440.000000, 1314.000000, 8044.000000, 8215.000000, 8144.000000
2365, 56309600.000000, 1295.500000, 8037.000000, 8211.000000, 8135.000000
2366, 56309760.000000, 1283.000000, 8043.000000, 8214.000000, 8142.000000
2367, 56309920.000000, 1283.000000, 8054.000000, 8206.000000, 8133.000000
2368, 56310080.000000, 1301.000000, 8059.000000, 8203.000000, 8130.000000
2369, 56310240.000000, 1332.500000, 8071.000000, 8196.000000, 8125.000000
2370, 56310400.000000, 1368.000000, 8080.000000, 8195.000000, 8126.000000
2371, 56310560.000000, 1405.500000, 8089.000000, 8195.000000, 8128.000000
2372, 56310720.000000, 1450.000000, 8099.000000, 8187.000000, 8124.000000
2373, 56310880.000000, 1512.000000, 8090.000000, 8187.000000, 8120.000000
2374, 56311040.000000, 1603.000000, 8090.000000, 8183.000000, 8110.000000
2375, 56311200.000000, 1782.000000, 8093.000000, 8185.000000, 8114.000000
2376, 56311360.000000, 2055.000000, 8086.000000, 8186.000000, 8105.000000
2377, 56311520.000000, 2398.500000, 8085.000000, 8180.000000, 8096.000000
2378, 56311680.000000, 2715.000000, 8080.000000, 8180.000000, 8097.000000
2379, 56311840.000000, 2922.000000, 8082.000000, 8178.000000, 8086.000000
2380, 56312000.000000, 3000.000000, 8093.000000, 8192.000000, 8109.000000
2381, 56312160.000000, 2982.500000, 8097.000000, 8198.000000, 8124.000000
2382, 56312320.000000, 2917.000000, 8100.000000, 8190.000000, 8116.000000
2383, 56312480.000000, 2839.000000, 8091.000000, 8183.000000, 8099.000000
2384, 56312640.000000, 2793.000000, 8077.000000, 8174.000000, 8083.000000
2385, 56312800.000000, 2778.000000, 8080.000000, 8174.000000, 8085.000000
2386, 56312960.000000, 2738.000000, 8088.000000, 8180.000000, 8106.000000
2387, 56313120.000000, 2683.000000, 8081.000000, 8198.000000, 8119.000000
2388, 56313280.000000, 2661.000000, 8238.000000, 8211.000000, 8223.000000
2389, 56313440.000000, 2665.000000, 8522.000000, 7916.000000, 8059.000000
2390, 56313600.000000, 2663.000000, 8115.000000, 8018.000000, 7952.000000
2391, 56313760.000000, 2628.000000, 8122.000000, 8180.000000, 8139.000000
2392, 56313920.000000, 2581.000000, 8111.000000, 8208.000000, 8165.000000
2393, 56314080.000000, 2560.500000, 8110.000000, 8209.000000, 8168.000000
2394, 56314240.000000, 2586.000000, 8116.000000, 8206.000000, 8175.000000
2395, 56314400.000000, 2614.500000, 8114.000000, 8209.000000, 8184.000000
2396, 56314560.000000, 2610.000000, 8119.000000, 8209.000000, 8192.000000
2397, 56314720.000000, 2564.000000, 8136.000000, 8217.000000, 8213.000000
2398, 56314880.000000, 2504.000000, 8155.000000, 8219.000000, 8219.000000
2399, 56315040.000000, 2446.000000, 8178.000000, 8225.000000, 8231.000000
2400, 56315200.000000, 2404.000000, 8189.000000, 8234.000000, 8243.000000
2401, 56315360.000000, 2369.000000, 8192.000000, 8243.000000, 8260.000000
2402, 56315520.000000, 2330.000000, 8173.000000, 8233.000000, 8243.000000
2403, 56315680.000000, 2270.500000, 8122.000000, 8221.000000, 8208.000000
2404, 56315840.000000, 2192.000000, 8078.000000, 8208.000000, 8173.000000
2405, 56316000.000000, 2089.500000, 8070.000000, 8206.000000, 8166.000000
2406, 56316160.000000, 1973.000000, 8071.000000, 8207.000000, 8164.000000
2407, 56316320.000000, 1839.500000, 8078.000000, 8202.000000, 8155.000000
2408, 56316480.000000, 1722.000000, 8077.000000, 8206.000000, 8159.000000
2409, 56316640.000000, 1645.500000, 8087.000000, 8206.000000, 8163.000000
2410, 56316800.000000, 1602.000000, 8101.000000, 8207.000000, 8168.000000
2411, 56316960.000000, 1570.500000, 8101.000000, 8205.000000, 8170.000000
2412, 56317120.000000, 1519.000000, 8110.000000, 8205.000000, 8170.000000
2413, 56317280.000000, 1429.500000, 8115.000000, 8199.000000, 8167.000000
2414, 56317440.000000, 1337.000000, 8118.000000, 8195.000000, 8163.000000
2415, 56317600.000000, 1312.000000, 8138.000000, 8191.000000, 8166.000000
2416, 56317760.000000, 1400.000000, 8140.000000, 8191.000000, 8168.000000
2417, 56317920.000000, 1604.500000, 8157.000000, 8190.000000, 8172.000000
2418, 56318080.000000, 1843.000000, 8183.000000, 8195.000000, 8194.000000
2419, 56318240.000000, 2047.000000, 8215.000000, 8190.000000, 8212.000000
2420, 56318400.000000, 2175.000000, 8230.000000, 8177.000000, 8195.000000
2421, 56318560.000000, 2222.500000, 8240.000000, 8165.000000, 8178.000000
2422, 56318720.000000, 2226.000000, 8243.000000, 8153.000000, 8156.000000
2423, 56318880.000000, 2203.500000, 8255.000000, 8151.000000, 8160.000000
2424, 56319040.000000, 2164.000000, 8263.000000, 8151.000000, 8167.000000
2425, 56319200.000000, 2095.500000, 8244.000000, 8174.000000, 8176.000000
2426, 56319360.000000, 1997.000000, 8417.000000, 8191.000000, 8294.000000
2427, 56319520.000000, 1874.500000, 8669.000000, 7875.000000, 8088.000000
2428, 56319680.000000, 1758.000000, 8241.000000, 8018.000000, 8014.000000
2429, 56319840.000000, 1673.000000, 8252.000000, 8172.000000, 8185.000000
2430, 56320000.000000, 1617.000000, 8242.000000, 8194.000000, 8202.000000
2431, 56320160.000000, 1579.500000, 8240.000000, 8200.000000, 8211.000000
2432, 56320320.000000, 1555.000000, 8240.000000, 8209.000000, 8216.000000
2433, 56320480.000000, 1534.500000, 8242.000000, 8209.000000, 8221.000000
2434, 56320640.000000, 1504.000000, 8243.000000, 8212.000000, 8223.000000
2435, 56320800.000000, 1453.500000, 8261.000000, 8223.000000, 8242.000000
2436, 56320960.000000, 1385.000000, 8280.000000, 8230.000000, 8256.000000
2437, 56321120.000000, 1312.000000, 8292.000000, 8237.000000, 8271.000000
2438, 56321280.000000, 1245.000000, 8306.000000, 8236.000000, 8273.000000
2439, 56321440.000000, 1187.000000, 8299.000000, 8242.000000, 8284.000000
2440, 56321600.000000, 1143.000000, 8263.000000, 8234.000000, 8270.000000
2441, 56321760.000000, 1127.000000, 8213.000000, 8218.000000, 8227.000000
2442, 56321920.000000, 1133.000000, 8167.000000, 8204.000000, 8189.000000
2443, 56322080.000000, 1148.000000, 8154.000000, 8198.000000, 8178.000000
2444, 56322240.000000, 1145.000000, 8140.000000, 8198.000000, 8173.000000
2445, 56322400.000000, 1115.500000, 8137.000000, 8206.000000, 8181.000000
2446, 56322560.000000, 1069.000000, 8134.000000, 8208.000000, 8183.000000
2447, 56322720.000000, 1015.500000, 8145.000000, 8205.000000, 8183.000000
2448, 56322880.000000, 964.000000, 8139.000000, 8202.000000, 8176.000000
2449, 56323040.000000, 923.000000, 8151.000000, 8200.000000, 8180.000000
2450, 56323200.000000, 890.000000, 8156.000000, 8197.000000, 8180.000000
2451, 56323360.000000, 872.500000, 8143.000000, 8201.000000, 8176.000000
2452, 56323520.000000, 883.000000, 8141.000000, 8202.000000, 8181.000000
2453, 56323680.000000, 977.500000, 8132.000000, 8202.000000, 8177.000000
2454, 56323840.000000, 1168.000000, 8129.000000, 8198.000000, 8171.000000
2455, 56324000.000000, 1441.000000, 8123.000000, 8200.000000, 8169.000000
2456, 56324160.000000, 1716.000000, 8131.000000, 8203.000000, 8176.000000
2457, 56324320.000000, 1946.000000, 8126.000000, 8209.000000, 8188.000000
2458, 56324480.000000, 2116.000000, 8137.000000, 8217.000000, 8204.000000
2459, 56324640.000000, 2226.000000, 8149.000000, 8215.000000, 8215.000000
2460, 56324800.000000, 2278.000000, 8143.000000, 8209.000000, 8196.000000
2461, 56324960.000000, 2292.500000, 8133.000000, 8199.000000, 8173.000000
2462, 56325120.000000, 2298.000000, 8129.000000, 8196.000000, 8163.000000
2463, 56325280.000000, 2293.500000, 8123.000000, 8192.000000, 8163.000000
2464, 56325440.000000, 2284.000000, 8127.000000, 8193.000000, 8169.000000
2465, 56325600.000000, 2262.000000, 8098.000000, 8231.000000, 8198.000000
2466, 56325760.000000, 2232.000000, 8348.000000, 8206.000000, 8307.000000
2467, 56325920.000000, 2195.000000, 8523.000000, 7881.000000, 8045.000000
2468, 56326080.000000, 2164.000000, 8115.000000, 8091.000000, 8055.000000
2469, 56326240.000000, 2151.000000, 8129.000000, 8208.000000, 8189.000000
2470, 56326400.000000, 2152.000000, 8127.000000, 8225.000000, 8203.000000
2471, 56326560.000000, 2149.000000, 8140.000000, 8230.000000, 8219.000000
2472, 56326720.000000, 2137.000000, 8141.000000, 8233.000000, 8220.000000
2473, 56326880.000000, 2115.500000, 8150.000000, 8233.000000, 8218.000000
2474, 56327040.000000, 2078.000000, 8163.000000, 8238.000000, 8236.000000
2475, 56327200.000000, 2029.500000, 8176.000000, 8246.000000, 8250.000000
2476, 56327360.000000, 1959.000000, 8201.000000, 8257.000000, 8272.000000
2477, 56327520.000000, 1879.500000, 8219.000000, 8264.000000, 8287.000000
2478, 56327680.000000, 1811.000000, 8232.000000, 8267.000000, 8301.000000
2479, 56327840.000000, 1753.500000, 8237.000000, 8266.000000, 8303.000000
2480, 56328000.000000, 1693.000000, 8200.000000, 8253.000000, 8275.000000
2481, 56328160.000000, 1631.500000, 8153.000000, 8233.000000, 8236.000000
2482, 56328320.000000, 1572.000000, 8111.000000, 8214.000000, 8195.000000
2483, 56328480.000000, 1518.500000, 8112.000000, 8213.000000, 8195.000000
2484, 56328640.000000, 1465.000000, 8110.000000, 8209.000000, 8188.000000
2485, 56328800.000000, 1417.500000, 8124.000000, 8203.000000, 8189.000000
2486, 56328960.000000, 1383.000000, 8124.000000, 8207.000000, 8193.000000
2487, 56329120.000000, 1349.000000, 8129.000000, 8204.000000, 8195.000000
2488, 56329280.000000, 1316.000000, 8146.000000, 8204.000000, 8206.000000
2489, 56329440.000000, 1291.500000, 8166.000000, 8194.000000, 8198.000000
2490, 56329600.000000, 1272.000000, 8184.000000, 8189.000000, 8197.000000
2491, 56329760.000000, 1267.500000, 8198.000000, 8182.000000, 8199.000000
2492, 56329920.000000, 1294.000000, 8216.000000, 8171.000000, 8192.000000
2493, 56330080.000000, 1406.500000, 8237.000000, 8162.000000, 8191.000000
2494, 56330240.000000, 1620.000000, 8265.000000, 8154.000000, 8190.000000
2495, 56330400.000000, 1904.500000, 8281.000000, 8154.000000, 8202.000000
2496, 56330560.000000, 2156.000000, 8297.000000, 8148.000000, 8197.000000
2497, 56330720.000000, 2309.500000, 8315.000000, 8149.000000, 8210.000000
2498, 56330880.000000, 2363.000000, 8316.000000, 8150.000000, 8210.000000
2499, 56331040.000000, 2361.500000, 8328.000000, 8151.000000, 8221.000000
2500, 56331200.000000, 2338.000000, 8333.000000, 8160.000000, 8237.000000
2501, 56331360.000000, 2312.500000, 8342.000000, 8172.000000, 8263.000000
2502, 56331520.000000, 2292.000000, 8333.000000, 8159.000000, 8234.000000
2503, 56331680.000000, 2256.500000, 8314.000000, 8154.000000, 8220.000000
2504, 56331840.000000, 2186.000000, 8301.000000, 8154.000000, 8204.000000
2505, 56332000.000000, 2083.000000, 8287.000000, 8157.000000, 8203.000000
2506, 56332160.000000, 1986.000000, 8283.000000, 8165.000000, 8211.000000
2507, 56332320.000000, 1926.500000, 8246.000000, 8191.000000, 8220.000000
2508, 56332480.000000, 1898.000000, 8451.000000, 8193.000000, 8337.000000
2509, 56332640.000000, 1887.000000, 8696.000000, 7850.000000, 8085.000000
2510, 56332800.000000, 1882.000000, 8244.000000, 8061.000000, 8075.000000
2511, 56332960.000000, 1875.500000, 8238.000000, 8191.000000, 8215.000000
2512, 56333120.000000, 1865.000000, 8228.000000, 8211.000000, 8238.000000
2513, 56333280.000000, 1855.500000, 8226.000000, 8216.000000, 8234.000000
2514, 56333440.000000, 1837.000000, 8223.000000, 8224.000000, 8242.000000
2515, 56333600.000000, 1812.500000, 8232.000000, 8225.000000, 8245.000000
2516, 56333760.000000, 1795.000000, 8232.000000, 8233.000000, 8255.000000
2517, 56333920.000000, 1801.500000, 8245.000000, 8238.000000, 8268.000000
2518, 56334080.000000, 1813.000000, 8251.000000, 8245.000000, 8275.000000
2519, 56334240.000000, 1814.500000, 8258.000000, 8255.000000, 8294.000000
2520, 56334400.000000, 1803.000000, 8268.000000, 8266.000000, 8308.000000
2521, 56334560.000000, 1781.500000, 8259.000000, 8269.000000, 8311.000000
2522, 56334720.000000, 1746.000000, 8233.000000, 8253.000000, 8289.000000
2523, 56334880.000000, 1706.000000, 8165.000000, 8232.000000, 8233.000000
2524, 56335040.000000, 1671.000000, 8114.000000, 8223.000000, 8200.000000
2525, 56335200.000000, 1648.000000, 8094.000000, 8218.000000, 8186.000000
2526, 56335360.000000, 1637.000000, 8083.000000, 8220.000000, 8183.000000
2527, 56335520.000000, 1617.500000, 8078.000000, 8223.000000, 8186.000000
2528, 56335680.000000, 1583.000000, 8082.000000, 8213.000000, 8171.000000
2529, 56335840.000000, 1550.000000, 8089.000000, 8213.000000, 8172.000000
2530, 56336000.000000, 1529.000000, 8097.000000, 8213.000000, 8179.000000
2531, 56336160.000000, 1518.000000, 8101.000000, 8213.000000, 8178.000000
2532, 56336320.000000, 1506.000000, 8104.000000, 8208.000000, 8173.000000
2533, 56336480.000000, 1480.500000, 8103.000000, 8205.000000, 8169.000000
2534, 56336640.000000, 1522.000000, 8107.000000, 8200.000000, 8161.000000
2535, 56336800.000000, 1729.000000, 8126.000000, 8202.000000, 8171.000000
2536, 56336960.000000, 2055.000000, 8122.000000, 8201.000000, 8162.000000
2537, 56337120.000000, 2403.500000, 8135.000000, 8191.000000, 8158.000000
2538, 56337280.000000, 2606.000000, 8133.000000, 8188.000000, 8152.000000
2539, 56337440.000000, 2722.500000, 8147.000000, 8183.000000, 8156.000000
2540, 56337600.000000, 2782.000000, 8150.000000, 8180.000000, 8155.000000
2541, 56337760.000000, 2795.500000, 8151.000000, 8182.000000, 8162.000000
2542, 56337920.000000, 2781.000000, 8147.000000, 8198.000000, 8187.000000
2543, 56338080.000000, 2745.500000, 8153.000000, 8196.000000, 8193.000000
2544, 56338240.000000, 2711.000000, 8151.000000, 8190.000000, 8180.000000
2545, 56338400.000000, 2668.000000, 8143.000000, 8184.000000, 8159.000000
2546, 56338560.000000, 2614.000000, 8136.000000, 8180.000000, 8150.000000
2547, 56338720.000000, 2541.000000, 8130.000000, 8179.000000, 8143.000000
2548, 56338880.000000, 2448.000000, 8135.000000, 8177.000000, 8148.000000
2549, 56339040.000000, 2361.500000, 8106.000000, 8212.000000, 8166.000000
2550, 56339200.000000, 2302.000000, 8278.000000, 8217.000000, 8273.000000
2551, 56339360.000000, 2272.500000, 8554.000000, 7863.000000, 8031.000000
2552, 56339520.000000, 2254.000000, 8114.000000, 8050.000000, 7995.000000
2553, 56339680.000000, 2218.000000, 8126.000000, 8201.000000, 8166.000000
2554, 56339840.000000, 2156.000000, 8112.000000, 8225.000000, 8181.000000
2555, 56340000.000000, 2076.000000, 8115.000000, 8233.000000, 8195.000000
2556, 56340160.000000, 1992.000000, 8126.000000, 8236.000000, 8201.000000
2557, 56340320.000000, 1912.000000, 8134.000000, 8236.000000, 8203.000000
2558, 56340480.000000, 1836.000000, 8138.000000, 8240.000000, 8207.000000
2559, 56340640.000000, 1765.500000, 8154.000000, 8242.000000, 8220.000000
2560, 56340800.000000, 1697.000000, 8177.000000, 8255.000000, 8244.000000
2561, 56340960.000000, 1624.500000, 8203.000000, 8263.000000, 8265.000000
2562, 56341120.000000, 1551.000000, 8218.000000, 8265.000000, 8273.000000
2563, 56341280.000000, 1488.000000, 8217.000000, 8267.000000, 8277.000000
2564, 56341440.000000, 1438.000000, 8209.000000, 8249.000000, 8263.000000
2565, 56341600.000000, 1408.500000, 8164.000000, 8226.000000, 8215.000000
2566, 56341760.000000, 1406.000000, 8128.000000, 8210.000000, 8181.000000
2567, 56341920.000000, 1402.000000, 8117.000000, 8196.000000, 8157.000000
2568, 56342080.000000, 1384.000000, 8124.000000, 8193.000000, 8161.000000
2569, 56342240.000000, 1345.500000, 8143.000000, 8188.000000, 8159.000000
2570, 56342400.000000, 1300.000000, 8162.000000, 8186.000000, 8165.000000
2571, 56342560.000000, 1257.500000, 8186.000000, 8181.000000, 8168.000000
2572, 56342720.000000, 1229.000000, 8204.000000, 8175.000000, 8172.000000
2573, 56342880.000000, 1225.000000, 8225.000000, 8170.000000, 8175.000000
2574, 56343040.000000, 1241.000000, 8240.000000, 8166.000000, 8177.000000
2575, 56343200.000000, 1305.500000, 8240.000000, 8164.000000, 8173.000000
2576, 56343360.000000, 1444.000000, 8248.000000, 8163.000000, 8177.000000
2577, 56343520.000000, 1671.500000, 8238.000000, 8160.000000, 8168.000000
2578, 56343680.000000, 1932.000000, 8235.000000, 8161.000000, 8167.000000
2579, 56343840.000000, 2151.500000, 8233.000000, 8164.000000, 8170.000000
2580, 56344000.000000, 2289.000000, 8227.000000, 8165.000000, 8167.000000
2581, 56344160.000000, 2331.500000, 8222.000000, 8165.000000, 8166.000000
2582, 56344320.000000, 2297.000000, 8232.000000, 8183.000000, 8195.000000
2583, 56344480.000000, 2206.500000, 8226.000000, 8183.000000, 8197.000000
2584, 56344640.000000, 2096.000000, 8223.000000, 8182.000000, 8192.000000
2585, 56344800.000000, 1985.000000, 8215.000000, 8173.000000, 8173.000000
2586, 56344960.000000, 1871.000000, 8205.000000, 8171.000000, 8159.000000
2587, 56345120.000000, 1756.500000, 8194.000000, 8166.000000, 8149.000000
2588, 56345280.000000, 1633.000000, 8196.000000, 8168.000000, 8148.000000
2589, 56345440.000000, 1522.500000, 8181.000000, 8183.000000, 8155.000000
2590, 56345600.000000, 1444.000000, 8227.000000, 8212.000000, 8218.000000
2591, 56345760.000000, 1430.500000, 8597.000000, 7918.000000, 8105.000000
2592, 56345920.000000, 1471.000000, 8248.000000, 7961.000000, 7952.000000
2593, 56346080.000000, 1531.500000, 8172.000000, 8173.000000, 8151.000000
2594, 56346240.000000, 1563.000000, 8161.000000, 8207.000000, 8178.000000
2595, 56346400.000000, 1569.500000, 8157.000000, 8219.000000, 8191.000000
2596, 56346560.000000, 1573.000000, 8150.000000, 8227.000000, 8198.000000
2597, 56346720.000000, 1581.000000, 8151.000000, 8230.000000, 8202.000000
2598, 56346880.000000, 1588.000000, 8154.000000, 8232.000000, 8208.000000
2599, 56347040.000000, 1588.500000, 8169.000000, 8235.000000, 8217.000000
2600, 56347200.000000, 1581.000000, 8184.000000, 8244.000000, 8232.000000
2601, 56347360.000000, 1562.500000, 8205.000000, 8258.000000, 8260.000000
2602, 56347520.000000, 1543.000000, 8212.000000, 8266.000000, 8274.000000
2603, 56347680.000000, 1533.000000, 8218.000000, 8266.000000, 8276.000000
2604, 56347840.000000, 1542.000000, 8199.000000, 8255.000000, 8261.000000
2605, 56348000.000000, 1561.000000, 8155.000000, 8232.000000, 8219.000000
2606, 56348160.000000, 1588.000000, 8112.000000, 8217.000000, 8181.000000
2607, 56348320.000000, 1622.000000, 8097.000000, 8207.000000, 8163.000000
2608, 56348480.000000, 1664.000000, 8091.000000, 8205.000000, 8157.000000
2609, 56348640.000000, 1698.000000, 8088.000000, 8207.000000, 8155.000000
2610, 56348800.000000, 1724.000000, 8090.000000, 8209.000000, 8158.000000
2611, 56348960.000000, 1752.000000, 8098.000000, 8208.000000, 8165.000000
2612, 56349120.000000, 1781.000000, 8103.000000, 8207.000000, 8171.000000
2613, 56349280.000000, 1802.000000, 8096.000000, 8203.000000, 8164.000000
2614, 56349440.000000, 1819.000000, 8104.000000, 8195.000000, 8160.000000
2615, 56349600.000000, 1859.500000, 8097.000000, 8200.000000, 8168.000000
2616, 56349760.000000, 1960.000000, 8101.000000, 8197.000000, 8168.000000
2617, 56349920.000000, 2163.500000, 8101.000000, 8192.000000, 8163.000000
2618, 56350080.000000, 2444.000000, 8103.000000, 8191.000000, 8161.000000
2619, 56350240.000000, 2728.500000, 8104.000000, 8193.000000, 8162.000000
2620, 56350400.000000, 2954.000000, 8105.000000, 8192.000000, 8159.000000
2621, 56350560.000000, 3088.000000, 8109.000000, 8196.000000, 8170.000000
2622, 56350720.000000, 3128.000000, 8111.000000, 8196.000000, 8169.000000
2623, 56350880.000000, 3068.000000, 8124.000000, 8210.000000, 8196.000000
2624, 56351040.000000, 2964.000000, 8134.000000, 8207.000000, 8202.000000
2625, 56351200.000000, 2861.500000, 8133.000000, 8204.000000, 8190.000000
2626, 56351360.000000, 2758.000000, 8121.000000, 8200.000000, 8174.000000
2627, 56351520.000000, 2630.000000, 8105.000000, 8196.000000, 8161.000000
2628, 56351680.000000, 2475.000000, 8112.000000, 8191.000000, 8157.000000
2629, 56351840.000000, 2316.500000, 8111.000000, 8187.000000, 8152.000000
2630, 56352000.000000, 2182.000000, 8097.000000, 8227.000000, 8189.000000
2631, 56352160.000000, 2091.500000, 8281.000000, 8222.000000, 8290.000000
2632, 56352320.000000, 2034.000000, 8551.000000, 7850.000000, 8026.000000
2633, 56352480.000000, 1984.500000, 8115.000000, 8063.000000, 8017.000000
2634, 56352640.000000, 1927.000000, 8124.000000, 8207.000000, 8179.000000
2635, 56352800.000000, 1864.000000, 8123.000000, 8228.000000, 8203.000000
2636, 56352960.000000, 1801.000000, 8126.000000, 8233.000000, 8208.000000
2637, 56353120.000000, 1735.500000, 8146.000000, 8232.000000, 8217.000000
2638, 56353280.000000, 1667.000000, 8165.000000, 8226.000000, 8217.000000
2639, 56353440.000000, 1607.500000, 8186.000000, 8227.000000, 8228.000000
2640, 56353600.000000, 1562.000000, 8215.000000, 8230.000000, 8246.000000
2641, 56353760.000000, 1528.500000, 8260.000000, 8231.000000, 8267.000000
2642, 56353920.000000, 1507.000000, 8291.000000, 8237.000000, 8284.000000
2643, 56354080.000000, 1501.500000, 8335.000000, 8236.000000, 8304.000000
2644, 56354240.000000, 1513.000000, 8350.000000, 8230.000000, 8310.000000
2645, 56354400.000000, 1523.500000, 8343.000000, 8214.000000, 8290.000000
2646, 56354560.000000, 1511.000000, 8300.000000, 8190.000000, 8247.000000
2647, 56354720.000000, 1479.000000, 8266.000000, 8173.000000, 8211.000000
2648, 56354880.000000, 1459.000000, 8258.000000, 8166.000000, 8203.000000
2649, 56355040.000000, 1472.000000, 8253.000000, 8170.000000, 8200.000000
2650, 56355200.000000, 1502.000000, 8257.000000, 8171.000000, 8203.000000
2651, 56355360.000000, 1524.000000, 8247.000000, 8172.000000, 8204.000000
2652, 56355520.000000, 1530.000000, 8246.000000, 8172.000000, 8203.000000
2653, 56355680.000000, 1532.000000, 8244.000000, 8171.000000, 8203.000000
2654, 56355840.000000, 1531.000000, 8253.000000, 8174.000000, 8206.000000
2655, 56356000.000000, 1537.500000, 8238.000000, 8179.000000, 8205.000000
2656, 56356160.000000, 1603.000000, 8234.000000, 8177.000000, 8200.000000
2657, 56356320.000000, 1779.000000, 8229.000000, 8177.000000, 8201.000000
2658, 56356480.000000, 2044.000000, 8219.000000, 8177.000000, 8194.000000
2659, 56356640.000000, 2326.500000, 8215.000000, 8180.000000, 8198.000000
2660, 56356800.000000, 2548.000000, 8212.000000, 8176.000000, 8188.000000
2661, 56356960.000000, 2685.000000, 8205.000000, 8183.000000, 8193.000000
2662, 56357120.000000, 2758.000000, 8201.000000, 8181.000000, 8188.000000
2663, 56357280.000000, 2774.500000, 8196.000000, 8185.000000, 8191.000000
2664, 56357440.000000, 2752.000000, 8203.000000, 8194.000000, 8210.000000
2665, 56357600.000000, 2707.500000, 8203.000000, 8203.000000, 8223.000000
2666, 56357760.000000, 2658.000000, 8206.000000, 8200.000000, 8224.000000
2667, 56357920.000000, 2608.500000, 8197.000000, 8196.000000, 8210.000000
2668, 56358080.000000, 2539.000000, 8175.000000, 8185.000000, 8177.000000
2669, 56358240.000000, 2430.500000, 8160.000000, 8185.000000, 8171.000000
2670, 56358400.000000, 2306.000000, 8160.000000, 8187.000000, 8175.000000
2671, 56358560.000000, 2203.500000, 8148.000000, 8191.000000, 8173.000000
2672, 56358720.000000, 2145.000000, 8135.000000, 8246.000000, 8231.000000
2673, 56358880.000000, 2140.500000, 8540.000000, 8013.000000, 8194.000000
2674, 56359040.000000, 2161.000000, 8374.000000, 7904.000000, 7970.000000
2675, 56359200.000000, 2185.500000, 8140.000000, 8174.000000, 8155.000000
2676, 56359360.000000, 2191.000000, 8127.000000, 8231.000000, 8211.000000
2677, 56359520.000000, 2176.000000, 8123.000000, 8236.000000, 8213.000000
2678, 56359680.000000, 2141.000000, 8120.000000, 8241.000000, 8218.000000
2679, 56359840.000000, 2095.000000, 8133.000000, 8242.000000, 8222.000000
2680, 56360000.000000, 2057.000000, 8144.000000, 8248.000000, 8237.000000
2681, 56360160.000000, 2030.500000, 8148.000000, 8256.000000, 8246.000000
2682, 56360320.000000, 2022.000000, 8155.000000, 8265.000000, 8258.000000
2683, 56360480.000000, 2025.500000, 8179.000000, 8272.000000, 8276.000000
2684, 56360640.000000, 2035.000000, 8198.000000, 8276.000000, 8291.000000
2685, 56360800.000000, 2030.500000, 8197.000000, 8282.000000, 8300.000000
2686, 56360960.000000, 2009.000000, 8193.000000, 8273.000000, 8293.000000
2687, 56361120.000000, 1979.500000, 8160.000000, 8249.000000, 8255.000000
2688, 56361280.000000, 1954.000000, 8113.000000, 8225.000000, 8208.000000
2689, 56361440.000000, 1930.500000, 8093.000000, 8212.000000, 8185.000000
2690, 56361600.000000, 1907.000000, 8085.000000, 8211.000000, 8177.000000
2691, 56361760.000000, 1902.500000, 8088.000000, 8208.000000, 8176.000000
2692, 56361920.000000, 1914.000000, 8091.000000, 8207.000000, 8171.000000
2693, 56362080.000000, 1921.500000, 8101.000000, 8206.000000, 8175.000000
2694, 56362240.000000, 1912.000000, 8110.000000, 8202.000000, 8177.000000
2695, 56362400.000000, 1873.000000, 8119.000000, 8204.000000, 8181.000000
2696, 56362560.000000, 1810.000000, 8112.000000, 8206.000000, 8180.000000
2697, 56362720.000000, 1745.500000, 8116.000000, 8205.000000, 8180.000000
2698, 56362880.000000, 1746.000000, 8120.000000, 8200.000000, 8179.000000
2699, 56363040.000000, 1850.000000, 8127.000000, 8197.000000, 8177.000000
2700, 56363200.000000, 2039.000000, 8125.000000, 8200.000000, 8179.000000
2701, 56363360.000000, 2248.500000, 8126.000000, 8200.000000, 8179.000000
2702, 56363520.000000, 2438.000000, 8127.000000, 8198.000000, 8178.000000
2703, 56363680.000000, 2541.000000, 8127.000000, 8199.000000, 8179.000000
2704, 56363840.000000, 2552.000000, 8133.000000, 8197.000000, 8179.000000
2705, 56364000.000000, 2481.500000, 8138.000000, 8204.000000, 8189.000000
2706, 56364160.000000, 2393.000000, 8143.000000, 8218.000000, 8218.000000
2707, 56364320.000000, 2322.000000, 8150.000000, 8218.000000, 8231.000000
2708, 56364480.000000, 2256.000000, 8136.000000, 8209.000000, 8201.000000
2709, 56364640.000000, 2175.500000, 8135.000000, 8204.000000, 8187.000000
2710, 56364800.000000, 2078.000000, 8122.000000, 8196.000000, 8169.000000
2711, 56364960.000000, 1963.500000, 8127.000000, 8196.000000, 8174.000000
2712, 56365120.000000, 1855.000000, 8137.000000, 8200.000000, 8183.000000
2713, 56365280.000000, 1773.000000, 8112.000000, 8242.000000, 8216.000000
2714, 56365440.000000, 1739.000000, 8435.000000, 8140.000000, 8271.000000
2715, 56365600.000000, 1739.500000, 8561.000000, 7847.000000, 8008.000000
2716, 56365760.000000, 1752.000000, 8191.000000, 8120.000000, 8113.000000
2717, 56365920.000000, 1755.500000, 8204.000000, 8199.000000, 8206.000000
2718, 56366080.000000, 1753.000000, 8215.000000, 8201.000000, 8209.000000
2719, 56366240.000000, 1744.000000, 8235.000000, 8203.000000, 8219.000000
2720, 56366400.000000, 1739.000000, 8255.000000, 8203.000000, 8226.000000
2721, 56366560.000000, 1737.000000, 8268.000000, 8203.000000, 8231.000000
2722, 56366720.000000, 1734.000000, 8285.000000, 8204.000000, 8241.000000
2723, 56366880.000000, 1716.000000, 8297.000000, 8207.000000, 8246.000000
2724, 56367040.000000, 1687.000000, 8312.000000, 8210.000000, 8255.000000
2725, 56367200.000000, 1647.500000, 8339.000000, 8222.000000, 8285.000000
2726, 56367360.000000, 1597.000000, 8344.000000, 8230.000000, 8292.000000
2727, 56367520.000000, 1535.000000, 8335.000000, 8228.000000, 8288.000000
2728, 56367680.000000, 1482.000000, 8302.000000, 8210.000000, 8254.000000
2729, 56367840.000000, 1459.500000, 8252.000000, 8192.000000, 8213.000000
2730, 56368000.000000, 1455.000000, 8215.000000, 8177.000000, 8172.000000
2731, 56368160.000000, 1456.000000, 8199.000000, 8174.000000, 8162.000000
2732, 56368320.000000, 1456.000000, 8190.000000, 8173.000000, 8155.000000
2733, 56368480.000000, 1460.000000, 8186.000000, 8176.000000, 8155.000000
2734, 56368640.000000, 1465.000000, 8189.000000, 8176.000000, 8153.000000
2735, 56368800.000000, 1457.000000, 8195.000000, 8179.000000, 8164.000000
2736, 56368960.000000, 1439.000000, 8198.000000, 8174.000000, 8155.000000
2737, 56369120.000000, 1414.500000, 8178.000000, 8178.000000, 8152.000000
2738, 56369280.000000, 1395.000000, 8186.000000, 8176.000000, 8155.000000
2739, 56369440.000000, 1427.000000, 8189.000000, 8177.000000, 8158.000000
2740, 56369600.000000, 1562.000000, 8180.000000, 8173.000000, 8146.000000
2741, 56369760.000000, 1833.000000, 8184.000000, 8176.000000, 8154.000000
2742, 56369920.000000, 2182.000000, 8178.000000, 8176.000000, 8150.000000
2743, 56370080.000000, 2511.000000, 8179.000000, 8168.000000, 8137.000000
2744, 56370240.000000, 2763.000000, 8184.000000, 8169.000000, 8141.000000
2745, 56370400.000000, 2918.000000, 8190.000000, 8186.000000, 8174.000000
2746, 56370560.000000, 2999.000000, 8185.000000, 8192.000000, 8179.000000
2747, 56370720.000000, 3023.500000, 8180.000000, 8188.000000, 8175.000000
2748, 56370880.000000, 3012.000000, 8179.000000, 8177.000000, 8154.000000
2749, 56371040.000000, 2985.500000, 8146.000000, 8178.000000, 8137.000000
2750, 56371200.000000, 2950.000000, 8135.000000, 8173.000000, 8122.000000
2751, 56371360.000000, 2912.500000, 8126.000000, 8176.000000, 8119.000000
2752, 56371520.000000, 2884.000000, 8125.000000, 8183.000000, 8128.000000
2753, 56371680.000000, 2851.500000, 8129.000000, 8230.000000, 8185.000000
2754, 56371840.000000, 2806.000000, 8511.000000, 7974.000000, 8108.000000
2755, 56372000.000000, 2763.000000, 8285.000000, 7921.000000, 7924.000000
2756, 56372160.000000, 2741.000000, 8124.000000, 8173.000000, 8117.000000
2757, 56372320.000000, 2731.000000, 8112.000000, 8224.000000, 8162.000000
2758, 56372480.000000, 2719.000000, 8115.000000, 8230.000000, 8172.000000
2759, 56372640.000000, 2690.500000, 8119.000000, 8230.000000, 8169.000000
2760, 56372800.000000, 2655.000000, 8127.000000, 8234.000000, 8178.000000
2761, 56372960.000000, 2614.000000, 8136.000000, 8239.000000, 8191.000000
2762, 56373120.000000, 2563.000000, 8146.000000, 8238.000000, 8197.000000
2763, 56373280.000000, 2507.500000, 8159.000000, 8245.000000, 8212.000000
2764, 56373440.000000, 2454.000000, 8174.000000, 8247.000000, 8220.000000
2765, 56373600.000000, 2407.500000, 8196.000000, 8254.000000, 8240.000000
2766, 56373760.000000, 2380.000000, 8203.000000, 8259.000000, 8254.000000
2767, 56373920.000000, 2352.000000, 8192.000000, 8248.000000, 8241.000000
2768, 56374080.000000, 2305.000000, 8152.000000, 8228.000000, 8203.000000
2769, 56374240.000000, 2232.500000, 8112.000000, 8209.000000, 8167.000000
2770, 56374400.000000, 2160.000000, 8087.000000, 8199.000000, 8144.000000
2771, 56374560.000000, 2101.500000, 8089.000000, 8198.000000, 8141.000000
2772, 56374720.000000, 2042.000000, 8093.000000, 8196.000000, 8143.000000
2773, 56374880.000000, 1981.000000, 8098.000000, 8196.000000, 8143.000000
2774, 56375040.000000, 1921.000000, 8105.000000, 8200.000000, 8147.000000
2775, 56375200.000000, 1853.000000, 8103.000000, 8195.000000, 8141.000000
2776, 56375360.000000, 1775.000000, 8111.000000, 8195.000000, 8144.000000
2777, 56375520.000000, 1690.500000, 8110.000000, 8195.000000, 8144.000000
2778, 56375680.000000, 1604.000000, 8107.000000, 8193.000000, 8140.000000
2779, 56375840.000000, 1548.500000, 8106.000000, 8190.000000, 8136.000000
2780, 56376000.000000, 1576.000000, 8104.000000, 8191.000000, 8134.000000
2781, 56376160.000000, 1733.000000, 8105.000000, 8191.000000, 8140.000000
2782, 56376320.000000, 1975.000000, 8119.000000, 8196.000000, 8151.000000
2783, 56376480.000000, 2233.500000, 8121.000000, 8204.000000, 8168.000000
2784, 56376640.000000, 2426.000000, 8131.000000, 8200.000000, 8169.000000
2785, 56376800.000000, 2512.500000, 8135.000000, 8194.000000, 8157.000000
2786, 56376960.000000, 2520.000000, 8118.000000, 8182.000000, 8130.000000
2787, 56377120.000000, 2477.500000, 8121.000000, 8176.000000, 8120.000000
2788, 56377280.000000, 2411.000000, 8124.000000, 8177.000000, 8127.000000
2789, 56377440.000000, 2317.000000, 8133.000000, 8178.000000, 8130.000000
2790, 56377600.000000, 2210.000000, 8123.000000, 8232.000000, 8189.000000
2791, 56377760.000000, 2093.000000, 8490.000000, 8041.000000, 8175.000000
2792, 56377920.000000, 1988.000000, 8343.000000, 7887.000000, 7925.000000
2793, 56378080.000000, 1903.500000, 8169.000000, 8129.000000, 8097.000000
2794, 56378240.000000, 1841.000000, 8184.000000, 8192.000000, 8170.000000
2795, 56378400.000000, 1799.500000, 8206.000000, 8196.000000, 8183.000000
2796, 56378560.000000, 1783.000000, 8222.000000, 8194.000000, 8191.000000
2797, 56378720.000000, 1784.000000, 8242.000000, 8188.000000, 8188.000000
2798, 56378880.000000, 1787.000000, 8262.000000, 8187.000000, 8195.000000
2799, 56379040.000000, 1773.000000, 8273.000000, 8186.000000, 8203.000000
2800, 56379200.000000, 1736.000000, 8297.000000, 8196.000000, 8219.000000
2801, 56379360.000000, 1665.500000, 8310.000000, 8204.000000, 8234.000000
2802, 56379520.000000, 1575.000000, 8326.000000, 8208.000000, 8246.000000
2803, 56379680.000000, 1477.000000, 8330.000000, 8211.000000, 8254.000000
2804, 56379840.000000, 1393.000000, 8307.000000, 8205.000000, 8235.000000
2805, 56380000.000000, 1326.500000, 8261.000000, 8188.000000, 8205.000000
2806, 56380160.000000, 1263.000000, 8209.000000, 8178.000000, 8167.000000
2807, 56380320.000000, 1218.000000, 8198.000000, 8175.000000, 8156.000000
2808, 56380480.000000, 1188.000000, 8184.000000, 8169.000000, 8141.000000
2809, 56380640.000000, 1170.000000, 8175.000000, 8172.000000, 8140.000000
2810, 56380800.000000, 1146.000000, 8179.000000, 8175.000000, 8148.000000
2811, 56380960.000000, 1140.000000, 8183.000000, 8185.000000, 8158.000000
2812, 56381120.000000, 1181.000000, 8175.000000, 8176.000000, 8140.000000
2813, 56381280.000000, 1251.500000, 8179.000000, 8172.000000, 8145.000000
2814, 56381440.000000, 1317.000000, 8186.000000, 8174.000000, 8145.000000
2815, 56381600.000000, 1362.500000, 8178.000000, 8180.000000, 8142.000000
2816, 56381760.000000, 1418.000000, 8166.000000, 8173.000000, 8135.000000
2817, 56381920.000000, 1521.000000, 8170.000000, 8185.000000, 8156.000000
2818, 56382080.000000, 1705.000000, 8167.000000, 8191.000000, 8168.000000
2819, 56382240.000000, 1966.000000, 8177.000000, 8190.000000, 8169.000000
2820, 56382400.000000, 2263.000000, 8158.000000, 8177.000000, 8138.000000
2821, 56382560.000000, 2516.500000, 8141.000000, 8169.000000, 8114.000000
2822, 56382720.000000, 2685.000000, 8137.000000, 8180.000000, 8125.000000
2823, 56382880.000000, 2746.500000, 8120.000000, 8175.000000, 8112.000000
2824, 56383040.000000, 2742.000000, 8120.000000, 8183.000000, 8120.000000
2825, 56383200.000000, 2705.000000, 8149.000000, 8229.000000, 8188.000000
2826, 56383360.000000, 2658.000000, 8469.000000, 8011.000000, 8129.000000
2827, 56383520.000000, 2595.500000, 8182.000000, 7954.000000, 7919.000000
2828, 56383680.000000, 2520.000000, 8126.000000, 8162.000000, 8099.000000
2829, 56383840.000000, 2447.000000, 8144.000000, 8212.000000, 8167.000000
2830, 56384000.000000, 2400.000000, 8131.000000, 8228.000000, 8171.000000
2831, 56384160.000000, 2379.000000, 8138.000000, 8231.000000, 8182.000000
2832, 56384320.000000, 2361.000000, 8140.000000, 8226.000000, 8177.000000
2833, 56384480.000000, 2329.000000, 8155.000000, 8231.000000, 8188.000000
2834, 56384640.000000, 2294.000000, 8165.000000, 8236.000000, 8197.000000
2835, 56384800.000000, 2279.500000, 8184.000000, 8240.000000, 8214.000000
2836, 56384960.000000, 2291.000000, 8211.000000, 8250.000000, 8232.000000
2837, 56385120.000000, 2295.500000, 8219.000000, 8249.000000, 8236.000000
2838, 56385280.000000, 2264.000000, 8219.000000, 8249.000000, 8242.000000
2839, 56385440.000000, 2196.000000, 8200.000000, 8241.000000, 8234.000000
2840, 56385600.000000, 2120.000000, 8158.000000, 8225.000000, 8200.000000
2841, 56385760.000000, 2069.000000, 8112.000000, 8202.000000, 8166.000000
2842, 56385920.000000, 2040.000000, 8111.000000, 8199.000000, 8162.000000
2843, 56386080.000000, 2027.500000, 8106.000000, 8185.000000, 8149.000000
2844, 56386240.000000, 2014.000000, 8109.000000, 8188.000000, 8158.000000
2845, 56386400.000000, 1978.000000, 8109.000000, 8189.000000, 8161.000000
2846, 56386560.000000, 1932.000000, 8127.000000, 8185.000000, 8163.000000
2847, 56386720.000000, 1880.500000, 8118.000000, 8183.000000, 8165.000000
2848, 56386880.000000, 1825.000000, 8122.000000, 8186.000000, 8165.000000
2849, 56387040.000000, 1776.500000, 8119.000000, 8194.000000, 8165.000000
2850, 56387200.000000, 1732.000000, 8135.000000, 8192.000000, 8177.000000
2851, 56387360.000000, 1684.000000, 8133.000000, 8196.000000, 8188.000000
2852, 56387520.000000, 1644.000000, 8150.000000, 8199.000000, 8200.000000
2853, 56387680.000000, 1666.000000, 8150.000000, 8196.000000, 8195.000000
2854, 56387840.000000, 1770.000000, 8129.000000, 8190.000000, 8165.000000
2855, 56388000.000000, 1942.000000, 8126.000000, 8188.000000, 8165.000000
2856, 56388160.000000, 2106.000000, 8133.000000, 8183.000000, 8157.000000
2857, 56388320.000000, 2207.500000, 8141.000000, 8183.000000, 8162.000000
2858, 56388480.000000, 2232.000000, 8135.000000, 8206.000000, 8177.000000
2859, 56388640.000000, 2216.000000, 8295.000000, 8215.000000, 8273.000000
2860, 56388800.000000, 2162.000000, 8455.000000, 7942.000000, 8074.000000
2861, 56388960.000000, 2080.500000, 8113.000000, 8029.000000, 7990.000000
2862, 56389120.000000, 1993.000000, 8152.000000, 8187.000000, 8168.000000
2863, 56389280.000000, 1903.000000, 8148.000000, 8217.000000, 8193.000000
2864, 56389440.000000, 1823.000000, 8159.000000, 8226.000000, 8209.000000
2865, 56389600.000000, 1765.500000, 8156.000000, 8227.000000, 8206.000000
2866, 56389760.000000, 1734.000000, 8172.000000, 8230.000000, 8220.000000
2867, 56389920.000000, 1742.500000, 8182.000000, 8224.000000, 8213.000000
2868, 56390080.000000, 1775.000000, 8198.000000, 8222.000000, 8223.000000
2869, 56390240.000000, 1813.500000, 8229.000000, 8228.000000, 8234.000000
2870, 56390400.000000, 1827.000000, 8262.000000, 8237.000000, 8257.000000
2871, 56390560.000000, 1796.500000, 8269.000000, 8242.000000, 8266.000000
2872, 56390720.000000, 1737.000000, 8273.000000, 8232.000000, 8261.000000
2873, 56390880.000000, 1676.000000, 8255.000000, 8215.000000, 8240.000000
2874, 56391040.000000, 1619.000000, 8222.000000, 8192.000000, 8203.000000
2875, 56391200.000000, 1555.000000, 8209.000000, 8177.000000, 8177.000000
2876, 56391360.000000, 1497.000000, 8208.000000, 8175.000000, 8173.000000
2877, 56391520.000000, 1474.500000, 8208.000000, 8168.000000, 8162.000000
2878, 56391680.000000, 1499.000000, 8219.000000, 8170.000000, 8167.000000
2879, 56391840.000000, 1552.000000, 8219.000000, 8166.000000, 8169.000000
2880, 56392000.000000, 1596.000000, 8224.000000, 8172.000000, 8176.000000
2881, 56392160.000000, 1616.000000, 8226.000000, 8172.000000, 8174.000000
2882, 56392320.000000, 1631.000000, 8219.000000, 8173.000000, 8180.000000
2883, 56392480.000000, 1665.500000, 8216.000000, 8178.000000, 8177.000000
2884, 56392640.000000, 1728.000000, 8211.000000, 8179.000000, 8179.000000
2885, 56392800.000000, 1804.500000, 8212.000000, 8183.000000, 8183.000000
2886, 56392960.000000, 1907.000000, 8202.000000, 8179.000000, 8175.000000
2887, 56393120.000000, 2078.500000, 8208.000000, 8185.000000, 8181.000000
2888, 56393280.000000, 2325.000000, 8196.000000, 8178.000000, 8168.000000
2889, 56393440.000000, 2618.500000, 8206.000000, 8193.000000, 8195.000000
2890, 56393600.000000, 2872.000000, 8206.000000, 8203.000000, 8213.000000
2891, 56393760.000000, 3039.000000, 8208.000000, 8198.000000, 8210.000000
2892, 56393920.000000, 3129.000000, 8201.000000, 8194.000000, 8197.000000
2893, 56394080.000000, 3155.000000, 8189.000000, 8186.000000, 8173.000000
2894, 56394240.000000, 3136.000000, 8178.000000, 8179.000000, 8159.000000
2895, 56394400.000000, 3079.500000, 8180.000000, 8183.000000, 8164.000000
2896, 56394560.000000, 3010.000000, 8177.000000, 8191.000000, 8176.000000
2897, 56394720.000000, 2939.000000, 8181.000000, 8242.000000, 8234.000000
2898, 56394880.000000, 2869.000000, 8524.000000, 7989.000000, 8147.000000
2899, 56395040.000000, 2808.000000, 8283.000000, 7940.000000, 7960.000000
2900, 56395200.000000, 2766.000000, 8164.000000, 8171.000000, 8148.000000
2901, 56395360.000000, 2755.000000, 8157.000000, 8229.000000, 8203.000000
2902, 56395520.000000, 2768.000000, 8149.000000, 8236.000000, 8205.000000
2903, 56395680.000000, 2774.000000, 8147.000000, 8240.000000, 8215.000000
2904, 56395840.000000, 2758.000000, 8157.000000, 8245.000000, 8221.000000
2905, 56396000.000000, 2704.500000, 8164.000000, 8246.000000, 8225.000000
2906, 56396160.000000, 2625.000000, 8176.000000, 8254.000000, 8239.000000
2907, 56396320.000000, 2536.000000, 8190.000000, 8264.000000, 8262.000000
2908, 56396480.000000, 2451.000000, 8210.000000, 8275.000000, 8274.000000
2909, 56396640.000000, 2384.500000, 8223.000000, 8281.000000, 8293.000000
2910, 56396800.000000, 2326.000000, 8221.000000, 8288.000000, 8302.000000
2911, 56396960.000000, 2287.500000, 8207.000000, 8274.000000, 8285.000000
2912, 56397120.000000, 2269.000000, 8162.000000, 8241.000000, 8234.000000
2913, 56397280.000000, 2268.500000, 8132.000000, 8218.000000, 8195.000000
2914, 56397440.000000, 2284.000000, 8110.000000, 8207.000000, 8172.000000
2915, 56397600.000000, 2314.000000, 8111.000000, 8210.000000, 8177.000000
2916, 56397760.000000, 2338.000000, 8112.000000, 8212.000000, 8186.000000
2917, 56397920.000000, 2340.500000, 8111.000000, 8203.000000, 8176.000000
2918, 56398080.000000, 2322.000000, 8106.000000, 8196.000000, 8174.000000
2919, 56398240.000000, 2300.000000, 8110.000000, 8196.000000, 8179.000000
2920, 56398400.000000, 2276.000000, 8110.000000, 8194.000000, 8177.000000
2921, 56398560.000000, 2218.500000, 8115.000000, 8196.000000, 8186.000000
2922, 56398720.000000, 2121.000000, 8116.000000, 8187.000000, 8174.000000
2923, 56398880.000000, 2020.000000, 8103.000000, 8185.000000, 8167.000000
2924, 56399040.000000, 1998.000000, 8112.000000, 8182.000000, 8170.000000
2925, 56399200.000000, 2125.000000, 8109.000000, 8185.000000, 8171.000000
2926, 56399360.000000, 2359.000000, 8109.000000, 8184.000000, 8170.000000
2927, 56399520.000000, 2607.000000, 8113.000000, 8186.000000, 8167.000000
2928, 56399680.000000, 2790.000000, 8117.000000, 8183.000000, 8162.000000
2929, 56399840.000000, 2870.500000, 8121.000000, 8185.000000, 8167.000000
2930, 56400000.000000, 2856.000000, 8125.000000, 8187.000000, 8168.000000
2931, 56400160.000000, 2768.000000, 8124.000000, 8190.000000, 8168.000000
2932, 56400320.000000, 2638.000000, 8126.000000, 8191.000000, 8172.000000
2933, 56400480.000000, 2485.000000, 8127.000000, 8185.000000, 8165.000000
2934, 56400640.000000, 2321.000000, 8139.000000, 8195.000000, 8181.000000
2935, 56400800.000000, 2153.500000, 8145.000000, 8204.000000, 8198.000000
2936, 56400960.000000, 2003.000000, 8153.000000, 8204.000000, 8209.000000
2937, 56401120.000000, 1898.500000, 8152.000000, 8190.000000, 8185.000000
2938, 56401280.000000, 1831.000000, 8142.000000, 8182.000000, 8164.000000
2939, 56401440.000000, 1781.000000, 8143.000000, 8182.000000, 8159.000000
2940, 56401600.000000, 1718.000000, 8145.000000, 8182.000000, 8164.000000
2941, 56401760.000000, 1633.000000, 8150.000000, 8182.000000, 8165.000000
2942, 56401920.000000, 1547.000000, 8137.000000, 8238.000000, 8223.000000
2943, 56402080.000000, 1485.500000, 8516.000000, 8010.000000, 8175.000000
2944, 56402240.000000, 1457.000000, 8481.000000, 7803.000000, 7911.000000
2945, 56402400.000000, 1465.500000, 8219.000000, 8127.000000, 8136.000000
2946, 56402560.000000, 1505.000000, 8229.000000, 8190.000000, 8202.000000
2947, 56402720.000000, 1582.500000, 8241.000000, 8192.000000, 8212.000000
2948, 56402880.000000, 1718.000000, 8268.000000, 8187.000000, 8213.000000
2949, 56403040.000000, 1897.500000, 8303.000000, 8191.000000, 8234.000000
2950, 56403200.000000, 2050.000000, 8315.000000, 8190.000000, 8241.000000
2951, 56403360.000000, 2087.500000, 8330.000000, 8195.000000, 8250.000000
2952, 56403520.000000, 2048.000000, 8341.000000, 8201.000000, 8257.000000
2953, 56403680.000000, 1997.500000, 8351.000000, 8214.000000, 8277.000000
2954, 56403840.000000, 1967.000000, 8379.000000, 8225.000000, 8303.000000
2955, 56404000.000000, 1923.500000, 8378.000000, 8235.000000, 8320.000000
2956, 56404160.000000, 1852.000000, 8356.000000, 8225.000000, 8305.000000
2957, 56404320.000000, 1752.500000, 8325.000000, 8197.000000, 8265.000000
2958, 56404480.000000, 1647.000000, 8271.000000, 8175.000000, 8215.000000
2959, 56404640.000000, 1531.500000, 8233.000000, 8163.000000, 8183.000000
2960, 56404800.000000, 1411.000000, 8224.000000, 8169.000000, 8183.000000
2961, 56404960.000000, 1300.500000, 8216.000000, 8170.000000, 8183.000000
2962, 56405120.000000, 1203.000000, 8221.000000, 8176.000000, 8190.000000
2963, 56405280.000000, 1121.500000, 8217.000000, 8172.000000, 8184.000000
2964, 56405440.000000, 1038.000000, 8210.000000, 8174.000000, 8183.000000
2965, 56405600.000000, 983.500000, 8211.000000, 8181.000000, 8187.000000
2966, 56405760.000000, 976.000000, 8201.000000, 8178.000000, 8181.000000
2967, 56405920.000000, 1025.000000, 8198.000000, 8181.000000, 8186.000000
2968, 56406080.000000, 1115.000000, 8192.000000, 8178.000000, 8177.000000
2969, 56406240.000000, 1286.500000, 8183.000000, 8177.000000, 8172.000000
2970, 56406400.000000, 1588.000000, 8183.000000, 8182.000000, 8177.000000
2971, 56406560.000000, 1979.000000, 8176.000000, 8182.000000, 8177.000000
2972, 56406720.000000, 2350.000000, 8172.000000, 8180.000000, 8172.000000
2973, 56406880.000000, 2610.500000, 8165.000000, 8183.000000, 8174.000000
2974, 56407040.000000, 2778.000000, 8161.000000, 8185.000000, 8168.000000
2975, 56407200.000000, 2879.000000, 8157.000000, 8186.000000, 8170.000000
2976, 56407360.000000, 2948.000000, 8147.000000, 8195.000000, 8176.000000
2977, 56407520.000000, 2987.500000, 8134.000000, 8197.000000, 8176.000000
2978, 56407680.000000, 3017.000000, 8130.000000, 8199.000000, 8175.000000
2979, 56407840.000000, 3057.500000, 8104.000000, 8202.000000, 8171.000000
2980, 56408000.000000, 3088.000000, 8114.000000, 8212.000000, 8185.000000
2981, 56408160.000000, 3089.500000, 8111.000000, 8213.000000, 8178.000000
2982, 56408320.000000, 3075.000000, 8130.000000, 8222.000000, 8204.000000
2983, 56408480.000000, 3094.500000, 8129.000000, 8221.000000, 8202.000000
2984, 56408640.000000, 3182.000000, 8143.000000, 8224.000000, 8219.000000
2985, 56408800.000000, 3336.000000, 8153.000000, 8213.000000, 8202.000000
2986, 56408960.000000, 3477.000000, 8134.000000, 8205.000000, 8176.000000
2987, 56409120.000000, 3548.500000, 8135.000000, 8194.000000, 8159.000000
2988, 56409280.000000, 3527.000000, 8132.000000, 8199.000000, 8168.000000
2989, 56409440.000000, 3429.500000, 8121.000000, 8201.000000, 8167.000000
2990, 56409600.000000, 3325.000000, 8133.000000, 8247.000000, 8231.000000
2991, 56409760.000000, 3272.500000, 8540.000000, 7938.000000, 8121.000000
2992, 56409920.000000, 3264.000000, 8333.000000, 7895.000000, 7950.000000
2993, 56410080.000000, 3254.500000, 8126.000000, 8174.000000, 8169.000000
2994, 56410240.000000, 3225.000000, 8117.000000, 8223.000000, 8216.000000
2995, 56410400.000000, 3179.500000, 8118.000000, 8233.000000, 8227.000000
2996, 56410560.000000, 3111.000000, 8113.000000, 8237.000000, 8230.000000
2997, 56410720.000000, 3034.000000, 8123.000000, 8238.000000, 8237.000000
2998, 56410880.000000, 2959.000000, 8129.000000, 8234.000000, 8227.000000
2999, 56411040.000000, 2894.000000, 8150.000000, 8245.000000, 8250.000000
3000, 56411200.000000, 2831.000000, 8170.000000, 8257.000000, 8269.000000
3001, 56411360.000000, 2753.500000, 8186.000000, 8267.000000, 8290.000000
3002, 56411520.000000, 2640.000000, 8207.000000, 8277.000000, 8306.000000
3003, 56411680.000000, 2504.000000, 8220.000000, 8280.000000, 8320.000000
3004, 56411840.000000, 2377.000000, 8216.000000, 8259.000000, 8298.000000
3005, 56412000.000000, 2253.500000, 8181.000000, 8244.000000, 8266.000000
3006, 56412160.000000, 2120.000000, 8134.000000, 8219.000000, 8214.000000
3007, 56412320.000000, 1967.000000, 8103.000000, 8205.000000, 8189.000000
3008, 56412480.000000, 1804.000000, 8102.000000, 8199.000000, 8176.000000
3009, 56412640.000000, 1625.000000, 8109.000000, 8201.000000, 8181.000000
3010, 56412800.000000, 1444.000000, 8114.000000, 8198.000000, 8181.000000
3011, 56412960.000000, 1294.500000, 8118.000000, 8201.000000, 8185.000000
3012, 56413120.000000, 1168.000000, 8121.000000, 8198.000000, 8180.000000
3013, 56413280.000000, 1036.000000, 8131.000000, 8195.000000, 8186.000000
3014, 56413440.000000, 889.000000, 8148.000000, 8196.000000, 8194.000000
3015, 56413600.000000, 737.000000, 8173.000000, 8190.000000, 8196.000000
3016, 56413760.000000, 624.000000, 8184.000000, 8184.000000, 8198.000000
3017, 56413920.000000, 611.500000, 8195.000000, 8173.000000, 8188.000000
3018, 56414080.000000, 712.000000, 8215.000000, 8168.000000, 8190.000000
3019, 56414240.000000, 895.000000, 8235.000000, 8161.000000, 8191.000000
3020, 56414400.000000, 1119.000000, 8247.000000, 8155.000000, 8189.000000
3021, 56414560.000000, 1329.000000, 8256.000000, 8154.000000, 8192.000000
3022, 56414720.000000, 1485.000000, 8273.000000, 8154.000000, 8201.000000
3023, 56414880.000000, 1553.500000, 8276.000000, 8148.000000, 8191.000000
3024, 56415040.000000, 1559.000000, 8279.000000, 8147.000000, 8192.000000
3025, 56415200.000000, 1517.500000, 8278.000000, 8149.000000, 8197.000000
3026, 56415360.000000, 1442.000000, 8288.000000, 8154.000000, 8205.000000
3027, 56415520.000000, 1353.500000, 8276.000000, 8155.000000, 8204.000000
3028, 56415680.000000, 1269.000000, 8278.000000, 8158.000000, 8206.000000
3029, 56415840.000000, 1195.500000, 8265.000000, 8162.000000, 8210.000000
3030, 56416000.000000, 1122.000000, 8278.000000, 8178.000000, 8236.000000
3031, 56416160.000000, 1053.000000, 8275.000000, 8188.000000, 8250.000000
3032, 56416320.000000, 1027.000000, 8275.000000, 8187.000000, 8253.000000
3033, 56416480.000000, 1077.000000, 8273.000000, 8182.000000, 8233.000000
3034, 56416640.000000, 1190.000000, 8241.000000, 8175.000000, 8207.000000
3035, 56416800.000000, 1334.500000, 8232.000000, 8171.000000, 8201.000000
3036, 56416960.000000, 1488.000000, 8238.000000, 8178.000000, 8206.000000
3037, 56417120.000000, 1622.500000, 8224.000000, 8183.000000, 8205.000000
3038, 56417280.000000, 1733.000000, 8237.000000, 8223.000000, 8258.000000
3039, 56417440.000000, 1801.000000, 8656.000000, 7925.000000, 8157.000000
3040, 56417600.000000, 1823.000000, 8396.000000, 7916.000000, 7993.000000
3041, 56417760.000000, 1824.000000, 8220.000000, 8181.000000, 8205.000000
3042, 56417920.000000, 1854.000000, 8196.000000, 8228.000000, 8240.000000
3043, 56418080.000000, 1934.000000, 8186.000000, 8232.000000, 8239.000000
3044, 56418240.000000, 2042.000000, 8178.000000, 8241.000000, 8251.000000
3045, 56418400.000000, 2154.000000, 8161.000000, 8251.000000, 8253.000000
3046, 56418560.000000, 2271.000000, 8154.000000, 8262.000000, 8268.000000
3047, 56418720.000000, 2380.000000, 8156.000000, 8268.000000, 8273.000000
3048, 56418880.000000, 2481.000000, 8163.000000, 8276.000000, 8286.000000
3049, 56419040.000000, 2547.500000, 8195.000000, 8280.000000, 8303.000000
3050, 56419200.000000, 2601.000000, 8200.000000, 8294.000000, 8328.000000
3051, 56419360.000000, 2649.000000, 8211.000000, 8295.000000, 8333.000000
3052, 56419520.000000, 2699.000000, 8215.000000, 8287.000000, 8327.000000
3053, 56419680.000000, 2727.000000, 8165.000000, 8254.000000, 8269.000000
3054, 56419840.000000, 2727.000000, 8127.000000, 8237.000000, 8235.000000
3055, 56420000.000000, 2710.500000, 8098.000000, 8227.000000, 8206.000000
3056, 56420160.000000, 2702.000000, 8096.000000, 8222.000000, 8199.000000
3057, 56420320.000000, 2706.500000, 8098.000000, 8220.000000, 8197.000000
3058, 56420480.000000, 2723.000000, 8109.000000, 8219.000000, 8199.000000
3059, 56420640.000000, 2753.000000, 8112.000000, 8218.000000, 8200.000000
3060, 56420800.000000, 2763.000000, 8120.000000, 8219.000000, 8206.000000
3061, 56420960.000000, 2725.000000, 8134.000000, 8219.000000, 8208.000000
3062, 56421120.000000, 2670.000000, 8141.000000, 8213.000000, 8208.000000
3063, 56421280.000000, 2617.000000, 8135.000000, 8206.000000, 8197.000000
3064, 56421440.000000, 2662.000000, 8151.000000, 8205.000000, 8213.000000
3065, 56421600.000000, 2836.500000, 8146.000000, 8197.000000, 8203.000000
3066, 56421760.000000, 3086.000000, 8148.000000, 8198.000000, 8206.000000
3067, 56421920.000000, 3313.500000, 8146.000000, 8195.000000, 8203.000000
3068, 56422080.000000, 3463.000000, 8150.000000, 8190.000000, 8199.000000
3069, 56422240.000000, 3532.000000, 8153.000000, 8194.000000, 8209.000000
3070, 56422400.000000, 3544.000000, 8165.000000, 8192.000000, 8209.000000
3071, 56422560.000000, 3505.000000, 8165.000000, 8193.000000, 8210.000000
3072, 56422720.000000, 3431.000000, 8163.000000, 8196.000000, 8218.000000
3073, 56422880.000000, 3324.500000, 8162.000000, 8196.000000, 8213.000000
3074, 56423040.000000, 3187.000000, 8161.000000, 8198.000000, 8214.000000
3075, 56423200.000000, 3020.500000, 8170.000000, 8202.000000, 8222.000000
3076, 56423360.000000, 2837.000000, 8168.000000, 8203.000000, 8220.000000
3077, 56423520.000000, 2666.000000, 8166.000000, 8202.000000, 8218.000000
3078, 56423680.000000, 2512.000000, 8174.000000, 8212.000000, 8239.000000
3079, 56423840.000000, 2376.000000, 8180.000000, 8219.000000, 8252.000000
3080, 56424000.000000, 2261.000000, 8184.000000, 8222.000000, 8258.000000
3081, 56424160.000000, 2167.000000, 8178.000000, 8210.000000, 8236.000000
3082, 56424320.000000, 2065.000000, 8171.000000, 8202.000000, 8219.000000
3083, 56424480.000000, 1941.500000, 8162.000000, 8199.000000, 8210.000000
3084, 56424640.000000, 1791.000000, 8164.000000, 8195.000000, 8203.000000
3085, 56424800.000000, 1634.000000, 8160.000000, 8204.000000, 8214.000000
3086, 56424960.000000, 1485.000000, 8148.000000, 8259.000000, 8273.000000
3087, 56425120.000000, 1351.000000, 8570.000000, 8002.000000, 8213.000000
3088, 56425280.000000, 1239.000000, 8428.000000, 7906.000000, 8012.000000
3089, 56425440.000000, 1143.000000, 8184.000000, 8186.000000, 8208.000000
3090, 56425600.000000, 1056.000000, 8175.000000, 8237.000000, 8257.000000
3091, 56425760.000000, 983.000000, 8181.000000, 8239.000000, 8261.000000
3092, 56425920.000000, 937.000000, 8203.000000, 8238.000000, 8268.000000
3093, 56426080.000000, 928.500000, 8223.000000, 8233.000000, 8273.000000
3094, 56426240.000000, 943.000000, 8251.000000, 8232.000000, 8286.000000
3095, 56426400.000000, 951.000000, 8279.000000, 8235.000000, 8300.000000
3096, 56426560.000000, 947.000000, 8294.000000, 8239.000000, 8312.000000
3097, 56426720.000000, 925.000000, 8324.000000, 8246.000000, 8333.000000
3098, 56426880.000000, 905.000000, 8352.000000, 8247.000000, 8345.000000
3099, 56427040.000000, 901.500000, 8363.000000, 8256.000000, 8365.000000
3100, 56427200.000000, 925.000000, 8363.000000, 8253.000000, 8364.000000
3101, 56427360.000000, 983.500000, 8313.000000, 8235.000000, 8325.000000
3102, 56427520.000000, 1077.000000, 8256.000000, 8210.000000, 8268.000000
3103, 56427680.000000, 1175.000000, 8227.000000, 8198.000000, 8242.000000
3104, 56427840.000000, 1221.000000, 8207.000000, 8195.000000, 8224.000000
3105, 56428000.000000, 1206.500000, 8205.000000, 8198.000000, 8226.000000
3106, 56428160.000000, 1165.000000, 8204.000000, 8201.000000, 8230.000000
3107, 56428320.000000, 1134.000000, 8207.000000, 8196.000000, 8227.000000
3108, 56428480.000000, 1104.000000, 8205.000000, 8201.000000, 8227.000000
3109, 56428640.000000, 1051.000000, 8208.000000, 8199.000000, 8223.000000
3110, 56428800.000000, 974.000000, 8201.000000, 8204.000000, 8225.000000
3111, 56428960.000000, 946.000000, 8211.000000, 8200.000000, 8226.000000
3112, 56429120.000000, 1045.000000, 8201.000000, 8194.000000, 8215.000000
3113, 56429280.000000, 1298.000000, 8195.000000, 8194.000000, 8209.000000
3114, 56429440.000000, 1623.000000, 8186.000000, 8197.000000, 8206.000000
3115, 56429600.000000, 1937.000000, 8186.000000, 8198.000000, 8207.000000
3116, 56429760.000000, 2188.000000, 8169.000000, 8201.000000, 8203.000000
3117, 56429920.000000, 2343.500000, 8170.000000, 8201.000000, 8205.000000
3118, 56430080.000000, 2418.000000, 8172.000000, 8195.000000, 8195.000000
3119, 56430240.000000, 2425.500000, 8163.000000, 8199.000000, 8195.000000
3120, 56430400.000000, 2427.000000, 8161.000000, 8204.000000, 8201.000000
3121, 56430560.000000, 2444.500000, 8149.000000, 8208.000000, 8201.000000
3122, 56430720.000000, 2469.000000, 8133.000000, 8210.000000, 8198.000000
3123, 56430880.000000, 2480.500000, 8135.000000, 8212.000000, 8203.000000
3124, 56431040.000000, 2461.000000, 8125.000000, 8216.000000, 8201.000000
3125, 56431200.000000, 2414.500000, 8116.000000, 8220.000000, 8205.000000
3126, 56431360.000000, 2364.000000, 8126.000000, 8228.000000, 8221.000000
3127, 56431520.000000, 2318.000000, 8133.000000, 8230.000000, 8232.000000
3128, 56431680.000000, 2284.000000, 8140.000000, 8226.000000, 8232.000000
3129, 56431840.000000, 2258.500000, 8146.000000, 8216.000000, 8211.000000
3130, 56432000.000000, 2228.000000, 8142.000000, 8205.000000, 8191.000000
3131, 56432160.000000, 2195.500000, 8135.000000, 8200.000000, 8183.000000
3132, 56432320.000000, 2174.000000, 8125.000000, 8199.000000, 8174.000000
3133, 56432480.000000, 2180.500000, 8126.000000, 8208.000000, 8183.000000
3134, 56432640.000000, 2196.000000, 8168.000000, 8246.000000, 8247.000000
3135, 56432800.000000, 2196.000000, 8587.000000, 7927.000000, 8129.000000
3136, 56432960.000000, 2181.000000, 8244.000000, 7991.000000, 8001.000000
3137, 56433120.000000, 2163.000000, 8146.000000, 8200.000000, 8195.000000
3138, 56433280.000000, 2165.000000, 8136.000000, 8227.000000, 8209.000000
3139, 56433440.000000, 2192.000000, 8134.000000, 8232.000000, 8215.000000
3140, 56433600.000000, 2211.000000, 8140.000000, 8238.000000, 8225.000000
3141, 56433760.000000, 2209.000000, 8149.000000, 8235.000000, 8224.000000
3142, 56433920.000000, 2203.000000, 8161.000000, 8233.000000, 8228.000000
3143, 56434080.000000, 2200.000000, 8176.000000, 8240.000000, 8244.000000
3144, 56434240.000000, 2183.000000, 8207.000000, 8249.000000, 8268.000000
3145, 56434400.000000, 2147.500000, 8227.000000, 8252.000000, 8278.000000
3146, 56434560.000000, 2106.000000, 8253.000000, 8259.000000, 8301.000000
3147, 56434720.000000, 2074.000000, 8262.000000, 8261.000000, 8307.000000
3148, 56434880.000000, 2047.000000, 8249.000000, 8256.000000, 8299.000000
3149, 56435040.000000, 2013.000000, 8211.000000, 8237.000000, 8263.000000
3150, 56435200.000000, 1958.000000, 8154.000000, 8220.000000, 8220.000000
3151, 56435360.000000, 1874.000000, 8129.000000, 8207.000000, 8192.000000
3152, 56435520.000000, 1763.000000, 8126.000000, 8203.000000, 8184.000000
3153, 56435680.000000, 1636.000000, 8119.000000, 8203.000000, 8180.000000
3154, 56435840.000000, 1512.000000, 8132.000000, 8203.000000, 8182.000000
3155, 56436000.000000, 1417.500000, 8133.000000, 8204.000000, 8184.000000
3156, 56436160.000000, 1361.000000, 8139.000000, 8204.000000, 8190.000000
3157, 56436320.000000, 1348.500000, 8131.000000, 8206.000000, 8189.000000
3158, 56436480.000000, 1355.000000, 8133.000000, 8204.000000, 8184.000000
3159, 56436640.000000, 1379.000000, 8130.000000, 8204.000000, 8186.000000
3160, 56436800.000000, 1452.000000, 8133.000000, 8205.000000, 8189.000000
3161, 56436960.000000, 1623.000000, 8132.000000, 8200.000000, 8183.000000
3162, 56437120.000000, 1865.000000, 8150.000000, 8195.000000, 8184.000000
3163, 56437280.000000, 2087.500000, 8161.000000, 8189.000000, 8178.000000
3164, 56437440.000000, 2218.000000, 8180.000000, 8182.000000, 8177.000000
3165, 56437600.000000, 2243.500000, 8204.000000, 8177.000000, 8186.000000
3166, 56437760.000000, 2214.000000, 8218.000000, 8170.000000, 8178.000000
3167, 56437920.000000, 2168.000000, 8241.000000, 8162.000000, 8178.000000
3168, 56438080.000000, 2124.000000, 8267.000000, 8160.000000, 8187.000000
3169, 56438240.000000, 2071.500000, 8266.000000, 8161.000000, 8189.000000
3170, 56438400.000000, 1996.000000, 8277.000000, 8156.000000, 8184.000000
3171, 56438560.000000, 1894.000000, 8279.000000, 8163.000000, 8194.000000
3172, 56438720.000000, 1785.000000, 8275.000000, 8161.000000, 8187.000000
3173, 56438880.000000, 1691.500000, 8275.000000, 8163.000000, 8191.000000
3174, 56439040.000000, 1635.000000, 8270.000000, 8164.000000, 8191.000000
3175, 56439200.000000, 1625.500000, 8264.000000, 8176.000000, 8211.000000
3176, 56439360.000000, 1652.000000, 8269.000000, 8187.000000, 8227.000000
3177, 56439520.000000, 1696.500000, 8260.000000, 8182.000000, 8216.000000
3178, 56439680.000000, 1703.000000, 8256.000000, 8170.000000, 8190.000000
3179, 56439840.000000, 1645.500000, 8246.000000, 8170.000000, 8177.000000
3180, 56440000.000000, 1541.000000, 8229.000000, 8172.000000, 8174.000000
3181, 56440160.000000, 1441.500000, 8221.000000, 8170.000000, 8165.000000
3182, 56440320.000000, 1358.000000, 8212.000000, 8184.000000, 8173.000000
3183, 56440480.000000, 1282.000000, 8284.000000, 8218.000000, 8254.000000
3184, 56440640.000000, 1213.000000, 8664.000000, 7899.000000, 8115.000000
3185, 56440800.000000, 1176.000000, 8262.000000, 8003.000000, 7999.000000
3186, 56440960.000000, 1175.000000, 8207.000000, 8183.000000, 8176.000000
3187, 56441120.000000, 1198.500000, 8198.000000, 8209.000000, 8196.000000
3188, 56441280.000000, 1244.000000, 8187.000000, 8221.000000, 8205.000000
3189, 56441440.000000, 1300.000000, 8176.000000, 8226.000000, 8207.000000
3190, 56441600.000000, 1358.000000, 8170.000000, 8234.000000, 8215.000000
3191, 56441760.000000, 1418.500000, 8164.000000, 8239.000000, 8220.000000
3192, 56441920.000000, 1480.000000, 8183.000000, 8241.000000, 8232.000000
3193, 56442080.000000, 1542.000000, 8208.000000, 8234.000000, 8228.000000
3194, 56442240.000000, 1589.000000, 8227.000000, 8253.000000, 8265.000000
3195, 56442400.000000, 1629.500000, 8249.000000, 8255.000000, 8278.000000
3196, 56442560.000000, 1675.000000, 8242.000000, 8260.000000, 8286.000000
3197, 56442720.000000, 1728.500000, 8224.000000, 8259.000000, 8283.000000
3198, 56442880.000000, 1796.000000, 8167.000000, 8240.000000, 8237.000000
3199, 56443040.000000, 1879.000000, 8105.000000, 8226.000000, 8191.000000
3200, 56443200.000000, 1963.000000, 8080.000000, 8214.000000, 8163.000000
3201, 56443360.000000, 2039.000000, 8083.000000, 8208.000000, 8161.000000
3202, 56443520.000000, 2091.000000, 8076.000000, 8207.000000, 8155.000000
3203, 56443680.000000, 2123.500000, 8090.000000, 8210.000000, 8163.000000
3204, 56443840.000000, 2139.000000, 8092.000000, 8207.000000, 8162.000000
3205, 56444000.000000, 2148.000000, 8101.000000, 8208.000000, 8167.000000
3206, 56444160.000000, 2158.000000, 8106.000000, 8201.000000, 8163.000000
3207, 56444320.000000, 2171.500000, 8119.000000, 8200.000000, 8165.000000
3208, 56444480.000000, 2213.000000, 8121.000000, 8192.000000, 8156.000000
3209, 56444640.000000, 2325.500000, 8122.000000, 8192.000000, 8165.000000
3210, 56444800.000000, 2538.000000, 8129.000000, 8194.000000, 8165.000000
3211, 56444960.000000, 2820.500000, 8123.000000, 8191.000000, 8162.000000
3212, 56445120.000000, 3114.000000, 8121.000000, 8192.000000, 8162.000000
3213, 56445280.000000, 3348.500000, 8121.000000, 8186.000000, 8152.000000
3214, 56445440.000000, 3499.000000, 8127.000000, 8189.000000, 8159.000000
3215, 56445600.000000, 3562.500000, 8124.000000, 8187.000000, 8157.000000
3216, 56445760.000000, 3575.000000, 8130.000000, 8190.000000, 8158.000000
3217, 56445920.000000, 3564.500000, 8135.000000, 8192.000000, 8167.000000
3218, 56446080.000000, 3539.000000, 8131.000000, 8187.000000, 8152.000000
3219, 56446240.000000, 3486.000000, 8134.000000, 8185.000000, 8150.000000
3220, 56446400.000000, 3407.000000, 8137.000000, 8191.000000, 8160.000000
3221, 56446560.000000, 3312.500000, 8133.000000, 8187.000000, 8153.000000
3222, 56446720.000000, 3207.000000, 8135.000000, 8186.000000, 8153.000000
3223, 56446880.000000, 3097.000000, 8141.000000, 8195.000000, 8166.000000
3224, 56447040.000000, 2995.000000, 8139.000000, 8202.000000, 8180.000000
3225, 56447200.000000, 2917.000000, 8142.000000, 8201.000000, 8179.000000
3226, 56447360.000000, 2852.000000, 8136.000000, 8192.000000, 8156.000000
3227, 56447520.000000, 2781.500000, 8123.000000, 8181.000000, 8128.000000
3228, 56447680.000000, 2703.000000, 8122.000000, 8176.000000, 8121.000000
3229, 56447840.000000, 2612.500000, 8125.000000, 8176.000000, 8121.000000
3230, 56448000.000000, 2507.000000, 8122.000000, 8177.000000, 8120.000000
3231, 56448160.000000, 2397.000000, 8176.000000, 8208.000000, 8181.000000
3232, 56448320.000000, 2294.000000, 8597.000000, 7893.000000, 8064.000000
3233, 56448480.000000, 2208.000000, 8291.000000, 7924.000000, 7915.000000
3234, 56448640.000000, 2130.000000, 8197.000000, 8152.000000, 8125.000000
3235, 56448800.000000, 2068.500000, 8194.000000, 8182.000000, 8149.000000
3236, 56448960.000000, 2026.000000, 8217.000000, 8186.000000, 8166.000000
3237, 56449120.000000, 1991.500000, 8238.000000, 8187.000000, 8177.000000
3238, 56449280.000000, 1946.000000, 8260.000000, 8179.000000, 8172.000000
3239, 56449440.000000, 1879.500000, 8274.000000, 8179.000000, 8187.000000
3240, 56449600.000000, 1826.000000, 8292.000000, 8186.000000, 8198.000000
3241, 56449760.000000, 1797.500000, 8311.000000, 8191.000000, 8213.000000
3242, 56449920.000000, 1780.000000, 8331.000000, 8195.000000, 8227.000000
3243, 56450080.000000, 1760.000000, 8354.000000, 8203.000000, 8246.000000
3244, 56450240.000000, 1736.000000, 8365.000000, 8204.000000, 8248.000000
3245, 56450400.000000, 1711.500000, 8344.000000, 8202.000000, 8240.000000
3246, 56450560.000000, 1686.000000, 8287.000000, 8178.000000, 8182.000000
3247, 56450720.000000, 1665.500000, 8219.000000, 8163.000000, 8136.000000
3248, 56450880.000000, 1648.000000, 8189.000000, 8148.000000, 8103.000000
3249, 56451040.000000, 1623.000000, 8188.000000, 8149.000000, 8092.000000
3250, 56451200.000000, 1577.000000, 8177.000000, 8152.000000, 8097.000000
3251, 56451360.000000, 1529.000000, 8169.000000, 8156.000000, 8094.000000
3252, 56451520.000000, 1515.000000, 8174.000000, 8157.000000, 8106.000000
3253, 56451680.000000, 1541.500000, 8165.000000, 8155.000000, 8098.000000
3254, 56451840.000000, 1576.000000, 8170.000000, 8162.000000, 8109.000000
3255, 56452000.000000, 1592.500000, 8174.000000, 8160.000000, 8113.000000
3256, 56452160.000000, 1607.000000, 8169.000000, 8161.000000, 8109.000000
3257, 56452320.000000, 1677.500000, 8168.000000, 8157.000000, 8110.000000
3258, 56452480.000000, 1860.000000, 8176.000000, 8155.000000, 8110.000000
3259, 56452640.000000, 2146.000000, 8170.000000, 8160.000000, 8113.000000
3260, 56452800.000000, 2475.000000, 8156.000000, 8164.000000, 8113.000000
3261, 56452960.000000, 2764.000000, 8163.000000, 8156.000000, 8104.000000
3262, 56453120.000000, 2974.000000, 8160.000000, 8160.000000, 8108.000000
3263, 56453280.000000, 3071.000000, 8154.000000, 8166.000000, 8116.000000
3264, 56453440.000000, 3094.000000, 8146.000000, 8168.000000, 8111.000000
3265, 56453600.000000, 3073.500000, 8145.000000, 8172.000000, 8116.000000
3266, 56453760.000000, 3046.000000, 8136.000000, 8180.000000, 8126.000000
3267, 56453920.000000, 3028.500000, 8142.000000, 8193.000000, 8151.000000
3268, 56454080.000000, 3013.000000, 8152.000000, 8191.000000, 8158.000000
3269, 56454240.000000, 2975.000000, 8152.000000, 8186.000000, 8143.000000
3270, 56454400.000000, 2917.000000, 8136.000000, 8178.000000, 8122.000000
3271, 56454560.000000, 2871.000000, 8123.000000, 8175.000000, 8110.000000
3272, 56454720.000000, 2860.000000, 8121.000000, 8175.000000, 8109.000000
3273, 56454880.000000, 2881.500000, 8130.000000, 8179.000000, 8115.000000
3274, 56455040.000000, 2914.000000, 8101.000000, 8244.000000, 8179.000000
3275, 56455200.000000, 2934.000000, 8463.000000, 8071.000000, 8179.000000
3276, 56455360.000000, 2931.000000, 8416.000000, 7864.000000, 7918.000000
3277, 56455520.000000, 2927.000000, 8124.000000, 8140.000000, 8074.000000
3278, 56455680.000000, 2931.000000, 8127.000000, 8213.000000, 8157.000000
3279, 56455840.000000, 2932.500000, 8120.000000, 8222.000000, 8167.000000
3280, 56456000.000000, 2913.000000, 8118.000000, 8223.000000, 8177.000000
3281, 56456160.000000, 2873.500000, 8116.000000, 8219.000000, 8178.000000
3282, 56456320.000000, 2839.000000, 8121.000000, 8222.000000, 8188.000000
3283, 56456480.000000, 2821.000000, 8135.000000, 8226.000000, 8199.000000
3284, 56456640.000000, 2813.000000, 8145.000000, 8231.000000, 8211.000000
3285, 56456800.000000, 2795.000000, 8170.000000, 8241.000000, 8232.000000
3286, 56456960.000000, 2751.000000, 8192.000000, 8245.000000, 8252.000000
3287, 56457120.000000, 2682.500000, 8213.000000, 8253.000000, 8270.000000
3288, 56457280.000000, 2613.000000, 8216.000000, 8248.000000, 8267.000000
3289, 56457440.000000, 2551.000000, 8176.000000, 8237.000000, 8243.000000
3290, 56457600.000000, 2481.000000, 8120.000000, 8217.000000, 8196.000000
3291, 56457760.000000, 2397.000000, 8090.000000, 8205.000000, 8166.000000
3292, 56457920.000000, 2307.000000, 8087.000000, 8199.000000, 8154.000000
3293, 56458080.000000, 2219.000000, 8085.000000, 8198.000000, 8150.000000
3294, 56458240.000000, 2135.000000, 8091.000000, 8203.000000, 8155.000000
3295, 56458400.000000, 2042.500000, 8093.000000, 8204.000000, 8163.000000
3296, 56458560.000000, 1936.000000, 8100.000000, 8204.000000, 8162.000000
3297, 56458720.000000, 1820.500000, 8111.000000, 8201.000000, 8168.000000
3298, 56458880.000000, 1710.000000, 8115.000000, 8199.000000, 8163.000000
3299, 56459040.000000, 1608.500000, 8118.000000, 8195.000000, 8163.000000
3300, 56459200.000000, 1529.000000, 8118.000000, 8194.000000, 8160.000000
3301, 56459360.000000, 1523.500000, 8123.000000, 8196.000000, 8169.000000
3302, 56459520.000000, 1613.000000, 8124.000000, 8190.000000, 8156.000000
3303, 56459680.000000, 1786.500000, 8134.000000, 8189.000000, 8160.000000
3304, 56459840.000000, 1977.000000, 8140.000000, 8189.000000, 8162.000000
3305, 56460000.000000, 2129.000000, 8144.000000, 8187.000000, 8164.000000
3306, 56460160.000000, 2213.000000, 8153.000000, 8183.000000, 8162.000000
3307, 56460320.000000, 2237.500000, 8167.000000, 8182.000000, 8169.000000
3308, 56460480.000000, 2229.000000, 8193.000000, 8182.000000, 8178.000000
3309, 56460640.000000, 2220.000000, 8213.000000, 8188.000000, 8199.000000
3310, 56460800.000000, 2227.000000, 8235.000000, 8183.000000, 8205.000000
3311, 56460960.000000, 2216.000000, 8230.000000, 8165.000000, 8181.000000
3312, 56461120.000000, 2155.000000, 8238.000000, 8162.000000, 8172.000000
3313, 56461280.000000, 2054.000000, 8233.000000, 8162.000000, 8168.000000
3314, 56461440.000000, 1956.000000, 8224.000000, 8159.000000, 8156.000000
3315, 56461600.000000, 1892.500000, 8229.000000, 8163.000000, 8163.000000
3316, 56461760.000000, 1855.000000, 8195.000000, 8209.000000, 8202.000000
3317, 56461920.000000, 1821.500000, 8440.000000, 8170.000000, 8290.000000
3318, 56462080.000000, 1781.000000, 8618.000000, 7824.000000, 8005.000000
3319, 56462240.000000, 1760.000000, 8201.000000, 8069.000000, 8050.000000
3320, 56462400.000000, 1761.000000, 8210.000000, 8197.000000, 8194.000000
3321, 56462560.000000, 1774.500000, 8210.000000, 8210.000000, 8207.000000
3322, 56462720.000000, 1767.000000, 8204.000000, 8219.000000, 8214.000000
3323, 56462880.000000, 1736.500000, 8211.000000, 8224.000000, 8222.000000
3324, 56463040.000000, 1710.000000, 8204.000000, 8224.000000, 8223.000000
3325, 56463200.000000, 1713.000000, 8230.000000, 8231.000000, 8237.000000
3326, 56463360.000000, 1740.000000, 8226.000000, 8229.000000, 8235.000000
3327, 56463520.000000, 1785.000000, 8248.000000, 8236.000000, 8256.000000
3328, 56463680.000000, 1841.000000, 8273.000000, 8245.000000, 8272.000000
3329, 56463840.000000, 1903.500000, 8298.000000, 8249.000000, 8293.000000
3330, 56464000.000000, 1962.000000, 8293.000000, 8251.000000, 8295.000000
3331, 56464160.000000, 2011.000000, 8259.000000, 8239.000000, 8269.000000
3332, 56464320.000000, 2058.000000, 8199.000000, 8220.000000, 8226.000000
3333, 56464480.000000, 2110.500000, 8165.000000, 8207.000000, 8192.000000
3334, 56464640.000000, 2170.000000, 8144.000000, 8200.000000, 8175.000000
3335, 56464800.000000, 2215.000000, 8132.000000, 8202.000000, 8173.000000
3336, 56464960.000000, 2247.000000, 8125.000000, 8202.000000, 8169.000000
3337, 56465120.000000, 2269.000000, 8115.000000, 8207.000000, 8171.000000
3338, 56465280.000000, 2300.000000, 8118.000000, 8207.000000, 8175.000000
3339, 56465440.000000, 2338.000000, 8124.000000, 8206.000000, 8176.000000
3340, 56465600.000000, 2377.000000, 8120.000000, 8207.000000, 8178.000000
3341, 56465760.000000, 2395.500000, 8130.000000, 8203.000000, 8177.000000
3342, 56465920.000000, 2404.000000, 8124.000000, 8198.000000, 8170.000000
3343, 56466080.000000, 2467.500000, 8127.000000, 8199.000000, 8169.000000
3344, 56466240.000000, 2630.000000, 8124.000000, 8200.000000, 8174.000000
3345, 56466400.000000, 2875.500000, 8132.000000, 8199.000000, 8172.000000
3346, 56466560.000000, 3138.000000, 8120.000000, 8197.000000, 8164.000000
3347, 56466720.000000, 3371.500000, 8122.000000, 8201.000000, 8170.000000
3348, 56466880.000000, 3553.000000, 8127.000000, 8206.000000, 8176.000000
3349, 56467040.000000, 3659.000000, 8124.000000, 8200.000000, 8170.000000
3350, 56467200.000000, 3706.000000, 8112.000000, 8197.000000, 8169.000000
3351, 56467360.000000, 3720.500000, 8117.000000, 8195.000000, 8174.000000
3352, 56467520.000000, 3725.000000, 8119.000000, 8193.000000, 8172.000000
3353, 56467680.000000, 3722.000000, 8119.000000, 8200.000000, 8189.000000
3354, 56467840.000000, 3696.000000, 8120.000000, 8213.000000, 8208.000000
3355, 56468000.000000, 3632.000000, 8133.000000, 8208.000000, 8212.000000
3356, 56468160.000000, 3535.000000, 8126.000000, 8202.000000, 8195.000000
3357, 56468320.000000, 3434.500000, 8117.000000, 8193.000000, 8176.000000
3358, 56468480.000000, 3347.000000, 8121.000000, 8190.000000, 8170.000000
3359, 56468640.000000, 3282.500000, 8114.000000, 8189.000000, 8164.000000
3360, 56468800.000000, 3238.000000, 8120.000000, 8191.000000, 8172.000000
3361, 56468960.000000, 3206.500000, 8094.000000, 8249.000000, 8219.000000
3362, 56469120.000000, 3168.000000, 8469.000000, 8105.000000, 8253.000000
3363, 56469280.000000, 3090.000000, 8461.000000, 7875.000000, 7991.000000
3364, 56469440.000000, 2982.000000, 8130.000000, 8141.000000, 8113.000000
3365, 56469600.000000, 2872.500000, 8129.000000, 8222.000000, 8203.000000
3366, 56469760.000000, 2766.000000, 8128.000000, 8231.000000, 8210.000000
3367, 56469920.000000, 2648.500000, 8136.000000, 8230.000000, 8212.000000
3368, 56470080.000000, 2523.000000, 8148.000000, 8238.000000, 8224.000000
3369, 56470240.000000, 2402.500000, 8162.000000, 8241.000000, 8234.000000
3370, 56470400.000000, 2295.000000, 8171.000000, 8242.000000, 8235.000000
3371, 56470560.000000, 2190.500000, 8190.000000, 8243.000000, 8249.000000
3372, 56470720.000000, 2083.000000, 8208.000000, 8247.000000, 8259.000000
3373, 56470880.000000, 1984.000000, 8247.000000, 8256.000000, 8286.000000
3374, 56471040.000000, 1909.000000, 8264.000000, 8259.000000, 8304.000000
3375, 56471200.000000, 1854.500000, 8273.000000, 8248.000000, 8297.000000
3376, 56471360.000000, 1811.000000, 8265.000000, 8226.000000, 8268.000000
3377, 56471520.000000, 1772.000000, 8223.000000, 8198.000000, 8222.000000
3378, 56471680.000000, 1727.000000, 8222.000000, 8178.000000, 8193.000000
3379, 56471840.000000, 1677.000000, 8227.000000, 8164.000000, 8178.000000
3380, 56472000.000000, 1624.000000, 8248.000000, 8158.000000, 8180.000000
3381, 56472160.000000, 1575.000000, 8269.000000, 8154.000000, 8184.000000
3382, 56472320.000000, 1533.000000, 8276.000000, 8152.000000, 8185.000000
3383, 56472480.000000, 1499.000000, 8285.000000, 8154.000000, 8191.000000
3384, 56472640.000000, 1470.000000, 8296.000000, 8149.000000, 8187.000000
3385, 56472800.000000, 1441.500000, 8307.000000, 8154.000000, 8204.000000
3386, 56472960.000000, 1412.000000, 8296.000000, 8150.000000, 8198.000000
3387, 56473120.000000, 1401.500000, 8292.000000, 8149.000000, 8187.000000
3388, 56473280.000000, 1446.000000, 8284.000000, 8153.000000, 8193.000000
3389, 56473440.000000, 1582.500000, 8275.000000, 8157.000000, 8199.000000
3390, 56473600.000000, 1795.000000, 8269.000000, 8158.000000, 8194.000000
3391, 56473760.000000, 2026.000000, 8264.000000, 8159.000000, 8190.000000
3392, 56473920.000000, 2196.000000, 8251.000000, 8164.000000, 8192.000000
3393, 56474080.000000, 2266.500000, 8246.000000, 8170.000000, 8195.000000
3394, 56474240.000000, 2277.000000, 8235.000000, 8170.000000, 8190.000000
3395, 56474400.000000, 2293.500000, 8231.000000, 8173.000000, 8194.000000
3396, 56474560.000000, 2357.000000, 8229.000000, 8173.000000, 8189.000000
3397, 56474720.000000, 2446.000000, 8222.000000, 8176.000000, 8191.000000
3398, 56474880.000000, 2516.000000, 8206.000000, 8177.000000, 8185.000000
3399, 56475040.000000, 2533.000000, 8216.000000, 8182.000000, 8197.000000
3400, 56475200.000000, 2518.000000, 8216.000000, 8194.000000, 8211.000000
3401, 56475360.000000, 2500.500000, 8214.000000, 8202.000000, 8226.000000
3402, 56475520.000000, 2502.000000, 8218.000000, 8193.000000, 8221.000000
3403, 56475680.000000, 2534.000000, 8220.000000, 8192.000000, 8208.000000
3404, 56475840.000000, 2587.000000, 8201.000000, 8182.000000, 8183.000000
3405, 56476000.000000, 2651.500000, 8187.000000, 8185.000000, 8181.000000
3406, 56476160.000000, 2705.000000, 8180.000000, 8184.000000, 8179.000000
3407, 56476320.000000, 2735.000000, 8156.000000, 8187.000000, 8168.000000
3408, 56476480.000000, 2745.000000, 8123.000000, 8250.000000, 8227.000000
3409, 56476640.000000, 2744.000000, 8490.000000, 8091.000000, 8247.000000
3410, 56476800.000000, 2731.000000, 8475.000000, 7878.000000, 7996.000000
3411, 56476960.000000, 2706.000000, 8155.000000, 8150.000000, 8129.000000
3412, 56477120.000000, 2667.000000, 8144.000000, 8217.000000, 8204.000000
3413, 56477280.000000, 2622.500000, 8126.000000, 8235.000000, 8210.000000
3414, 56477440.000000, 2585.000000, 8131.000000, 8247.000000, 8226.000000
3415, 56477600.000000, 2555.500000, 8126.000000, 8248.000000, 8229.000000
3416, 56477760.000000, 2524.000000, 8151.000000, 8243.000000, 8229.000000
3417, 56477920.000000, 2481.500000, 8156.000000, 8254.000000, 8247.000000
3418, 56478080.000000, 2446.000000, 8169.000000, 8258.000000, 8260.000000
3419, 56478240.000000, 2438.500000, 8194.000000, 8268.000000, 8282.000000
3420, 56478400.000000, 2458.000000, 8209.000000, 8276.000000, 8298.000000
3421, 56478560.000000, 2486.500000, 8236.000000, 8275.000000, 8311.000000
3422, 56478720.000000, 2512.000000, 8228.000000, 8273.000000, 8308.000000
3423, 56478880.000000, 2541.000000, 8190.000000, 8257.000000, 8289.000000
3424, 56479040.000000, 2569.000000, 8140.000000, 8233.000000, 8235.000000
3425, 56479200.000000, 2582.000000, 8101.000000, 8218.000000, 8207.000000
3426, 56479360.000000, 2571.000000, 8096.000000, 8206.000000, 8191.000000
3427, 56479520.000000, 2547.000000, 8090.000000, 8215.000000, 8198.000000
3428, 56479680.000000, 2514.000000, 8090.000000, 8210.000000, 8189.000000
3429, 56479840.000000, 2485.000000, 8107.000000, 8212.000000, 8199.000000
3430, 56480000.000000, 2457.000000, 8119.000000, 8212.000000, 8205.000000
3431, 56480160.000000, 2416.500000, 8124.000000, 8209.000000, 8203.000000
3432, 56480320.000000, 2361.000000, 8124.000000, 8211.000000, 8207.000000
3433, 56480480.000000, 2283.000000, 8132.000000, 8213.000000, 8212.000000
3434, 56480640.000000, 2207.000000, 8133.000000, 8216.000000, 8212.000000
3435, 56480800.000000, 2174.500000, 8125.000000, 8213.000000, 8210.000000
3436, 56480960.000000, 2231.000000, 8129.000000, 8216.000000, 8213.000000
3437, 56481120.000000, 2373.500000, 8126.000000, 8211.000000, 8204.000000
3438, 56481280.000000, 2547.000000, 8127.000000, 8212.000000, 8204.000000
3439, 56481440.000000, 2682.000000, 8136.000000, 8215.000000, 8215.000000
3440, 56481600.000000, 2752.000000, 8135.000000, 8218.000000, 8217.000000
3441, 56481760.000000, 2750.000000, 8136.000000, 8207.000000, 8207.000000
3442, 56481920.000000, 2715.000000, 8136.000000, 8211.000000, 8205.000000
3443, 56482080.000000, 2667.000000, 8143.000000, 8210.000000, 8210.000000
3444, 56482240.000000, 2607.000000, 8148.000000, 8210.000000, 8216.000000
3445, 56482400.000000, 2525.500000, 8156.000000, 8207.000000, 8216.000000
3446, 56482560.000000, 2408.000000, 8176.000000, 8205.000000, 8221.000000
3447, 56482720.000000, 2250.000000, 8182.000000, 8200.000000, 8218.000000
3448, 56482880.000000, 2080.000000, 8190.000000, 8205.000000, 8227.000000
3449, 56483040.000000, 1938.500000, 8218.000000, 8212.000000, 8258.000000
3450, 56483200.000000, 1852.000000, 8249.000000, 8208.000000, 8269.000000
3451, 56483360.000000, 1811.000000, 8263.000000, 8187.000000, 8243.000000
3452, 56483520.000000, 1788.000000, 8286.000000, 8179.000000, 8235.000000
3453, 56483680.000000, 1762.000000, 8273.000000, 8172.000000, 8223.000000
3454, 56483840.000000, 1723.000000, 8287.000000, 8173.000000, 8233.000000
3455, 56484000.000000, 1679.500000, 8296.000000, 8171.000000, 8229.000000
3456, 56484160.000000, 1655.000000, 8264.000000, 8207.000000, 8254.000000
3457, 56484320.000000, 1655.000000, 8485.000000, 8198.000000, 8366.000000
3458, 56484480.000000, 1650.000000, 8745.000000, 7847.000000, 8113.000000
3459, 56484640.000000, 1609.500000, 8280.000000, 8076.000000, 8116.000000
3460, 56484800.000000, 1520.000000, 8275.000000, 8200.000000, 8250.000000
3461, 56484960.000000, 1407.000000, 8246.000000, 8216.000000, 8259.000000
3462, 56485120.000000, 1305.000000, 8258.000000, 8224.000000, 8263.000000
3463, 56485280.000000, 1228.000000, 8256.000000, 8224.000000, 8266.000000
3464, 56485440.000000, 1154.000000, 8254.000000, 8238.000000, 8278.000000
3465, 56485600.000000, 1069.000000, 8254.000000, 8235.000000, 8271.000000
3466, 56485760.000000, 990.000000, 8263.000000, 8244.000000, 8290.000000
3467, 56485920.000000, 942.000000, 8281.000000, 8249.000000, 8301.000000
3468, 56486080.000000, 941.000000, 8295.000000, 8258.000000, 8314.000000
3469, 56486240.000000, 997.000000, 8311.000000, 8265.000000, 8335.000000
3470, 56486400.000000, 1081.000000, 8320.000000, 8261.000000, 8333.000000
3471, 56486560.000000, 1173.000000, 8296.000000, 8248.000000, 8310.000000
3472, 56486720.000000, 1258.000000, 8230.000000, 8230.000000, 8260.000000
3473, 56486880.000000, 1336.000000, 8193.000000, 8220.000000, 8228.000000
3474, 56487040.000000, 1403.000000, 8159.000000, 8205.000000, 8196.000000
3475, 56487200.000000, 1468.500000, 8150.000000, 8210.000000, 8197.000000
3476, 56487360.000000, 1548.000000, 8134.000000, 8204.000000, 8177.000000
3477, 56487520.000000, 1628.000000, 8152.000000, 8207.000000, 8196.000000
3478, 56487680.000000, 1704.000000, 8148.000000, 8211.000000, 8197.000000
3479, 56487840.000000, 1764.500000, 8152.000000, 8208.000000, 8197.000000
3480, 56488000.000000, 1812.000000, 8136.000000, 8210.000000, 8194.000000
3481, 56488160.000000, 1845.500000, 8157.000000, 8200.000000, 8194.000000
3482, 56488320.000000, 1875.000000, 8151.000000, 8205.000000, 8193.000000
3483, 56488480.000000, 1939.000000, 8137.000000, 8209.000000, 8194.000000
3484, 56488640.000000, 2080.000000, 8130.000000, 8202.000000, 8182.000000
3485, 56488800.000000, 2320.500000, 8124.000000, 8204.000000, 8180.000000
3486, 56488960.000000, 2605.000000, 8125.000000, 8202.000000, 8181.000000
3487, 56489120.000000, 2864.500000, 8128.000000, 8202.000000, 8177.000000
3488, 56489280.000000, 3059.000000, 8128.000000, 8202.000000, 8181.000000
3489, 56489440.000000, 3182.500000, 8124.000000, 8206.000000, 8184.000000
3490, 56489600.000000, 3257.000000, 8125.000000, 8203.000000, 8178.000000
3491, 56489760.000000, 3295.500000, 8128.000000, 8200.000000, 8177.000000
3492, 56489920.000000, 3312.000000, 8132.000000, 8196.000000, 8171.000000
3493, 56490080.000000, 3327.500000, 8146.000000, 8197.000000, 8184.000000
3494, 56490240.000000, 3344.000000, 8149.000000, 8199.000000, 8184.000000
3495, 56490400.000000, 3333.500000, 8145.000000, 8193.000000, 8179.000000
3496, 56490560.000000, 3281.000000, 8141.000000, 8193.000000, 8178.000000
3497, 56490720.000000, 3196.000000, 8156.000000, 8201.000000, 8196.000000
3498, 56490880.000000, 3109.000000, 8163.000000, 8208.000000, 8214.000000
3499, 56491040.000000, 3039.000000, 8170.000000, 8207.000000, 8217.000000
3500, 56491200.000000, 2987.000000, 8169.000000, 8196.000000, 8194.000000
3501, 56491360.000000, 2943.000000, 8148.000000, 8191.000000, 8175.000000
3502, 56491520.000000, 2894.000000, 8154.000000, 8179.000000, 8159.000000
3503, 56491680.000000, 2829.500000, 8143.000000, 8187.000000, 8160.000000
3504, 56491840.000000, 2751.000000, 8140.000000, 8192.000000, 8169.000000
3505, 56492000.000000, 2662.000000, 8109.000000, 8244.000000, 8210.000000
3506, 56492160.000000, 2558.000000, 8499.000000, 8065.000000, 8219.000000
3507, 56492320.000000, 2450.000000, 8421.000000, 7889.000000, 7967.000000
3508, 56492480.000000, 2345.000000, 8128.000000, 8158.000000, 8121.000000
3509, 56492640.000000, 2238.000000, 8124.000000, 8223.000000, 8191.000000
3510, 56492800.000000, 2126.000000, 8116.000000, 8225.000000, 8184.000000
3511, 56492960.000000, 2004.000000, 8121.000000, 8226.000000, 8190.000000
3512, 56493120.000000, 1875.000000, 8134.000000, 8233.000000, 8202.000000
3513, 56493280.000000, 1748.000000, 8141.000000, 8231.000000, 8196.000000
3514, 56493440.000000, 1624.000000, 8153.000000, 8234.000000, 8207.000000
3515, 56493600.000000, 1506.500000, 8171.000000, 8238.000000, 8221.000000
3516, 56493760.000000, 1399.000000, 8201.000000, 8238.000000, 8231.000000
3517, 56493920.000000, 1315.000000, 8232.000000, 8242.000000, 8252.000000
3518, 56494080.000000, 1250.000000, 8257.000000, 8247.000000, 8265.000000
3519, 56494240.000000, 1191.000000, 8259.000000, 8238.000000, 8258.000000
3520, 56494400.000000, 1135.000000, 8231.000000, 8215.000000, 8224.000000
3521, 56494560.000000, 1087.500000, 8197.000000, 8189.000000, 8170.000000
3522, 56494720.000000, 1054.000000, 8176.000000, 8164.000000, 8143.000000
3523, 56494880.000000, 1034.000000, 8195.000000, 8159.000000, 8128.000000
3524, 56495040.000000, 1018.000000, 8203.000000, 8153.000000, 8126.000000
3525, 56495200.000000, 997.000000, 8217.000000, 8149.000000, 8127.000000
3526, 56495360.000000, 977.000000, 8225.000000, 8142.000000, 8123.000000
3527, 56495520.000000, 965.500000, 8237.000000, 8145.000000, 8132.000000
3528, 56495680.000000, 966.000000, 8237.000000, 8147.000000, 8132.000000
3529, 56495840.000000, 968.000000, 8240.000000, 8143.000000, 8126.000000
3530, 56496000.000000, 942.000000, 8229.000000, 8145.000000, 8117.000000
3531, 56496160.000000, 884.500000, 8220.000000, 8138.000000, 8106.000000
3532, 56496320.000000, 849.000000, 8209.000000, 8145.000000, 8104.000000
3533, 56496480.000000, 925.000000, 8205.000000, 8142.000000, 8096.000000
3534, 56496640.000000, 1109.000000, 8197.000000, 8143.000000, 8100.000000
3535, 56496800.000000, 1334.500000, 8190.000000, 8146.000000, 8096.000000
3536, 56496960.000000, 1513.000000, 8182.000000, 8149.000000, 8090.000000
3537, 56497120.000000, 1627.500000, 8180.000000, 8153.000000, 8102.000000
3538, 56497280.000000, 1708.000000, 8182.000000, 8160.000000, 8105.000000
3539, 56497440.000000, 1779.000000, 8177.000000, 8162.000000, 8107.000000
3540, 56497600.000000, 1843.000000, 8175.000000, 8158.000000, 8106.000000
3541, 56497760.000000, 1887.500000, 8172.000000, 8161.000000, 8107.000000
3542, 56497920.000000, 1914.000000, 8173.000000, 8158.000000, 8107.000000
3543, 56498080.000000, 1927.000000, 8173.000000, 8165.000000, 8114.000000
3544, 56498240.000000, 1941.000000, 8171.000000, 8173.000000, 8126.000000
3545, 56498400.000000, 1951.500000, 8182.000000, 8178.000000, 8141.000000
3546, 56498560.000000, 1959.000000, 8182.000000, 8172.000000, 8137.000000
3547, 56498720.000000, 1978.000000, 8180.000000, 8158.000000, 8113.000000
3548, 56498880.000000, 2020.000000, 8163.000000, 8163.000000, 8105.000000
3549, 56499040.000000, 2077.500000, 8154.000000, 8163.000000, 8107.000000
3550, 56499200.000000, 2139.000000, 8140.000000, 8164.000000, 8101.000000
3551, 56499360.000000, 2201.500000, 8128.000000, 8178.000000, 8107.000000
3552, 56499520.000000, 2262.000000, 8170.000000, 8201.000000, 8160.000000
3553, 56499680.000000, 2310.500000, 8549.000000, 7889.000000, 8028.000000
3554, 56499840.000000, 2331.000000, 8203.000000, 7953.000000, 7906.000000
3555, 56500000.000000, 2328.500000, 8125.000000, 8173.000000, 8114.000000
3556, 56500160.000000, 2329.000000, 8103.000000, 8215.000000, 8147.000000
3557, 56500320.000000, 2339.000000, 8103.000000, 8221.000000, 8151.000000
3558, 56500480.000000, 2346.000000, 8106.000000, 8225.000000, 8159.000000
3559, 56500640.000000, 2339.000000, 8112.000000, 8233.000000, 8171.000000
3560, 56500800.000000, 2328.000000, 8118.000000, 8231.000000, 8175.000000
3561, 56500960.000000, 2335.000000, 8132.000000, 8236.000000, 8193.000000
3562, 56501120.000000, 2363.000000, 8158.000000, 8246.000000, 8203.000000
3563, 56501280.000000, 2396.500000, 8185.000000, 8251.000000, 8228.000000
3564, 56501440.000000, 2419.000000, 8214.000000, 8259.000000, 8247.000000
3565, 56501600.000000, 2431.500000, 8219.000000, 8259.000000, 8260.000000
3566, 56501760.000000, 2430.000000, 8212.000000, 8250.000000, 8254.000000
3567, 56501920.000000, 2418.500000, 8154.000000, 8225.000000, 8213.000000
3568, 56502080.000000, 2410.000000, 8108.000000, 8206.000000, 8171.000000
3569, 56502240.000000, 2394.000000, 8090.000000, 8199.000000, 8154.000000
3570, 56502400.000000, 2359.000000, 8076.000000, 8196.000000, 8144.000000
3571, 56502560.000000, 2306.000000, 8083.000000, 8190.000000, 8137.000000
3572, 56502720.000000, 2243.000000, 8085.000000, 8191.000000, 8141.000000
3573, 56502880.000000, 2176.000000, 8088.000000, 8197.000000, 8153.000000
3574, 56503040.000000, 2117.000000, 8090.000000, 8197.000000, 8156.000000
3575, 56503200.000000, 2059.000000, 8098.000000, 8196.000000, 8151.000000
3576, 56503360.000000, 1992.000000, 8100.000000, 8192.000000, 8156.000000
3577, 56503520.000000, 1911.000000, 8099.000000, 8190.000000, 8151.000000
3578, 56503680.000000, 1891.000000, 8103.000000, 8196.000000, 8158.000000
3579, 56503840.000000, 1996.500000, 8101.000000, 8194.000000, 8155.000000
3580, 56504000.000000, 2147.000000, 8097.000000, 8191.000000, 8151.000000
3581, 56504160.000000, 2301.500000, 8101.000000, 8190.000000, 8151.000000
3582, 56504320.000000, 2427.000000, 8097.000000, 8189.000000, 8151.000000
3583, 56504480.000000, 2495.000000, 8102.000000, 8195.000000, 8158.000000
3584, 56504640.000000, 2516.000000, 8108.000000, 8195.000000, 8160.000000
3585, 56504800.000000, 2501.500000, 8112.000000, 8196.000000, 8162.000000
3586, 56504960.000000, 2461.000000, 8115.000000, 8191.000000, 8155.000000
3587, 56505120.000000, 2401.000000, 8131.000000, 8197.000000, 8172.000000
3588, 56505280.000000, 2324.000000, 8150.000000, 8202.000000, 8189.000000
3589, 56505440.000000, 2241.500000, 8175.000000, 8193.000000, 8193.000000
3590, 56505600.000000, 2155.000000, 8198.000000, 8184.000000, 8191.000000
3591, 56505760.000000, 2061.500000, 8211.000000, 8168.000000, 8168.000000
3592, 56505920.000000, 1970.000000, 8221.000000, 8152.000000, 8158.000000
3593, 56506080.000000, 1885.000000, 8242.000000, 8149.000000, 8157.000000
3594, 56506240.000000, 1823.000000, 8257.000000, 8146.000000, 8156.000000
3595, 56506400.000000, 1788.500000, 8249.000000, 8181.000000, 8198.000000
3596, 56506560.000000, 1764.000000, 8497.000000, 8146.000000, 8294.000000
3597, 56506720.000000, 1732.500000, 8724.000000, 7797.000000, 8021.000000
3598, 56506880.000000, 1693.000000, 8293.000000, 8027.000000, 8045.000000
3599, 56507040.000000, 1638.000000, 8300.000000, 8160.000000, 8201.000000
3600, 56507200.000000, 1577.000000, 8290.000000, 8170.000000, 8202.000000
3601, 56507360.000000, 1508.000000, 8293.000000, 8180.000000, 8210.000000
3602, 56507520.000000, 1438.000000, 8283.000000, 8187.000000, 8213.000000
3603, 56507680.000000, 1372.500000, 8290.000000, 8191.000000, 8225.000000
3604, 56507840.000000, 1324.000000, 8287.000000, 8200.000000, 8236.000000
3605, 56508000.000000, 1295.000000, 8294.000000, 8203.000000, 8238.000000
3606, 56508160.000000, 1273.000000, 8299.000000, 8209.000000, 8249.000000
3607, 56508320.000000, 1235.500000, 8327.000000, 8222.000000, 8269.000000
3608, 56508480.000000, 1189.000000, 8336.000000, 8229.000000, 8290.000000
3609, 56508640.000000, 1145.500000, 8333.000000, 8235.000000, 8298.000000
3610, 56508800.000000, 1128.000000, 8297.000000, 8225.000000, 8268.000000
3611, 56508960.000000, 1137.500000, 8229.000000, 8210.000000, 8232.000000
3612, 56509120.000000, 1162.000000, 8184.000000, 8196.000000, 8192.000000
3613, 56509280.000000, 1182.500000, 8161.000000, 8193.000000, 8180.000000
3614, 56509440.000000, 1202.000000, 8157.000000, 8196.000000, 8182.000000
3615, 56509600.000000, 1237.500000, 8153.000000, 8192.000000, 8173.000000
3616, 56509760.000000, 1298.000000, 8156.000000, 8193.000000, 8172.000000
3617, 56509920.000000, 1367.000000, 8151.000000, 8194.000000, 8172.000000
3618, 56510080.000000, 1424.000000, 8156.000000, 8200.000000, 8183.000000
3619, 56510240.000000, 1464.000000, 8151.000000, 8199.000000, 8179.000000
3620, 56510400.000000, 1499.000000, 8152.000000, 8196.000000, 8175.000000
3621, 56510560.000000, 1568.500000, 8151.000000, 8191.000000, 8171.000000
3622, 56510720.000000, 1709.000000, 8144.000000, 8198.000000, 8177.000000
3623, 56510880.000000, 1928.000000, 8130.000000, 8201.000000, 8179.000000
3624, 56511040.000000, 2176.000000, 8124.000000, 8200.000000, 8174.000000
3625, 56511200.000000, 2414.500000, 8117.000000, 8200.000000, 8171.000000
3626, 56511360.000000, 2620.000000, 8115.000000, 8198.000000, 8168.000000
3627, 56511520.000000, 2782.000000, 8115.000000, 8201.000000, 8175.000000
3628, 56511680.000000, 2897.000000, 8119.000000, 8203.000000, 8178.000000
3629, 56511840.000000, 2985.500000, 8126.000000, 8205.000000, 8188.000000
3630, 56512000.000000, 3064.000000, 8127.000000, 8198.000000, 8174.000000
3631, 56512160.000000, 3131.500000, 8127.000000, 8203.000000, 8181.000000
3632, 56512320.000000, 3181.000000, 8141.000000, 8217.000000, 8212.000000
3633, 56512480.000000, 3200.000000, 8147.000000, 8223.000000, 8226.000000
3634, 56512640.000000, 3203.000000, 8135.000000, 8219.000000, 8218.000000
3635, 56512800.000000, 3201.000000, 8115.000000, 8213.000000, 8195.000000
3636, 56512960.000000, 3201.000000, 8122.000000, 8199.000000, 8180.000000
3637, 56513120.000000, 3206.000000, 8130.000000, 8194.000000, 8176.000000
3638, 56513280.000000, 3219.000000, 8122.000000, 8193.000000, 8176.000000
3639, 56513440.000000, 3233.500000, 8108.000000, 8209.000000, 8190.000000
3640, 56513600.000000, 3234.000000, 8153.000000, 8238.000000, 8247.000000
3641, 56513760.000000, 3206.500000, 8569.000000, 7926.000000, 8130.000000
3642, 56513920.000000, 3162.000000, 8208.000000, 7985.000000, 7993.000000
3643, 56514080.000000, 3099.500000, 8125.000000, 8200.000000, 8191.000000
3644, 56514240.000000, 3019.000000, 8112.000000, 8237.000000, 8221.000000
3645, 56514400.000000, 2915.000000, 8127.000000, 8242.000000, 8230.000000
3646, 56514560.000000, 2806.000000, 8125.000000, 8238.000000, 8225.000000
3647, 56514720.000000, 2706.000000, 8139.000000, 8244.000000, 8240.000000
3648, 56514880.000000, 2616.000000, 8141.000000, 8252.000000, 8249.000000
3649, 56515040.000000, 2518.500000, 8161.000000, 8260.000000, 8268.000000
3650, 56515200.000000, 2399.000000, 8167.000000, 8265.000000, 8289.000000
3651, 56515360.000000, 2261.000000, 8199.000000, 8266.000000, 8290.000000
3652, 56515520.000000, 2103.000000, 8217.000000, 8278.000000, 8312.000000
3653, 56515680.000000, 1953.500000, 8235.000000, 8284.000000, 8332.000000
3654, 56515840.000000, 1827.000000, 8229.000000, 8277.000000, 8329.000000
3655, 56516000.000000, 1721.500000, 8189.000000, 8253.000000, 8280.000000
3656, 56516160.000000, 1623.000000, 8133.000000, 8231.000000, 8231.000000
3657, 56516320.000000, 1535.500000, 8119.000000, 8217.000000, 8208.000000
3658, 56516480.000000, 1463.000000, 8129.000000, 8210.000000, 8201.000000
3659, 56516640.000000, 1391.000000, 8150.000000, 8206.000000, 8207.000000
3660, 56516800.000000, 1316.000000, 8169.000000, 8197.000000, 8203.000000
3661, 56516960.000000, 1237.500000, 8183.000000, 8194.000000, 8207.000000
3662, 56517120.000000, 1173.000000, 8207.000000, 8182.000000, 8201.000000
3663, 56517280.000000, 1134.000000, 8226.000000, 8180.000000, 8208.000000
3664, 56517440.000000, 1118.000000, 8252.000000, 8179.000000, 8218.000000
3665, 56517600.000000, 1140.000000, 8257.000000, 8169.000000, 8207.000000
3666, 56517760.000000, 1245.000000, 8267.000000, 8162.000000, 8203.000000
3667, 56517920.000000, 1449.500000, 8270.000000, 8163.000000, 8202.000000
3668, 56518080.000000, 1710.000000, 8271.000000, 8165.000000, 8205.000000
3669, 56518240.000000, 1957.500000, 8267.000000, 8163.000000, 8204.000000
3670, 56518400.000000, 2165.000000, 8268.000000, 8161.000000, 8197.000000
3671, 56518560.000000, 2325.000000, 8255.000000, 8162.000000, 8191.000000
3672, 56518720.000000, 2449.000000, 8248.000000, 8173.000000, 8203.000000
3673, 56518880.000000, 2528.000000, 8248.000000, 8172.000000, 8200.000000
3674, 56519040.000000, 2545.000000, 8232.000000, 8174.000000, 8198.000000
3675, 56519200.000000, 2512.000000, 8227.000000, 8178.000000, 8196.000000
3676, 56519360.000000, 2443.000000, 8224.000000, 8176.000000, 8194.000000
3677, 56519520.000000, 2363.500000, 8215.000000, 8184.000000, 8198.000000
3678, 56519680.000000, 2288.000000, 8214.000000, 8197.000000, 8215.000000
3679, 56519840.000000, 2245.000000, 8222.000000, 8206.000000, 8231.000000
3680, 56520000.000000, 2245.000000, 8213.000000, 8196.000000, 8221.000000
3681, 56520160.000000, 2269.500000, 8220.000000, 8190.000000, 8204.000000
3682, 56520320.000000, 2292.000000, 8200.000000, 8186.000000, 8190.000000
3683, 56520480.000000, 2310.000000, 8183.000000, 8188.000000, 8177.000000
3684, 56520640.000000, 2349.000000, 8172.000000, 8189.000000, 8183.000000
3685, 56520800.000000, 2411.000000, 8152.000000, 8198.000000, 8175.000000
3686, 56520960.000000, 2479.000000, 8175.000000, 8236.000000, 8232.000000
3687, 56521120.000000, 2531.500000, 8615.000000, 7964.000000, 8173.000000
3688, 56521280.000000, 2569.000000, 8306.000000, 7970.000000, 8001.000000
3689, 56521440.000000, 2585.500000, 8153.000000, 8193.000000, 8182.000000
3690, 56521600.000000, 2591.000000, 8129.000000, 8231.000000, 8208.000000
3691, 56521760.000000, 2601.500000, 8125.000000, 8240.000000, 8213.000000
3692, 56521920.000000, 2624.000000, 8123.000000, 8244.000000, 8217.000000
3693, 56522080.000000, 2648.500000, 8124.000000, 8254.000000, 8234.000000
3694, 56522240.000000, 2649.000000, 8132.000000, 8250.000000, 8237.000000
3695, 56522400.000000, 2612.500000, 8149.000000, 8252.000000, 8243.000000
3696, 56522560.000000, 2566.000000, 8156.000000, 8261.000000, 8256.000000
3697, 56522720.000000, 2535.500000, 8177.000000, 8265.000000, 8270.000000
3698, 56522880.000000, 2520.000000, 8204.000000, 8273.000000, 8290.000000
3699, 56523040.000000, 2497.000000, 8224.000000, 8280.000000, 8310.000000
3700, 56523200.000000, 2465.000000, 8229.000000, 8273.000000, 8309.000000
3701, 56523360.000000, 2439.000000, 8196.000000, 8251.000000, 8271.000000
3702, 56523520.000000, 2420.000000, 8134.000000, 8238.000000, 8233.000000
3703, 56523680.000000, 2404.500000, 8109.000000, 8222.000000, 8198.000000
3704, 56523840.000000, 2398.000000, 8104.000000, 8219.000000, 8194.000000
3705, 56524000.000000, 2396.500000, 8104.000000, 8211.000000, 8186.000000
3706, 56524160.000000, 2384.000000, 8115.000000, 8212.000000, 8200.000000
3707, 56524320.000000, 2362.000000, 8124.000000, 8207.000000, 8197.000000
3708, 56524480.000000, 2349.000000, 8130.000000, 8212.000000, 8210.000000
3709, 56524640.000000, 2362.000000, 8128.000000, 8209.000000, 8206.000000
3710, 56524800.000000, 2391.000000, 8139.000000, 8203.000000, 8203.000000
3711, 56524960.000000, 2437.500000, 8144.000000, 8202.000000, 8205.000000
3712, 56525120.000000, 2522.000000, 8152.000000, 8206.000000, 8210.000000
3713, 56525280.000000, 2657.000000, 8145.000000, 8207.000000, 8211.000000
3714, 56525440.000000, 2801.000000, 8146.000000, 8205.000000, 8209.000000
3715, 56525600.000000, 2919.000000, 8145.000000, 8202.000000, 8200.000000
3716, 56525760.000000, 3000.000000, 8152.000000, 8204.000000, 8208.000000
3717, 56525920.000000, 3059.500000, 8147.000000, 8204.000000, 8205.000000
3718, 56526080.000000, 3097.000000, 8144.000000, 8210.000000, 8207.000000
3719, 56526240.000000, 3089.500000, 8148.000000, 8208.000000, 8212.000000
3720, 56526400.000000, 3038.000000, 8152.000000, 8209.000000, 8211.000000
3721, 56526560.000000, 2960.500000, 8145.000000, 8205.000000, 8199.000000
3722, 56526720.000000, 2866.000000, 8156.000000, 8207.000000, 8208.000000
3723, 56526880.000000, 2751.500000, 8146.000000, 8209.000000, 8204.000000
3724, 56527040.000000, 2617.000000, 8151.000000, 8217.000000, 8219.000000
3725, 56527200.000000, 2473.000000, 8140.000000, 8220.000000, 8232.000000
3726, 56527360.000000, 2331.000000, 8162.000000, 8227.000000, 8244.000000
3727, 56527520.000000, 2209.500000, 8158.000000, 8220.000000, 8232.000000
3728, 56527680.000000, 2123.000000, 8162.000000, 8207.000000, 8206.000000
3729, 56527840.000000, 2080.500000, 8157.000000, 8197.000000, 8191.000000
3730, 56528000.000000, 2051.000000, 8169.000000, 8193.000000, 8195.000000
3731, 56528160.000000, 2002.000000, 8186.000000, 8185.000000, 8192.000000
3732, 56528320.000000, 1925.000000, 8170.000000, 8212.000000, 8212.000000
3733, 56528480.000000, 1848.000000, 8416.000000, 8203.000000, 8337.000000
3734, 56528640.000000, 1773.000000, 8682.000000, 7862.000000, 8100.000000
3735, 56528800.000000, 1696.000000, 8236.000000, 8068.000000, 8074.000000
3736, 56528960.000000, 1625.000000, 8246.000000, 8185.000000, 8210.000000
3737, 56529120.000000, 1576.500000, 8246.000000, 8200.000000, 8227.000000
3738, 56529280.000000, 1554.000000, 8242.000000, 8209.000000, 8235.000000
3739, 56529440.000000, 1541.000000, 8248.000000, 8212.000000, 8238.000000
3740, 56529600.000000, 1515.000000, 8252.000000, 8213.000000, 8244.000000
3741, 56529760.000000, 1461.000000, 8259.000000, 8220.000000, 8254.000000
3742, 56529920.000000, 1389.000000, 8261.000000, 8227.000000, 8260.000000
3743, 56530080.000000, 1309.500000, 8270.000000, 8236.000000, 8277.000000
3744, 56530240.000000, 1241.000000, 8294.000000, 8245.000000, 8294.000000
3745, 56530400.000000, 1189.000000, 8307.000000, 8247.000000, 8307.000000
3746, 56530560.000000, 1138.000000, 8307.000000, 8247.000000, 8301.000000
3747, 56530720.000000, 1081.000000, 8286.000000, 8236.000000, 8286.000000
3748, 56530880.000000, 1033.000000, 8236.000000, 8219.000000, 8241.000000
3749, 56531040.000000, 1013.000000, 8201.000000, 8203.000000, 8206.000000
3750, 56531200.000000, 1017.000000, 8167.000000, 8190.000000, 8173.000000
3751, 56531360.000000, 1029.000000, 8164.000000, 8189.000000, 8166.000000
3752, 56531520.000000, 1046.000000, 8165.000000, 8192.000000, 8175.000000
3753, 56531680.000000, 1071.000000, 8165.000000, 8186.000000, 8169.000000
3754, 56531840.000000, 1112.000000, 8172.000000, 8194.000000, 8178.000000
3755, 56532000.000000, 1160.000000, 8163.000000, 8189.000000, 8165.000000
3756, 56532160.000000, 1202.000000, 8159.000000, 8186.000000, 8167.000000
3757, 56532320.000000, 1245.500000, 8166.000000, 8189.000000, 8169.000000
3758, 56532480.000000, 1319.000000, 8160.000000, 8189.000000, 8165.000000
3759, 56532640.000000, 1469.000000, 8160.000000, 8182.000000, 8152.000000
3760, 56532800.000000, 1693.000000, 8141.000000, 8184.000000, 8151.000000
3761, 56532960.000000, 1961.000000, 8137.000000, 8184.000000, 8147.000000
3762, 56533120.000000, 2215.000000, 8138.000000, 8184.000000, 8147.000000
3763, 56533280.000000, 2426.500000, 8128.000000, 8189.000000, 8152.000000
3764, 56533440.000000, 2585.000000, 8136.000000, 8193.000000, 8149.000000
3765, 56533600.000000, 2683.000000, 8132.000000, 8188.000000, 8139.000000
3766, 56533760.000000, 2747.000000, 8144.000000, 8196.000000, 8153.000000
3767, 56533920.000000, 2800.000000, 8147.000000, 8196.000000, 8149.000000
3768, 56534080.000000, 2847.000000, 8148.000000, 8191.000000, 8149.000000
3769, 56534240.000000, 2877.500000, 8153.000000, 8198.000000, 8163.000000
3770, 56534400.000000, 2890.000000, 8154.000000, 8200.000000, 8170.000000
3771, 56534560.000000, 2886.000000, 8155.000000, 8205.000000, 8182.000000
3772, 56534720.000000, 2871.000000, 8158.000000, 8203.000000, 8184.000000
3773, 56534880.000000, 2850.500000, 8158.000000, 8195.000000, 8168.000000
3774, 56535040.000000, 2832.000000, 8144.000000, 8186.000000, 8149.000000
3775, 56535200.000000, 2821.000000, 8133.000000, 8176.000000, 8136.000000
3776, 56535360.000000, 2813.000000, 8125.000000, 8165.000000, 8126.000000
3777, 56535520.000000, 2801.500000, 8125.000000, 8165.000000, 8132.000000
3778, 56535680.000000, 2780.000000, 8082.000000, 8226.000000, 8180.000000
3779, 56535840.000000, 2759.500000, 8458.000000, 8077.000000, 8215.000000
3780, 56536000.000000, 2735.000000, 8445.000000, 7857.000000, 7955.000000
3781, 56536160.000000, 2688.500000, 8108.000000, 8116.000000, 8069.000000
3782, 56536320.000000, 2613.000000, 8111.000000, 8196.000000, 8157.000000
3783, 56536480.000000, 2532.500000, 8106.000000, 8210.000000, 8166.000000
3784, 56536640.000000, 2472.000000, 8114.000000, 8213.000000, 8166.000000
3785, 56536800.000000, 2422.000000, 8125.000000, 8213.000000, 8170.000000
3786, 56536960.000000, 2347.000000, 8130.000000, 8218.000000, 8178.000000
3787, 56537120.000000, 2231.000000, 8146.000000, 8222.000000, 8183.000000
3788, 56537280.000000, 2085.000000, 8166.000000, 8231.000000, 8203.000000
3789, 56537440.000000, 1948.500000, 8190.000000, 8239.000000, 8229.000000
3790, 56537600.000000, 1841.000000, 8213.000000, 8243.000000, 8238.000000
3791, 56537760.000000, 1752.500000, 8241.000000, 8247.000000, 8255.000000
3792, 56537920.000000, 1660.000000, 8237.000000, 8241.000000, 8248.000000
3793, 56538080.000000, 1550.500000, 8224.000000, 8228.000000, 8234.000000
3794, 56538240.000000, 1442.000000, 8149.000000, 8208.000000, 8175.000000
3795, 56538400.000000, 1358.500000, 8124.000000, 8190.000000, 8144.000000
3796, 56538560.000000, 1303.000000, 8126.000000, 8182.000000, 8133.000000
3797, 56538720.000000, 1250.500000, 8131.000000, 8178.000000, 8129.000000
3798, 56538880.000000, 1187.000000, 8139.000000, 8176.000000, 8130.000000
3799, 56539040.000000, 1127.000000, 8143.000000, 8177.000000, 8138.000000
3800, 56539200.000000, 1089.000000, 8167.000000, 8173.000000, 8136.000000
3801, 56539360.000000, 1068.500000, 8176.000000, 8169.000000, 8142.000000
3802, 56539520.000000, 1050.000000, 8202.000000, 8166.000000, 8146.000000
3803, 56539680.000000, 1035.000000, 8223.000000, 8157.000000, 8147.000000
3804, 56539840.000000, 1033.000000, 8232.000000, 8157.000000, 8149.000000
3805, 56540000.000000, 1089.500000, 8235.000000, 8153.000000, 8143.000000
3806, 56540160.000000, 1218.000000, 8238.000000, 8154.000000, 8144.000000
3807, 56540320.000000, 1408.500000, 8237.000000, 8152.000000, 8145.000000
3808, 56540480.000000, 1610.000000, 8229.000000, 8158.000000, 8150.000000
3809, 56540640.000000, 1779.000000, 8226.000000, 8158.000000, 8146.000000
3810, 56540800.000000, 1909.000000, 8228.000000, 8155.000000, 8140.000000
3811, 56540960.000000, 1999.500000, 8220.000000, 8154.000000, 8132.000000
3812, 56541120.000000, 2056.000000, 8208.000000, 8159.000000, 8137.000000
3813, 56541280.000000, 2089.500000, 8214.000000, 8166.000000, 8146.000000
3814, 56541440.000000, 2108.000000, 8202.000000, 8175.000000, 8153.000000
3815, 56541600.000000, 2097.500000, 8210.000000, 8184.000000, 8173.000000
3816, 56541760.000000, 2063.000000, 8216.000000, 8186.000000, 8179.000000
3817, 56541920.000000, 2017.000000, 8213.000000, 8176.000000, 8161.000000
3818, 56542080.000000, 1974.000000, 8198.000000, 8170.000000, 8145.000000
3819, 56542240.000000, 1951.500000, 8191.000000, 8173.000000, 8138.000000
3820, 56542400.000000, 1975.000000, 8194.000000, 8165.000000, 8136.000000
3821, 56542560.000000, 2045.500000, 8189.000000, 8168.000000, 8139.000000
3822, 56542720.000000, 2128.000000, 8154.000000, 8221.000000, 8183.000000
3823, 56542880.000000, 2198.500000, 8417.000000, 8169.000000, 8268.000000
3824, 56543040.000000, 2246.000000, 8564.000000, 7840.000000, 7989.000000
3825, 56543200.000000, 2260.000000, 8140.000000, 8087.000000, 8032.000000
3826, 56543360.000000, 2244.000000, 8145.000000, 8207.000000, 8169.000000
3827, 56543520.000000, 2211.500000, 8138.000000, 8224.000000, 8185.000000
3828, 56543680.000000, 2168.000000, 8133.000000, 8234.000000, 8198.000000
3829, 56543840.000000, 2118.500000, 8137.000000, 8234.000000, 8193.000000
3830, 56544000.000000, 2071.000000, 8144.000000, 8236.000000, 8201.000000
3831, 56544160.000000, 2043.500000, 8155.000000, 8240.000000, 8211.000000
3832, 56544320.000000, 2025.000000, 8167.000000, 8248.000000, 8225.000000
3833, 56544480.000000, 1995.000000, 8190.000000, 8256.000000, 8246.000000
3834, 56544640.000000, 1948.000000, 8214.000000, 8263.000000, 8259.000000
3835, 56544800.000000, 1900.000000, 8241.000000, 8267.000000, 8275.000000
3836, 56544960.000000, 1872.000000, 8245.000000, 8271.000000, 8283.000000
3837, 56545120.000000, 1872.000000, 8223.000000, 8253.000000, 8263.000000
3838, 56545280.000000, 1891.000000, 8167.000000, 8232.000000, 8221.000000
3839, 56545440.000000, 1907.000000, 8131.000000, 8211.000000, 8180.000000
3840, 56545600.000000, 1903.000000, 8112.000000, 8196.000000, 8156.000000
3841, 56545760.000000, 1884.000000, 8106.000000, 8196.000000, 8158.000000
3842, 56545920.000000, 1871.000000, 8097.000000, 8195.000000, 8163.000000
3843, 56546080.000000, 1875.500000, 8098.000000, 8192.000000, 8165.000000
3844, 56546240.000000, 1902.000000, 8097.000000, 8189.000000, 8167.000000
3845, 56546400.000000, 1933.500000, 8097.000000, 8184.000000, 8162.000000
3846, 56546560.000000, 1957.000000, 8104.000000, 8182.000000, 8163.000000
3847, 56546720.000000, 1958.500000, 8110.000000, 8186.000000, 8171.000000
3848, 56546880.000000, 1958.000000, 8106.000000, 8184.000000, 8168.000000
3849, 56547040.000000, 1978.500000, 8116.000000, 8186.000000, 8169.000000
3850, 56547200.000000, 2060.000000, 8107.000000, 8184.000000, 8163.000000
3851, 56547360.000000, 2205.000000, 8107.000000, 8184.000000, 8159.000000
