1682, 52007216.000000, 2479.750000, 8163.000000, 8175.000000, 8151.000000
1683, 52007376.000000, 2456.250000, 8161.000000, 8173.000000, 8146.000000
1684, 52007536.000000, 2396.000000, 8162.000000, 8174.000000, 8149.000000
1685, 52007696.000000, 2318.250000, 8143.000000, 8200.000000, 8163.000000
1686, 52007856.000000, 2228.000000, 8332.000000, 8190.000000, 8274.000000
1687, 52008016.000000, 2143.750000, 8471.000000, 7868.000000, 8009.000000
1688, 52008176.000000, 2080.250000, 8152.000000, 8097.000000, 8060.000000
1689, 52008336.000000, 2050.500000, 8172.000000, 8202.000000, 8186.000000
1690, 52008496.000000, 2045.500000, 8170.000000, 8214.000000, 8195.000000
1691, 52008656.000000, 2056.750000, 8171.000000, 8214.000000, 8195.000000
1692, 52008816.000000, 2071.750000, 8179.000000, 8216.000000, 8201.000000
1693, 52008976.000000, 2078.750000, 8189.000000, 8217.000000, 8208.000000
1694, 52009136.000000, 2068.750000, 8198.000000, 8224.000000, 8219.000000
1695, 52009296.000000, 2041.750000, 8209.000000, 8228.000000, 8230.000000
1696, 52009456.000000, 2006.000000, 8221.000000, 8230.000000, 8238.000000
1697, 52009616.000000, 1965.000000, 8222.000000, 8228.000000, 8237.000000
1698, 52009776.000000, 1925.000000, 8223.000000, 8227.000000, 8235.000000
1699, 52009936.000000, 1886.500000, 8219.000000, 8223.000000, 8236.000000
1700, 52010096.000000, 1852.250000, 8210.000000, 8212.000000, 8221.000000
1701, 52010256.000000, 1824.750000, 8199.000000, 8198.000000, 8198.000000
1702, 52010416.000000, 1802.250000, 8188.000000, 8185.000000, 8178.000000
1703, 52010576.000000, 1780.250000, 8191.000000, 8185.000000, 8180.000000
1704, 52010736.000000, 1762.000000, 8197.000000, 8186.000000, 8186.000000
1705, 52010896.000000, 1739.750000, 8200.000000, 8185.000000, 8187.000000
1706, 52011056.000000, 1719.750000, 8205.000000, 8182.000000, 8184.000000
1707, 52011216.000000, 1703.500000, 8206.000000, 8177.000000, 8181.000000
1708, 52011376.000000, 1688.500000, 8204.000000, 8175.000000, 8178.000000
1709, 52011536.000000, 1669.750000, 8210.000000, 8175.000000, 8180.000000
1710, 52011696.000000, 1644.750000, 8201.000000, 8171.000000, 8174.000000
1711, 52011856.000000, 1621.250000, 8201.000000, 8172.000000, 8171.000000
1712, 52012016.000000, 1636.500000, 8214.000000, 8175.000000, 8187.000000
1713, 52012176.000000, 1750.000000, 8213.000000, 8186.000000, 8205.000000
1714, 52012336.000000, 1951.500000, 8227.000000, 8195.000000, 8233.000000
1715, 52012496.000000, 2181.500000, 8224.000000, 8190.000000, 8222.000000
1716, 52012656.000000, 2370.500000, 8205.000000, 8169.000000, 8173.000000
1717, 52012816.000000, 2493.000000, 8194.000000, 8158.000000, 8147.000000
1718, 52012976.000000, 2537.750000, 8193.000000, 8157.000000, 8151.000000
1719, 52013136.000000, 2520.250000, 8192.000000, 8160.000000, 8149.000000
1720, 52013296.000000, 2458.500000, 8186.000000, 8207.000000, 8198.000000
1721, 52013456.000000, 2365.750000, 8463.000000, 8078.000000, 8226.000000
1722, 52013616.000000, 2258.250000, 8328.000000, 7912.000000, 7966.000000
1723, 52013776.000000, 2153.750000, 8187.000000, 8130.000000, 8122.000000
1724, 52013936.000000, 2072.750000, 8188.000000, 8192.000000, 8185.000000
1725, 52014096.000000, 2028.250000, 8192.000000, 8201.000000, 8196.000000
1726, 52014256.000000, 2022.500000, 8188.000000, 8204.000000, 8195.000000
1727, 52014416.000000, 2037.500000, 8196.000000, 8209.000000, 8207.000000
1728, 52014576.000000, 2061.000000, 8197.000000, 8212.000000, 8212.000000
1729, 52014736.000000, 2071.500000, 8206.000000, 8220.000000, 8230.000000
1730, 52014896.000000, 2066.500000, 8216.000000, 8228.000000, 8239.000000
1731, 52015056.000000, 2043.750000, 8220.000000, 8231.000000, 8245.000000
1732, 52015216.000000, 2007.750000, 8212.000000, 8230.000000, 8242.000000
1733, 52015376.000000, 1966.750000, 8209.000000, 8233.000000, 8247.000000
1734, 52015536.000000, 1925.000000, 8194.000000, 8227.000000, 8239.000000
1735, 52015696.000000, 1886.250000, 8176.000000, 8214.000000, 8216.000000
1736, 52015856.000000, 1852.000000, 8159.000000, 8201.000000, 8192.000000
1737, 52016016.000000, 1824.500000, 8144.000000, 8194.000000, 8179.000000
1738, 52016176.000000, 1801.250000, 8137.000000, 8199.000000, 8180.000000
1739, 52016336.000000, 1782.250000, 8141.000000, 8200.000000, 8183.000000
1740, 52016496.000000, 1766.500000, 8142.000000, 8198.000000, 8180.000000
1741, 52016656.000000, 1754.000000, 8145.000000, 8195.000000, 8181.000000
1742, 52016816.000000, 1744.000000, 8142.000000, 8192.000000, 8180.000000
1743, 52016976.000000, 1734.000000, 8140.000000, 8190.000000, 8177.000000
1744, 52017136.000000, 1721.500000, 8132.000000, 8188.000000, 8173.000000
1745, 52017296.000000, 1707.000000, 8129.000000, 8187.000000, 8178.000000
1746, 52017456.000000, 1701.000000, 8126.000000, 8195.000000, 8196.000000
1747, 52017616.000000, 1716.750000, 8122.000000, 8204.000000, 8208.000000
1748, 52017776.000000, 1806.000000, 8128.000000, 8209.000000, 8231.000000
1749, 52017936.000000, 1994.750000, 8127.000000, 8204.000000, 8226.000000
1750, 52018096.000000, 2263.750000, 8100.000000, 8180.000000, 8178.000000
1751, 52018256.000000, 2533.500000, 8083.000000, 8164.000000, 8151.000000
1752, 52018416.000000, 2748.750000, 8075.000000, 8155.000000, 8142.000000
1753, 52018576.000000, 2884.500000, 8074.000000, 8155.000000, 8148.000000
1754, 52018736.000000, 2952.000000, 8064.000000, 8204.000000, 8194.000000
1755, 52018896.000000, 2968.000000, 8326.000000, 8046.000000, 8186.000000
1756, 52019056.000000, 2939.500000, 8235.000000, 7865.000000, 7923.000000
1757, 52019216.000000, 2875.000000, 8089.000000, 8122.000000, 8115.000000
1758, 52019376.000000, 2790.750000, 8100.000000, 8184.000000, 8180.000000
1759, 52019536.000000, 2709.000000, 8110.000000, 8191.000000, 8195.000000
1760, 52019696.000000, 2647.250000, 8118.000000, 8194.000000, 8198.000000
1761, 52019856.000000, 2611.250000, 8131.000000, 8196.000000, 8206.000000
1762, 52020016.000000, 2605.500000, 8143.000000, 8196.000000, 8212.000000
1763, 52020176.000000, 2618.250000, 8155.000000, 8205.000000, 8227.000000
1764, 52020336.000000, 2628.250000, 8168.000000, 8213.000000, 8242.000000
1765, 52020496.000000, 2646.750000, 8172.000000, 8220.000000, 8250.000000
1766, 52020656.000000, 2694.250000, 8171.000000, 8223.000000, 8252.000000
1767, 52020816.000000, 2750.250000, 8164.000000, 8227.000000, 8259.000000
1768, 52020976.000000, 2774.750000, 8158.000000, 8221.000000, 8249.000000
1769, 52021136.000000, 2743.500000, 8148.000000, 8209.000000, 8229.000000
1770, 52021296.000000, 2667.000000, 8142.000000, 8198.000000, 8208.000000
1771, 52021456.000000, 2539.500000, 8141.000000, 8193.000000, 8200.000000
1772, 52021616.000000, 2364.250000, 8147.000000, 8191.000000, 8196.000000
1773, 52021776.000000, 2154.500000, 8158.000000, 8191.000000, 8199.000000
1774, 52021936.000000, 1922.750000, 8165.000000, 8190.000000, 8197.000000
1775, 52022096.000000, 1684.250000, 8175.000000, 8188.000000, 8196.000000
1776, 52022256.000000, 1452.750000, 8185.000000, 8186.000000, 8198.000000
1777, 52022416.000000, 1232.750000, 8191.000000, 8182.000000, 8194.000000
1778, 52022576.000000, 1019.500000, 8190.000000, 8181.000000, 8185.000000
1779, 52022736.000000, 806.250000, 8195.000000, 8181.000000, 8186.000000
1780, 52022896.000000, 602.750000, 8215.000000, 8197.000000, 8223.000000
1781, 52023056.000000, 451.000000, 8225.000000, 8207.000000, 8242.000000
1782, 52023216.000000, 454.750000, 8229.000000, 8200.000000, 8236.000000
1783, 52023376.000000, 716.750000, 8223.000000, 8192.000000, 8216.000000
1784, 52023536.000000, 1217.000000, 8201.000000, 8173.000000, 8168.000000
1785, 52023696.000000, 1826.750000, 8198.000000, 8171.000000, 8160.000000
1786, 52023856.000000, 2383.750000, 8200.000000, 8169.000000, 8156.000000
1787, 52024016.000000, 2766.750000, 8199.000000, 8176.000000, 8158.000000
1788, 52024176.000000, 2932.000000, 8266.000000, 8195.000000, 8223.000000
1789, 52024336.000000, 2911.000000, 8500.000000, 7847.000000, 8019.000000
1790, 52024496.000000, 2746.500000, 8210.000000, 8002.000000, 7985.000000
1791, 52024656.000000, 2496.500000, 8231.000000, 8193.000000, 8198.000000
1792, 52024816.000000, 2227.750000, 8223.000000, 8212.000000, 8216.000000
1793, 52024976.000000, 2022.750000, 8225.000000, 8219.000000, 8224.000000
1794, 52025136.000000, 1940.000000, 8225.000000, 8222.000000, 8231.000000
1795, 52025296.000000, 1993.500000, 8230.000000, 8230.000000, 8240.000000
1796, 52025456.000000, 2137.250000, 8238.000000, 8233.000000, 8249.000000
1797, 52025616.000000, 2306.000000, 8244.000000, 8239.000000, 8255.000000
1798, 52025776.000000, 2433.500000, 8249.000000, 8243.000000, 8264.000000
1799, 52025936.000000, 2493.250000, 8253.000000, 8247.000000, 8273.000000
1800, 52026096.000000, 2483.500000, 8250.000000, 8245.000000, 8271.000000
1801, 52026256.000000, 2419.000000, 8244.000000, 8241.000000, 8265.000000
1802, 52026416.000000, 2312.250000, 8237.000000, 8224.000000, 8249.000000
1803, 52026576.000000, 2169.500000, 8217.000000, 8206.000000, 8220.000000
1804, 52026736.000000, 1991.000000, 8208.000000, 8197.000000, 8203.000000
1805, 52026896.000000, 1793.250000, 8203.000000, 8196.000000, 8202.000000
1806, 52027056.000000, 1604.500000, 8203.000000, 8195.000000, 8201.000000
1807, 52027216.000000, 1475.250000, 8208.000000, 8193.000000, 8201.000000
1808, 52027376.000000, 1430.750000, 8204.000000, 8193.000000, 8200.000000
1809, 52027536.000000, 1459.000000, 8211.000000, 8196.000000, 8204.000000
1810, 52027696.000000, 1501.750000, 8206.000000, 8192.000000, 8198.000000
1811, 52027856.000000, 1516.250000, 8205.000000, 8189.000000, 8193.000000
1812, 52028016.000000, 1491.000000, 8210.000000, 8195.000000, 8206.000000
1813, 52028176.000000, 1445.500000, 8214.000000, 8201.000000, 8219.000000
1814, 52028336.000000, 1411.750000, 8225.000000, 8211.000000, 8244.000000
1815, 52028496.000000, 1461.000000, 8225.000000, 8206.000000, 8237.000000
1816, 52028656.000000, 1651.250000, 8198.000000, 8183.000000, 8180.000000
1817, 52028816.000000, 1990.750000, 8188.000000, 8174.000000, 8157.000000
1818, 52028976.000000, 2377.500000, 8190.000000, 8173.000000, 8155.000000
1819, 52029136.000000, 2700.000000, 8186.000000, 8174.000000, 8155.000000
1820, 52029296.000000, 2889.750000, 8173.000000, 8220.000000, 8195.000000
1821, 52029456.000000, 2945.250000, 8441.000000, 8097.000000, 8228.000000
1822, 52029616.000000, 2885.000000, 8338.000000, 7918.000000, 7970.000000
1823, 52029776.000000, 2760.500000, 8191.000000, 8140.000000, 8123.000000
1824, 52029936.000000, 2610.500000, 8198.000000, 8210.000000, 8199.000000
1825, 52030096.000000, 2459.750000, 8196.000000, 8220.000000, 8208.000000
1826, 52030256.000000, 2335.500000, 8195.000000, 8226.000000, 8213.000000
1827, 52030416.000000, 2260.750000, 8198.000000, 8227.000000, 8214.000000
1828, 52030576.000000, 2238.250000, 8207.000000, 8234.000000, 8227.000000
1829, 52030736.000000, 2254.250000, 8211.000000, 8241.000000, 8239.000000
1830, 52030896.000000, 2288.500000, 8220.000000, 8248.000000, 8250.000000
1831, 52031056.000000, 2316.500000, 8222.000000, 8250.000000, 8251.000000
1832, 52031216.000000, 2327.500000, 8217.000000, 8247.000000, 8247.000000
1833, 52031376.000000, 2320.250000, 8212.000000, 8242.000000, 8242.000000
1834, 52031536.000000, 2282.250000, 8206.000000, 8236.000000, 8242.000000
1835, 52031696.000000, 2183.000000, 8192.000000, 8223.000000, 8224.000000
1836, 52031856.000000, 2016.000000, 8174.000000, 8210.000000, 8199.000000
1837, 52032016.000000, 1816.000000, 8166.000000, 8203.000000, 8187.000000
1838, 52032176.000000, 1629.250000, 8169.000000, 8203.000000, 8189.000000
1839, 52032336.000000, 1487.000000, 8174.000000, 8206.000000, 8197.000000
1840, 52032496.000000, 1396.000000, 8176.000000, 8205.000000, 8196.000000
1841, 52032656.000000, 1365.750000, 8181.000000, 8204.000000, 8196.000000
1842, 52032816.000000, 1398.250000, 8178.000000, 8198.000000, 8188.000000
1843, 52032976.000000, 1469.500000, 8177.000000, 8196.000000, 8185.000000
1844, 52033136.000000, 1532.000000, 8177.000000, 8196.000000, 8187.000000
1845, 52033296.000000, 1550.000000, 8173.000000, 8194.000000, 8181.000000
1846, 52033456.000000, 1514.750000, 8181.000000, 8200.000000, 8198.000000
1847, 52033616.000000, 1468.750000, 8190.000000, 8211.000000, 8217.000000
1848, 52033776.000000, 1483.750000, 8197.000000, 8218.000000, 8238.000000
1849, 52033936.000000, 1638.250000, 8198.000000, 8212.000000, 8229.000000
1850, 52034096.000000, 1917.750000, 8174.000000, 8191.000000, 8174.000000
1851, 52034256.000000, 2256.500000, 8165.000000, 8183.000000, 8156.000000
1852, 52034416.000000, 2562.500000, 8164.000000, 8177.000000, 8146.000000
1853, 52034576.000000, 2778.750000, 8165.000000, 8179.000000, 8148.000000
1854, 52034736.000000, 2871.000000, 8164.000000, 8220.000000, 8193.000000
1855, 52034896.000000, 2856.500000, 8436.000000, 8006.000000, 8138.000000
1856, 52035056.000000, 2765.750000, 8264.000000, 7923.000000, 7928.000000
1857, 52035216.000000, 2619.500000, 8174.000000, 8174.000000, 8153.000000
1858, 52035376.000000, 2450.000000, 8170.000000, 8216.000000, 8191.000000
1859, 52035536.000000, 2295.000000, 8165.000000, 8226.000000, 8201.000000
1860, 52035696.000000, 2192.500000, 8169.000000, 8231.000000, 8207.000000
1861, 52035856.000000, 2154.250000, 8175.000000, 8232.000000, 8210.000000
1862, 52036016.000000, 2176.250000, 8182.000000, 8234.000000, 8217.000000
1863, 52036176.000000, 2219.500000, 8190.000000, 8242.000000, 8230.000000
1864, 52036336.000000, 2257.250000, 8196.000000, 8247.000000, 8239.000000
1865, 52036496.000000, 2262.000000, 8199.000000, 8251.000000, 8245.000000
1866, 52036656.000000, 2238.750000, 8196.000000, 8252.000000, 8244.000000
1867, 52036816.000000, 2188.250000, 8187.000000, 8242.000000, 8232.000000
1868, 52036976.000000, 2127.500000, 8184.000000, 8233.000000, 8225.000000
1869, 52037136.000000, 2062.250000, 8172.000000, 8221.000000, 8211.000000
1870, 52037296.000000, 1996.250000, 8162.000000, 8209.000000, 8192.000000
1871, 52037456.000000, 1939.000000, 8157.000000, 8206.000000, 8184.000000
1872, 52037616.000000, 1893.250000, 8159.000000, 8206.000000, 8185.000000
1873, 52037776.000000, 1856.750000, 8161.000000, 8205.000000, 8184.000000
1874, 52037936.000000, 1828.500000, 8165.000000, 8205.000000, 8188.000000
1875, 52038096.000000, 1810.750000, 8165.000000, 8203.000000, 8184.000000
1876, 52038256.000000, 1800.750000, 8165.000000, 8202.000000, 8183.000000
1877, 52038416.000000, 1792.750000, 8164.000000, 8196.000000, 8175.000000
1878, 52038576.000000, 1777.750000, 8161.000000, 8194.000000, 8171.000000
1879, 52038736.000000, 1751.500000, 8159.000000, 8194.000000, 8169.000000
1880, 52038896.000000, 1721.250000, 8173.000000, 8207.000000, 8200.000000
1881, 52039056.000000, 1739.500000, 8185.000000, 8218.000000, 8226.000000
1882, 52039216.000000, 1860.000000, 8185.000000, 8212.000000, 8220.000000
1883, 52039376.000000, 2105.500000, 8176.000000, 8202.000000, 8197.000000
1884, 52039536.000000, 2407.500000, 8159.000000, 8184.000000, 8153.000000
1885, 52039696.000000, 2681.500000, 8154.000000, 8180.000000, 8144.000000
1886, 52039856.000000, 2866.500000, 8155.000000, 8179.000000, 8142.000000
1887, 52040016.000000, 2943.250000, 8147.000000, 8188.000000, 8143.000000
1888, 52040176.000000, 2926.000000, 8229.000000, 8207.000000, 8217.000000
1889, 52040336.000000, 2833.750000, 8473.000000, 7866.000000, 8026.000000
1890, 52040496.000000, 2696.250000, 8144.000000, 8040.000000, 7987.000000
1891, 52040656.000000, 2532.500000, 8167.000000, 8204.000000, 8179.000000
1892, 52040816.000000, 2375.750000, 8161.000000, 8224.000000, 8195.000000
1893, 52040976.000000, 2256.250000, 8160.000000, 8227.000000, 8197.000000
1894, 52041136.000000, 2191.250000, 8164.000000, 8232.000000, 8205.000000
1895, 52041296.000000, 2183.000000, 8170.000000, 8237.000000, 8214.000000
1896, 52041456.000000, 2213.250000, 8177.000000, 8241.000000, 8224.000000
1897, 52041616.000000, 2255.000000, 8185.000000, 8245.000000, 8232.000000
1898, 52041776.000000, 2286.000000, 8191.000000, 8248.000000, 8237.000000
1899, 52041936.000000, 2289.500000, 8192.000000, 8251.000000, 8242.000000
1900, 52042096.000000, 2262.750000, 8189.000000, 8248.000000, 8241.000000
1901, 52042256.000000, 2217.250000, 8182.000000, 8245.000000, 8236.000000
1902, 52042416.000000, 2158.000000, 8178.000000, 8232.000000, 8224.000000
1903, 52042576.000000, 2098.250000, 8163.000000, 8218.000000, 8202.000000
1904, 52042736.000000, 2046.750000, 8153.000000, 8209.000000, 8186.000000
1905, 52042896.000000, 2004.250000, 8152.000000, 8209.000000, 8184.000000
1906, 52043056.000000, 1969.250000, 8157.000000, 8208.000000, 8188.000000
1907, 52043216.000000, 1936.750000, 8163.000000, 8205.000000, 8187.000000
1908, 52043376.000000, 1907.750000, 8163.000000, 8203.000000, 8185.000000
1909, 52043536.000000, 1883.750000, 8165.000000, 8203.000000, 8188.000000
1910, 52043696.000000, 1865.500000, 8163.000000, 8202.000000, 8186.000000
1911, 52043856.000000, 1849.250000, 8164.000000, 8197.000000, 8180.000000
1912, 52044016.000000, 1827.500000, 8163.000000, 8193.000000, 8175.000000
1913, 52044176.000000, 1795.750000, 8166.000000, 8190.000000, 8172.000000
1914, 52044336.000000, 1772.750000, 8175.000000, 8200.000000, 8196.000000
1915, 52044496.000000, 1810.000000, 8184.000000, 8213.000000, 8219.000000
1916, 52044656.000000, 1965.250000, 8191.000000, 8216.000000, 8236.000000
1917, 52044816.000000, 2225.750000, 8188.000000, 8207.000000, 8221.000000
1918, 52044976.000000, 2521.250000, 8168.000000, 8186.000000, 8167.000000
1919, 52045136.000000, 2760.250000, 8163.000000, 8182.000000, 8158.000000
1920, 52045296.000000, 2901.500000, 8161.000000, 8178.000000, 8149.000000
1921, 52045456.000000, 2923.500000, 8160.000000, 8179.000000, 8149.000000
1922, 52045616.000000, 2854.250000, 8171.000000, 8212.000000, 8191.000000
1923, 52045776.000000, 2722.250000, 8476.000000, 7966.000000, 8126.000000
1924, 52045936.000000, 2556.250000, 8217.000000, 7954.000000, 7938.000000
1925, 52046096.000000, 2383.500000, 8174.000000, 8182.000000, 8167.000000
1926, 52046256.000000, 2232.500000, 8167.000000, 8214.000000, 8193.000000
1927, 52046416.000000, 2133.000000, 8167.000000, 8219.000000, 8198.000000
1928, 52046576.000000, 2094.750000, 8170.000000, 8224.000000, 8205.000000
1929, 52046736.000000, 2102.500000, 8174.000000, 8228.000000, 8213.000000
1930, 52046896.000000, 2134.250000, 8183.000000, 8232.000000, 8221.000000
1931, 52047056.000000, 2165.250000, 8191.000000, 8238.000000, 8233.000000
1932, 52047216.000000, 2178.500000, 8197.000000, 8241.000000, 8238.000000
1933, 52047376.000000, 2168.250000, 8204.000000, 8241.000000, 8242.000000
1934, 52047536.000000, 2134.000000, 8201.000000, 8239.000000, 8240.000000
1935, 52047696.000000, 2085.750000, 8194.000000, 8237.000000, 8237.000000
1936, 52047856.000000, 2030.500000, 8191.000000, 8232.000000, 8236.000000
1937, 52048016.000000, 1975.750000, 8178.000000, 8214.000000, 8210.000000
1938, 52048176.000000, 1924.750000, 8164.000000, 8203.000000, 8190.000000
1939, 52048336.000000, 1882.500000, 8160.000000, 8200.000000, 8184.000000
1940, 52048496.000000, 1850.750000, 8168.000000, 8201.000000, 8190.000000
1941, 52048656.000000, 1826.750000, 8173.000000, 8200.000000, 8191.000000
1942, 52048816.000000, 1803.250000, 8175.000000, 8196.000000, 8188.000000
1943, 52048976.000000, 1785.500000, 8176.000000, 8193.000000, 8184.000000
1944, 52049136.000000, 1771.250000, 8179.000000, 8191.000000, 8184.000000
1945, 52049296.000000, 1761.250000, 8180.000000, 8189.000000, 8184.000000
1946, 52049456.000000, 1751.500000, 8178.000000, 8186.000000, 8178.000000
1947, 52049616.000000, 1732.500000, 8183.000000, 8182.000000, 8173.000000
1948, 52049776.000000, 1709.000000, 8192.000000, 8191.000000, 8196.000000
1949, 52049936.000000, 1716.000000, 8204.000000, 8202.000000, 8219.000000
1950, 52050096.000000, 1819.250000, 8215.000000, 8207.000000, 8237.000000
1951, 52050256.000000, 2043.000000, 8214.000000, 8197.000000, 8221.000000
1952, 52050416.000000, 2378.000000, 8191.000000, 8176.000000, 8167.000000
1953, 52050576.000000, 2667.750000, 8189.000000, 8166.000000, 8153.000000
1954, 52050736.000000, 2851.250000, 8191.000000, 8170.000000, 8153.000000
1955, 52050896.000000, 2854.500000, 8185.000000, 8171.000000, 8154.000000
1956, 52051056.000000, 2743.500000, 8222.000000, 8202.000000, 8209.000000
1957, 52051216.000000, 2565.250000, 8505.000000, 7939.000000, 8111.000000
1958, 52051376.000000, 2337.250000, 8224.000000, 7958.000000, 7945.000000
1959, 52051536.000000, 2160.250000, 8205.000000, 8178.000000, 8178.000000
1960, 52051696.000000, 2076.750000, 8200.000000, 8209.000000, 8204.000000
1961, 52051856.000000, 2056.750000, 8198.000000, 8213.000000, 8210.000000
1962, 52052016.000000, 2077.000000, 8201.000000, 8216.000000, 8215.000000
1963, 52052176.000000, 2114.000000, 8210.000000, 8220.000000, 8223.000000
1964, 52052336.000000, 2144.750000, 8217.000000, 8224.000000, 8230.000000
1965, 52052496.000000, 2154.000000, 8228.000000, 8232.000000, 8245.000000
1966, 52052656.000000, 2135.750000, 8233.000000, 8233.000000, 8251.000000
1967, 52052816.000000, 2092.250000, 8239.000000, 8235.000000, 8253.000000
1968, 52052976.000000, 2034.000000, 8235.000000, 8231.000000, 8247.000000
1969, 52053136.000000, 1978.750000, 8231.000000, 8228.000000, 8247.000000
1970, 52053296.000000, 1930.500000, 8220.000000, 8220.000000, 8238.000000
1971, 52053456.000000, 1892.750000, 8205.000000, 8205.000000, 8217.000000
1972, 52053616.000000, 1862.750000, 8196.000000, 8190.000000, 8196.000000
1973, 52053776.000000, 1836.750000, 8189.000000, 8187.000000, 8188.000000
1974, 52053936.000000, 1815.000000, 8191.000000, 8189.000000, 8193.000000
1975, 52054096.000000, 1795.000000, 8199.000000, 8188.000000, 8196.000000
1976, 52054256.000000, 1776.750000, 8202.000000, 8188.000000, 8198.000000
1977, 52054416.000000, 1761.250000, 8203.000000, 8182.000000, 8194.000000
1978, 52054576.000000, 1740.500000, 8201.000000, 8182.000000, 8191.000000
1979, 52054736.000000, 1709.250000, 8201.000000, 8178.000000, 8187.000000
1980, 52054896.000000, 1665.750000, 8199.000000, 8180.000000, 8188.000000
1981, 52055056.000000, 1628.500000, 8207.000000, 8185.000000, 8202.000000
1982, 52055216.000000, 1636.500000, 8209.000000, 8193.000000, 8217.000000
1983, 52055376.000000, 1753.500000, 8220.000000, 8203.000000, 8241.000000
1984, 52055536.000000, 1987.750000, 8218.000000, 8195.000000, 8231.000000
1985, 52055696.000000, 2285.750000, 8197.000000, 8177.000000, 8181.000000
1986, 52055856.000000, 2554.750000, 8188.000000, 8168.000000, 8163.000000
1987, 52056016.000000, 2728.750000, 8189.000000, 8164.000000, 8157.000000
1988, 52056176.000000, 2790.250000, 8186.000000, 8167.000000, 8156.000000
1989, 52056336.000000, 2753.000000, 8185.000000, 8213.000000, 8206.000000
1990, 52056496.000000, 2638.500000, 8460.000000, 8070.000000, 8222.000000
1991, 52056656.000000, 2471.000000, 8281.000000, 7934.000000, 7968.000000
1992, 52056816.000000, 2280.000000, 8179.000000, 8143.000000, 8132.000000
1993, 52056976.000000, 2107.000000, 8183.000000, 8196.000000, 8187.000000
1994, 52057136.000000, 1988.500000, 8181.000000, 8208.000000, 8198.000000
1995, 52057296.000000, 1943.500000, 8185.000000, 8213.000000, 8204.000000
1996, 52057456.000000, 1960.500000, 8188.000000, 8216.000000, 8211.000000
1997, 52057616.000000, 2011.500000, 8193.000000, 8222.000000, 8220.000000
1998, 52057776.000000, 2064.000000, 8202.000000, 8227.000000, 8227.000000
1999, 52057936.000000, 2092.750000, 8211.000000, 8236.000000, 8242.000000
2000, 52058096.000000, 2086.250000, 8216.000000, 8240.000000, 8245.000000
2001, 52058256.000000, 2047.000000, 8212.000000, 8238.000000, 8244.000000
2002, 52058416.000000, 1991.000000, 8206.000000, 8232.000000, 8236.000000
2003, 52058576.000000, 1927.500000, 8199.000000, 8224.000000, 8230.000000
2004, 52058736.000000, 1866.500000, 8184.000000, 8209.000000, 8211.000000
2005, 52058896.000000, 1819.000000, 8170.000000, 8199.000000, 8194.000000
2006, 52059056.000000, 1784.000000, 8162.000000, 8195.000000, 8184.000000
2007, 52059216.000000, 1759.750000, 8161.000000, 8194.000000, 8185.000000
2008, 52059376.000000, 1739.750000, 8167.000000, 8194.000000, 8185.000000
2009, 52059536.000000, 1723.750000, 8171.000000, 8195.000000, 8188.000000
2010, 52059696.000000, 1709.500000, 8173.000000, 8193.000000, 8188.000000
2011, 52059856.000000, 1693.250000, 8174.000000, 8192.000000, 8187.000000
2012, 52060016.000000, 1670.750000, 8170.000000, 8188.000000, 8181.000000
2013, 52060176.000000, 1635.250000, 8169.000000, 8184.000000, 8176.000000
2014, 52060336.000000, 1596.750000, 8168.000000, 8184.000000, 8175.000000
2015, 52060496.000000, 1580.750000, 8171.000000, 8190.000000, 8185.000000
2016, 52060656.000000, 1633.500000, 8180.000000, 8205.000000, 8212.000000
2017, 52060816.000000, 1805.250000, 8193.000000, 8214.000000, 8240.000000
2018, 52060976.000000, 2069.250000, 8190.000000, 8205.000000, 8223.000000
2019, 52061136.000000, 2355.250000, 8169.000000, 8188.000000, 8178.000000
2020, 52061296.000000, 2577.750000, 8161.000000, 8177.000000, 8154.000000
2021, 52061456.000000, 2695.250000, 8160.000000, 8175.000000, 8151.000000
2022, 52061616.000000, 2699.000000, 8158.000000, 8174.000000, 8149.000000
2023, 52061776.000000, 2613.750000, 8147.000000, 8218.000000, 8189.000000
2024, 52061936.000000, 2459.500000, 8405.000000, 8095.000000, 8214.000000
2025, 52062096.000000, 2263.500000, 8348.000000, 7881.000000, 7944.000000
2026, 52062256.000000, 2069.000000, 8161.000000, 8144.000000, 8123.000000
2027, 52062416.000000, 1919.500000, 8162.000000, 8209.000000, 8188.000000
2028, 52062576.000000, 1849.750000, 8163.000000, 8218.000000, 8198.000000
2029, 52062736.000000, 1851.750000, 8167.000000, 8223.000000, 8204.000000
2030, 52062896.000000, 1903.750000, 8173.000000, 8228.000000, 8213.000000
2031, 52063056.000000, 1966.750000, 8177.000000, 8233.000000, 8222.000000
2032, 52063216.000000, 2011.000000, 8187.000000, 8238.000000, 8230.000000
2033, 52063376.000000, 2018.500000, 8195.000000, 8243.000000, 8240.000000
2034, 52063536.000000, 1988.500000, 8203.000000, 8248.000000, 8250.000000
2035, 52063696.000000, 1929.000000, 8198.000000, 8249.000000, 8248.000000
2036, 52063856.000000, 1855.500000, 8192.000000, 8244.000000, 8243.000000
2037, 52064016.000000, 1784.500000, 8187.000000, 8236.000000, 8238.000000
2038, 52064176.000000, 1725.500000, 8176.000000, 8218.000000, 8215.000000
2039, 52064336.000000, 1681.500000, 8162.000000, 8205.000000, 8194.000000
2040, 52064496.000000, 1652.500000, 8154.000000, 8201.000000, 8185.000000
2041, 52064656.000000, 1631.000000, 8157.000000, 8200.000000, 8186.000000
2042, 52064816.000000, 1611.000000, 8161.000000, 8200.000000, 8187.000000
2043, 52064976.000000, 1592.250000, 8165.000000, 8198.000000, 8187.000000
2044, 52065136.000000, 1577.250000, 8168.000000, 8198.000000, 8189.000000
2045, 52065296.000000, 1562.500000, 8167.000000, 8196.000000, 8185.000000
2046, 52065456.000000, 1544.250000, 8166.000000, 8193.000000, 8183.000000
2047, 52065616.000000, 1513.500000, 8162.000000, 8189.000000, 8174.000000
2048, 52065776.000000, 1483.250000, 8161.000000, 8187.000000, 8172.000000
2049, 52065936.000000, 1506.750000, 8162.000000, 8186.000000, 8171.000000
2050, 52066096.000000, 1648.750000, 8163.000000, 8187.000000, 8171.000000
2051, 52066256.000000, 1935.500000, 8163.000000, 8187.000000, 8173.000000
2052, 52066416.000000, 2289.250000, 8179.000000, 8203.000000, 8209.000000
2053, 52066576.000000, 2608.250000, 8187.000000, 8214.000000, 8232.000000
2054, 52066736.000000, 2811.500000, 8186.000000, 8205.000000, 8218.000000
2055, 52066896.000000, 2877.750000, 8173.000000, 8192.000000, 8187.000000
2056, 52067056.000000, 2826.000000, 8159.000000, 8179.000000, 8154.000000
2057, 52067216.000000, 2690.500000, 8154.000000, 8173.000000, 8141.000000
2058, 52067376.000000, 2510.500000, 8156.000000, 8172.000000, 8141.000000
2059, 52067536.000000, 2309.500000, 8140.000000, 8205.000000, 8166.000000
2060, 52067696.000000, 2131.250000, 8327.000000, 8163.000000, 8240.000000
2061, 52067856.000000, 2011.000000, 8425.000000, 7833.000000, 7939.000000
2062, 52068016.000000, 1972.000000, 8141.000000, 8099.000000, 8052.000000
2063, 52068176.000000, 1992.500000, 8155.000000, 8200.000000, 8165.000000
2064, 52068336.000000, 2043.500000, 8150.000000, 8213.000000, 8174.000000
2065, 52068496.000000, 2086.250000, 8149.000000, 8217.000000, 8176.000000
2066, 52068656.000000, 2103.000000, 8153.000000, 8218.000000, 8179.000000
2067, 52068816.000000, 2081.750000, 8156.000000, 8220.000000, 8181.000000
2068, 52068976.000000, 2027.500000, 8163.000000, 8224.000000, 8188.000000
2069, 52069136.000000, 1955.250000, 8173.000000, 8231.000000, 8200.000000
2070, 52069296.000000, 1876.750000, 8181.000000, 8237.000000, 8209.000000
2071, 52069456.000000, 1805.500000, 8181.000000, 8236.000000, 8208.000000
2072, 52069616.000000, 1745.500000, 8172.000000, 8232.000000, 8200.000000
2073, 52069776.000000, 1701.250000, 8165.000000, 8225.000000, 8194.000000
2074, 52069936.000000, 1667.000000, 8156.000000, 8210.000000, 8177.000000
2075, 52070096.000000, 1640.500000, 8140.000000, 8196.000000, 8153.000000
2076, 52070256.000000, 1613.750000, 8131.000000, 8185.000000, 8136.000000
2077, 52070416.000000, 1588.500000, 8130.000000, 8181.000000, 8129.000000
2078, 52070576.000000, 1564.250000, 8135.000000, 8181.000000, 8132.000000
2079, 52070736.000000, 1543.000000, 8138.000000, 8184.000000, 8137.000000
2080, 52070896.000000, 1525.500000, 8142.000000, 8183.000000, 8139.000000
2081, 52071056.000000, 1510.500000, 8139.000000, 8179.000000, 8133.000000
2082, 52071216.000000, 1489.750000, 8139.000000, 8176.000000, 8130.000000
2083, 52071376.000000, 1453.750000, 8140.000000, 8173.000000, 8126.000000
2084, 52071536.000000, 1419.500000, 8139.000000, 8172.000000, 8124.000000
2085, 52071696.000000, 1440.750000, 8139.000000, 8172.000000, 8124.000000
2086, 52071856.000000, 1611.000000, 8137.000000, 8170.000000, 8121.000000
2087, 52072016.000000, 1938.250000, 8140.000000, 8168.000000, 8121.000000
2088, 52072176.000000, 2333.750000, 8139.000000, 8167.000000, 8119.000000
2089, 52072336.000000, 2666.250000, 8138.000000, 8168.000000, 8119.000000
2090, 52072496.000000, 2862.500000, 8156.000000, 8187.000000, 8162.000000
2091, 52072656.000000, 2899.750000, 8164.000000, 8196.000000, 8181.000000
2092, 52072816.000000, 2815.250000, 8164.000000, 8190.000000, 8173.000000
2093, 52072976.000000, 2661.750000, 8157.000000, 8179.000000, 8153.000000
2094, 52073136.000000, 2470.750000, 8140.000000, 8165.000000, 8112.000000
2095, 52073296.000000, 2271.500000, 8138.000000, 8162.000000, 8107.000000
2096, 52073456.000000, 2089.500000, 8138.000000, 8160.000000, 8105.000000
2097, 52073616.000000, 1963.000000, 8124.000000, 8174.000000, 8106.000000
2098, 52073776.000000, 1906.500000, 8237.000000, 8183.000000, 8194.000000
2099, 52073936.000000, 1908.250000, 8439.000000, 7826.000000, 7946.000000
2100, 52074096.000000, 1936.750000, 8122.000000, 8041.000000, 7966.000000
2101, 52074256.000000, 1962.000000, 8149.000000, 8190.000000, 8145.000000
2102, 52074416.000000, 1959.500000, 8142.000000, 8204.000000, 8154.000000
2103, 52074576.000000, 1918.750000, 8147.000000, 8209.000000, 8162.000000
2104, 52074736.000000, 1848.750000, 8150.000000, 8214.000000, 8171.000000
2105, 52074896.000000, 1764.250000, 8158.000000, 8219.000000, 8182.000000
2106, 52075056.000000, 1678.250000, 8164.000000, 8223.000000, 8188.000000
2107, 52075216.000000, 1601.000000, 8174.000000, 8228.000000, 8199.000000
2108, 52075376.000000, 1535.250000, 8183.000000, 8233.000000, 8208.000000
2109, 52075536.000000, 1480.250000, 8188.000000, 8237.000000, 8216.000000
2110, 52075696.000000, 1436.000000, 8181.000000, 8235.000000, 8211.000000
2111, 52075856.000000, 1398.000000, 8174.000000, 8231.000000, 8208.000000
2112, 52076016.000000, 1369.750000, 8165.000000, 8217.000000, 8194.000000
2113, 52076176.000000, 1348.250000, 8152.000000, 8200.000000, 8169.000000
2114, 52076336.000000, 1330.000000, 8142.000000, 8189.000000, 8151.000000
2115, 52076496.000000, 1313.250000, 8141.000000, 8187.000000, 8150.000000
2116, 52076656.000000, 1293.000000, 8143.000000, 8189.000000, 8152.000000
2117, 52076816.000000, 1273.000000, 8147.000000, 8186.000000, 8151.000000
2118, 52076976.000000, 1252.000000, 8151.000000, 8184.000000, 8152.000000
2119, 52077136.000000, 1238.000000, 8152.000000, 8185.000000, 8152.000000
2120, 52077296.000000, 1224.000000, 8152.000000, 8182.000000, 8149.000000
2121, 52077456.000000, 1194.000000, 8151.000000, 8179.000000, 8145.000000
2122, 52077616.000000, 1157.000000, 8149.000000, 8175.000000, 8138.000000
2123, 52077776.000000, 1158.250000, 8148.000000, 8171.000000, 8133.000000
2124, 52077936.000000, 1290.250000, 8146.000000, 8171.000000, 8130.000000
2125, 52078096.000000, 1574.250000, 8148.000000, 8172.000000, 8132.000000
2126, 52078256.000000, 1956.750000, 8149.000000, 8169.000000, 8128.000000
2127, 52078416.000000, 2309.000000, 8149.000000, 8168.000000, 8127.000000
2128, 52078576.000000, 2547.000000, 8148.000000, 8167.000000, 8125.000000
2129, 52078736.000000, 2632.000000, 8149.000000, 8167.000000, 8124.000000
2130, 52078896.000000, 2593.500000, 8150.000000, 8169.000000, 8128.000000
2131, 52079056.000000, 2469.500000, 8149.000000, 8168.000000, 8125.000000
2132, 52079216.000000, 2301.750000, 8161.000000, 8180.000000, 8153.000000
2133, 52079376.000000, 2118.750000, 8172.000000, 8190.000000, 8176.000000
2134, 52079536.000000, 1942.750000, 8172.000000, 8189.000000, 8177.000000
2135, 52079696.000000, 1803.500000, 8166.000000, 8182.000000, 8162.000000
2136, 52079856.000000, 1722.750000, 8150.000000, 8165.000000, 8120.000000
2137, 52080016.000000, 1698.000000, 8145.000000, 8158.000000, 8106.000000
2138, 52080176.000000, 1708.250000, 8145.000000, 8156.000000, 8102.000000
2139, 52080336.000000, 1723.750000, 8134.000000, 8171.000000, 8108.000000
2140, 52080496.000000, 1719.500000, 8226.000000, 8185.000000, 8187.000000
2141, 52080656.000000, 1691.500000, 8451.000000, 7843.000000, 7973.000000
2142, 52080816.000000, 1637.250000, 8130.000000, 8025.000000, 7953.000000
2143, 52080976.000000, 1566.500000, 8156.000000, 8184.000000, 8143.000000
2144, 52081136.000000, 1494.750000, 8150.000000, 8205.000000, 8162.000000
2145, 52081296.000000, 1430.000000, 8152.000000, 8211.000000, 8168.000000
2146, 52081456.000000, 1375.000000, 8157.000000, 8214.000000, 8176.000000
2147, 52081616.000000, 1330.000000, 8164.000000, 8217.000000, 8184.000000
2148, 52081776.000000, 1292.500000, 8172.000000, 8223.000000, 8195.000000
2149, 52081936.000000, 1260.000000, 8180.000000, 8231.000000, 8210.000000
2150, 52082096.000000, 1230.750000, 8191.000000, 8239.000000, 8224.000000
2151, 52082256.000000, 1207.000000, 8193.000000, 8240.000000, 8226.000000
2152, 52082416.000000, 1188.500000, 8190.000000, 8237.000000, 8223.000000
2153, 52082576.000000, 1176.250000, 8183.000000, 8234.000000, 8219.000000
2154, 52082736.000000, 1168.750000, 8179.000000, 8225.000000, 8214.000000
2155, 52082896.000000, 1160.250000, 8163.000000, 8207.000000, 8189.000000
2156, 52083056.000000, 1150.000000, 8150.000000, 8196.000000, 8169.000000
2157, 52083216.000000, 1137.500000, 8148.000000, 8188.000000, 8158.000000
2158, 52083376.000000, 1122.500000, 8153.000000, 8188.000000, 8161.000000
2159, 52083536.000000, 1107.500000, 8157.000000, 8188.000000, 8164.000000
2160, 52083696.000000, 1093.250000, 8159.000000, 8188.000000, 8167.000000
2161, 52083856.000000, 1082.000000, 8161.000000, 8188.000000, 8167.000000
2162, 52084016.000000, 1066.250000, 8163.000000, 8185.000000, 8167.000000
2163, 52084176.000000, 1037.500000, 8161.000000, 8181.000000, 8160.000000
2164, 52084336.000000, 1003.250000, 8162.000000, 8179.000000, 8158.000000
2165, 52084496.000000, 1001.500000, 8162.000000, 8178.000000, 8157.000000
2166, 52084656.000000, 1118.250000, 8159.000000, 8176.000000, 8153.000000
2167, 52084816.000000, 1384.250000, 8161.000000, 8176.000000, 8153.000000
2168, 52084976.000000, 1741.500000, 8162.000000, 8173.000000, 8150.000000
2169, 52085136.000000, 2071.500000, 8162.000000, 8174.000000, 8151.000000
2170, 52085296.000000, 2303.500000, 8162.000000, 8177.000000, 8154.000000
2171, 52085456.000000, 2402.500000, 8164.000000, 8177.000000, 8156.000000
2172, 52085616.000000, 2388.000000, 8163.000000, 8174.000000, 8152.000000
2173, 52085776.000000, 2302.000000, 8166.000000, 8176.000000, 8156.000000
2174, 52085936.000000, 2171.750000, 8166.000000, 8177.000000, 8157.000000
2175, 52086096.000000, 2022.250000, 8166.000000, 8179.000000, 8159.000000
2176, 52086256.000000, 1872.250000, 8167.000000, 8181.000000, 8162.000000
2177, 52086416.000000, 1750.500000, 8182.000000, 8194.000000, 8196.000000
2178, 52086576.000000, 1679.750000, 8188.000000, 8200.000000, 8210.000000
2179, 52086736.000000, 1659.250000, 8186.000000, 8194.000000, 8201.000000
2180, 52086896.000000, 1671.000000, 8180.000000, 8185.000000, 8178.000000
2181, 52087056.000000, 1687.250000, 8165.000000, 8175.000000, 8152.000000
2182, 52087216.000000, 1693.250000, 8167.000000, 8172.000000, 8149.000000
2183, 52087376.000000, 1677.750000, 8165.000000, 8170.000000, 8147.000000
2184, 52087536.000000, 1633.500000, 8143.000000, 8204.000000, 8169.000000
2185, 52087696.000000, 1571.500000, 8355.000000, 8151.000000, 8247.000000
2186, 52087856.000000, 1508.000000, 8443.000000, 7855.000000, 7977.000000
2187, 52088016.000000, 1453.000000, 8158.000000, 8111.000000, 8082.000000
2188, 52088176.000000, 1406.250000, 8170.000000, 8205.000000, 8188.000000
2189, 52088336.000000, 1367.500000, 8167.000000, 8218.000000, 8201.000000
2190, 52088496.000000, 1335.000000, 8168.000000, 8226.000000, 8209.000000
2191, 52088656.000000, 1305.500000, 8171.000000, 8226.000000, 8213.000000
2192, 52088816.000000, 1283.000000, 8177.000000, 8230.000000, 8219.000000
2193, 52088976.000000, 1264.500000, 8184.000000, 8235.000000, 8227.000000
2194, 52089136.000000, 1249.500000, 8192.000000, 8241.000000, 8238.000000
2195, 52089296.000000, 1238.000000, 8206.000000, 8249.000000, 8257.000000
2196, 52089456.000000, 1229.750000, 8207.000000, 8250.000000, 8257.000000
2197, 52089616.000000, 1222.750000, 8201.000000, 8245.000000, 8250.000000
2198, 52089776.000000, 1221.000000, 8195.000000, 8240.000000, 8245.000000
2199, 52089936.000000, 1220.750000, 8186.000000, 8228.000000, 8233.000000
2200, 52090096.000000, 1214.750000, 8174.000000, 8213.000000, 8212.000000
2201, 52090256.000000, 1202.250000, 8161.000000, 8200.000000, 8189.000000
2202, 52090416.000000, 1184.750000, 8157.000000, 8197.000000, 8183.000000
2203, 52090576.000000, 1169.250000, 8163.000000, 8195.000000, 8185.000000
2204, 52090736.000000, 1153.250000, 8168.000000, 8196.000000, 8189.000000
2205, 52090896.000000, 1142.000000, 8171.000000, 8196.000000, 8191.000000
2206, 52091056.000000, 1132.000000, 8175.000000, 8196.000000, 8194.000000
2207, 52091216.000000, 1120.250000, 8173.000000, 8191.000000, 8186.000000
2208, 52091376.000000, 1098.750000, 8175.000000, 8188.000000, 8184.000000
2209, 52091536.000000, 1069.750000, 8172.000000, 8185.000000, 8179.000000
2210, 52091696.000000, 1073.250000, 8174.000000, 8185.000000, 8180.000000
2211, 52091856.000000, 1180.000000, 8174.000000, 8185.000000, 8180.000000
2212, 52092016.000000, 1426.500000, 8174.000000, 8183.000000, 8176.000000
2213, 52092176.000000, 1743.250000, 8175.000000, 8182.000000, 8174.000000
2214, 52092336.000000, 2032.750000, 8176.000000, 8184.000000, 8179.000000
2215, 52092496.000000, 2223.250000, 8173.000000, 8185.000000, 8178.000000
2216, 52092656.000000, 2306.000000, 8178.000000, 8186.000000, 8182.000000
2217, 52092816.000000, 2291.750000, 8175.000000, 8184.000000, 8178.000000
2218, 52092976.000000, 2217.250000, 8176.000000, 8184.000000, 8177.000000
2219, 52093136.000000, 2109.250000, 8178.000000, 8186.000000, 8180.000000
2220, 52093296.000000, 1985.750000, 8194.000000, 8204.000000, 8220.000000
2221, 52093456.000000, 1864.000000, 8199.000000, 8210.000000, 8234.000000
2222, 52093616.000000, 1765.500000, 8198.000000, 8201.000000, 8222.000000
2223, 52093776.000000, 1714.000000, 8190.000000, 8191.000000, 8195.000000
2224, 52093936.000000, 1709.750000, 8181.000000, 8179.000000, 8171.000000
2225, 52094096.000000, 1735.000000, 8179.000000, 8178.000000, 8167.000000
2226, 52094256.000000, 1762.750000, 8180.000000, 8176.000000, 8167.000000
2227, 52094416.000000, 1776.250000, 8166.000000, 8205.000000, 8187.000000
2228, 52094576.000000, 1768.750000, 8360.000000, 8170.000000, 8273.000000
2229, 52094736.000000, 1741.250000, 8475.000000, 7858.000000, 8004.000000
2230, 52094896.000000, 1696.000000, 8176.000000, 8101.000000, 8084.000000
2231, 52095056.000000, 1642.750000, 8190.000000, 8205.000000, 8205.000000
2232, 52095216.000000, 1592.000000, 8191.000000, 8218.000000, 8218.000000
2233, 52095376.000000, 1549.250000, 8193.000000, 8219.000000, 8217.000000
2234, 52095536.000000, 1516.750000, 8198.000000, 8224.000000, 8229.000000
2235, 52095696.000000, 1491.750000, 8204.000000, 8230.000000, 8235.000000
2236, 52095856.000000, 1471.000000, 8214.000000, 8233.000000, 8243.000000
2237, 52096016.000000, 1451.000000, 8222.000000, 8237.000000, 8256.000000
2238, 52096176.000000, 1432.750000, 8236.000000, 8242.000000, 8266.000000
2239, 52096336.000000, 1415.750000, 8243.000000, 8247.000000, 8274.000000
2240, 52096496.000000, 1401.500000, 8237.000000, 8245.000000, 8272.000000
2241, 52096656.000000, 1386.750000, 8229.000000, 8240.000000, 8268.000000
2242, 52096816.000000, 1376.000000, 8220.000000, 8228.000000, 8252.000000
2243, 52096976.000000, 1367.250000, 8201.000000, 8206.000000, 8221.000000
2244, 52097136.000000, 1359.000000, 8188.000000, 8196.000000, 8204.000000
2245, 52097296.000000, 1348.750000, 8184.000000, 8195.000000, 8199.000000
2246, 52097456.000000, 1335.500000, 8190.000000, 8192.000000, 8200.000000
2247, 52097616.000000, 1320.500000, 8190.000000, 8193.000000, 8201.000000
2248, 52097776.000000, 1310.500000, 8195.000000, 8189.000000, 8198.000000
2249, 52097936.000000, 1308.750000, 8198.000000, 8187.000000, 8202.000000
2250, 52098096.000000, 1302.750000, 8197.000000, 8185.000000, 8199.000000
2251, 52098256.000000, 1290.000000, 8198.000000, 8185.000000, 8198.000000
2252, 52098416.000000, 1267.500000, 8192.000000, 8182.000000, 8191.000000
2253, 52098576.000000, 1248.500000, 8195.000000, 8177.000000, 8188.000000
2254, 52098736.000000, 1285.750000, 8195.000000, 8180.000000, 8189.000000
2255, 52098896.000000, 1441.000000, 8195.000000, 8178.000000, 8189.000000
2256, 52099056.000000, 1702.000000, 8190.000000, 8177.000000, 8185.000000
2257, 52099216.000000, 1983.250000, 8196.000000, 8178.000000, 8186.000000
2258, 52099376.000000, 2197.000000, 8195.000000, 8177.000000, 8186.000000
2259, 52099536.000000, 2309.500000, 8195.000000, 8180.000000, 8189.000000
2260, 52099696.000000, 2325.000000, 8194.000000, 8179.000000, 8191.000000
2261, 52099856.000000, 2270.250000, 8195.000000, 8183.000000, 8192.000000
2262, 52100016.000000, 2170.000000, 8208.000000, 8195.000000, 8221.000000
2263, 52100176.000000, 2045.250000, 8218.000000, 8204.000000, 8244.000000
2264, 52100336.000000, 1906.750000, 8213.000000, 8196.000000, 8229.000000
2265, 52100496.000000, 1785.000000, 8206.000000, 8186.000000, 8204.000000
2266, 52100656.000000, 1706.500000, 8188.000000, 8177.000000, 8179.000000
2267, 52100816.000000, 1681.250000, 8189.000000, 8172.000000, 8175.000000
2268, 52100976.000000, 1698.000000, 8190.000000, 8172.000000, 8172.000000
2269, 52101136.000000, 1733.500000, 8174.000000, 8209.000000, 8204.000000
2270, 52101296.000000, 1763.500000, 8398.000000, 8180.000000, 8304.000000
2271, 52101456.000000, 1775.500000, 8430.000000, 7923.000000, 8055.000000
2272, 52101616.000000, 1763.000000, 8162.000000, 8095.000000, 8076.000000
2273, 52101776.000000, 1726.250000, 8191.000000, 8198.000000, 8200.000000
2274, 52101936.000000, 1673.500000, 8186.000000, 8213.000000, 8214.000000
2275, 52102096.000000, 1622.000000, 8186.000000, 8219.000000, 8220.000000
2276, 52102256.000000, 1573.500000, 8192.000000, 8223.000000, 8226.000000
2277, 52102416.000000, 1533.250000, 8194.000000, 8225.000000, 8229.000000
2278, 52102576.000000, 1500.750000, 8206.000000, 8230.000000, 8240.000000
2279, 52102736.000000, 1477.250000, 8217.000000, 8238.000000, 8254.000000
2280, 52102896.000000, 1461.250000, 8228.000000, 8244.000000, 8265.000000
2281, 52103056.000000, 1452.500000, 8230.000000, 8248.000000, 8268.000000
2282, 52103216.000000, 1447.500000, 8224.000000, 8245.000000, 8265.000000
2283, 52103376.000000, 1445.250000, 8218.000000, 8239.000000, 8259.000000
2284, 52103536.000000, 1447.750000, 8205.000000, 8228.000000, 8246.000000
2285, 52103696.000000, 1449.500000, 8186.000000, 8212.000000, 8221.000000
2286, 52103856.000000, 1452.000000, 8169.000000, 8203.000000, 8201.000000
2287, 52104016.000000, 1450.750000, 8164.000000, 8199.000000, 8194.000000
2288, 52104176.000000, 1448.250000, 8167.000000, 8200.000000, 8195.000000
2289, 52104336.000000, 1442.750000, 8172.000000, 8199.000000, 8197.000000
2290, 52104496.000000, 1441.000000, 8176.000000, 8200.000000, 8202.000000
2291, 52104656.000000, 1441.000000, 8177.000000, 8198.000000, 8199.000000
2292, 52104816.000000, 1440.250000, 8176.000000, 8195.000000, 8195.000000
2293, 52104976.000000, 1426.750000, 8173.000000, 8191.000000, 8188.000000
2294, 52105136.000000, 1400.750000, 8175.000000, 8190.000000, 8188.000000
2295, 52105296.000000, 1373.000000, 8174.000000, 8190.000000, 8187.000000
2296, 52105456.000000, 1374.250000, 8175.000000, 8189.000000, 8185.000000
2297, 52105616.000000, 1481.000000, 8170.000000, 8186.000000, 8179.000000
2298, 52105776.000000, 1712.250000, 8172.000000, 8185.000000, 8179.000000
2299, 52105936.000000, 2016.000000, 8176.000000, 8186.000000, 8183.000000
2300, 52106096.000000, 2289.250000, 8172.000000, 8187.000000, 8181.000000
2301, 52106256.000000, 2483.000000, 8172.000000, 8188.000000, 8182.000000
2302, 52106416.000000, 2573.500000, 8173.000000, 8186.000000, 8179.000000
2303, 52106576.000000, 2573.250000, 8183.000000, 8196.000000, 8203.000000
2304, 52106736.000000, 2503.250000, 8193.000000, 8208.000000, 8226.000000
2305, 52106896.000000, 2383.750000, 8198.000000, 8211.000000, 8236.000000
2306, 52107056.000000, 2245.000000, 8195.000000, 8201.000000, 8220.000000
2307, 52107216.000000, 2111.500000, 8175.000000, 8185.000000, 8177.000000
2308, 52107376.000000, 2018.250000, 8170.000000, 8178.000000, 8163.000000
2309, 52107536.000000, 1976.250000, 8171.000000, 8179.000000, 8166.000000
2310, 52107696.000000, 1984.750000, 8166.000000, 8184.000000, 8166.000000
2311, 52107856.000000, 2024.000000, 8200.000000, 8208.000000, 8214.000000
2312, 52108016.000000, 2070.750000, 8464.000000, 7937.000000, 8099.000000
2313, 52108176.000000, 2107.500000, 8195.000000, 7980.000000, 7961.000000
2314, 52108336.000000, 2118.250000, 8180.000000, 8188.000000, 8185.000000
2315, 52108496.000000, 2098.500000, 8175.000000, 8220.000000, 8214.000000
2316, 52108656.000000, 2052.500000, 8173.000000, 8228.000000, 8219.000000
2317, 52108816.000000, 1992.750000, 8175.000000, 8230.000000, 8222.000000
2318, 52108976.000000, 1931.000000, 8183.000000, 8232.000000, 8229.000000
2319, 52109136.000000, 1872.750000, 8189.000000, 8238.000000, 8239.000000
2320, 52109296.000000, 1826.250000, 8198.000000, 8245.000000, 8252.000000
2321, 52109456.000000, 1786.750000, 8209.000000, 8252.000000, 8264.000000
2322, 52109616.000000, 1757.750000, 8215.000000, 8256.000000, 8270.000000
2323, 52109776.000000, 1735.250000, 8214.000000, 8256.000000, 8270.000000
2324, 52109936.000000, 1717.750000, 8208.000000, 8253.000000, 8267.000000
2325, 52110096.000000, 1698.000000, 8198.000000, 8243.000000, 8256.000000
2326, 52110256.000000, 1682.250000, 8179.000000, 8223.000000, 8227.000000
2327, 52110416.000000, 1670.000000, 8167.000000, 8207.000000, 8202.000000
2328, 52110576.000000, 1661.750000, 8159.000000, 8200.000000, 8189.000000
2329, 52110736.000000, 1653.000000, 8160.000000, 8199.000000, 8189.000000
2330, 52110896.000000, 1641.250000, 8164.000000, 8203.000000, 8196.000000
2331, 52111056.000000, 1629.750000, 8167.000000, 8202.000000, 8195.000000
2332, 52111216.000000, 1617.000000, 8171.000000, 8198.000000, 8195.000000
2333, 52111376.000000, 1608.750000, 8169.000000, 8195.000000, 8189.000000
2334, 52111536.000000, 1594.750000, 8170.000000, 8193.000000, 8186.000000
2335, 52111696.000000, 1563.250000, 8169.000000, 8194.000000, 8188.000000
2336, 52111856.000000, 1519.000000, 8168.000000, 8191.000000, 8184.000000
2337, 52112016.000000, 1511.750000, 8167.000000, 8187.000000, 8178.000000
2338, 52112176.000000, 1617.250000, 8168.000000, 8186.000000, 8177.000000
2339, 52112336.000000, 1882.000000, 8168.000000, 8188.000000, 8179.000000
2340, 52112496.000000, 2245.250000, 8165.000000, 8188.000000, 8177.000000
2341, 52112656.000000, 2599.000000, 8170.000000, 8188.000000, 8179.000000
2342, 52112816.000000, 2859.000000, 8168.000000, 8187.000000, 8178.000000
2343, 52112976.000000, 3003.250000, 8170.000000, 8186.000000, 8177.000000
2344, 52113136.000000, 3037.750000, 8168.000000, 8186.000000, 8177.000000
2345, 52113296.000000, 2977.500000, 8183.000000, 8205.000000, 8214.000000
2346, 52113456.000000, 2860.750000, 8190.000000, 8214.000000, 8232.000000
2347, 52113616.000000, 2713.500000, 8191.000000, 8207.000000, 8227.000000
2348, 52113776.000000, 2559.250000, 8185.000000, 8197.000000, 8205.000000
2349, 52113936.000000, 2424.750000, 8173.000000, 8183.000000, 8172.000000
2350, 52114096.000000, 2345.500000, 8168.000000, 8182.000000, 8167.000000
2351, 52114256.000000, 2329.250000, 8167.000000, 8178.000000, 8161.000000
2352, 52114416.000000, 2354.500000, 8156.000000, 8193.000000, 8166.000000
2353, 52114576.000000, 2392.750000, 8253.000000, 8201.000000, 8243.000000
2354, 52114736.000000, 2422.000000, 8472.000000, 7853.000000, 8013.000000
2355, 52114896.000000, 2425.500000, 8154.000000, 8051.000000, 8015.000000
2356, 52115056.000000, 2393.750000, 8177.000000, 8207.000000, 8200.000000
2357, 52115216.000000, 2334.750000, 8170.000000, 8224.000000, 8211.000000
2358, 52115376.000000, 2259.000000, 8171.000000, 8227.000000, 8216.000000
2359, 52115536.000000, 2178.250000, 8174.000000, 8230.000000, 8221.000000
2360, 52115696.000000, 2103.250000, 8181.000000, 8236.000000, 8232.000000
2361, 52115856.000000, 2034.500000, 8186.000000, 8241.000000, 8240.000000
2362, 52116016.000000, 1975.250000, 8195.000000, 8247.000000, 8252.000000
2363, 52116176.000000, 1928.250000, 8204.000000, 8251.000000, 8260.000000
2364, 52116336.000000, 1892.500000, 8210.000000, 8258.000000, 8271.000000
2365, 52116496.000000, 1861.250000, 8211.000000, 8258.000000, 8274.000000
2366, 52116656.000000, 1836.250000, 8202.000000, 8254.000000, 8266.000000
2367, 52116816.000000, 1815.000000, 8193.000000, 8240.000000, 8252.000000
2368, 52116976.000000, 1796.750000, 8176.000000, 8218.000000, 8220.000000
2369, 52117136.000000, 1782.500000, 8160.000000, 8206.000000, 8196.000000
2370, 52117296.000000, 1766.500000, 8158.000000, 8200.000000, 8189.000000
2371, 52117456.000000, 1752.250000, 8160.000000, 8201.000000, 8189.000000
2372, 52117616.000000, 1734.000000, 8164.000000, 8200.000000, 8191.000000
2373, 52117776.000000, 1715.500000, 8168.000000, 8198.000000, 8191.000000
2374, 52117936.000000, 1698.750000, 8168.000000, 8196.000000, 8189.000000
2375, 52118096.000000, 1682.000000, 8170.000000, 8196.000000, 8191.000000
2376, 52118256.000000, 1658.750000, 8169.000000, 8194.000000, 8186.000000
2377, 52118416.000000, 1616.000000, 8170.000000, 8190.000000, 8183.000000
2378, 52118576.000000, 1571.250000, 8172.000000, 8187.000000, 8181.000000
2379, 52118736.000000, 1582.250000, 8170.000000, 8186.000000, 8177.000000
2380, 52118896.000000, 1756.750000, 8171.000000, 8186.000000, 8179.000000
2381, 52119056.000000, 2102.000000, 8171.000000, 8186.000000, 8179.000000
2382, 52119216.000000, 2536.000000, 8169.000000, 8184.000000, 8174.000000
2383, 52119376.000000, 2931.500000, 8170.000000, 8183.000000, 8172.000000
2384, 52119536.000000, 3214.500000, 8173.000000, 8184.000000, 8175.000000
2385, 52119696.000000, 3346.750000, 8172.000000, 8185.000000, 8175.000000
2386, 52119856.000000, 3349.000000, 8172.000000, 8185.000000, 8175.000000
2387, 52120016.000000, 3251.250000, 8174.000000, 8185.000000, 8176.000000
2388, 52120176.000000, 3093.500000, 8184.000000, 8198.000000, 8202.000000
2389, 52120336.000000, 2905.500000, 8191.000000, 8208.000000, 8222.000000
2390, 52120496.000000, 2713.750000, 8193.000000, 8204.000000, 8222.000000
2391, 52120656.000000, 2555.000000, 8190.000000, 8196.000000, 8202.000000
2392, 52120816.000000, 2460.750000, 8171.000000, 8180.000000, 8165.000000
2393, 52120976.000000, 2430.750000, 8169.000000, 8174.000000, 8154.000000
2394, 52121136.000000, 2440.000000, 8169.000000, 8175.000000, 8157.000000
2395, 52121296.000000, 2464.000000, 8159.000000, 8192.000000, 8165.000000
2396, 52121456.000000, 2474.000000, 8252.000000, 8205.000000, 8244.000000
2397, 52121616.000000, 2459.250000, 8479.000000, 7858.000000, 8022.000000
2398, 52121776.000000, 2408.250000, 8157.000000, 8044.000000, 8004.000000
2399, 52121936.000000, 2331.750000, 8180.000000, 8202.000000, 8193.000000
2400, 52122096.000000, 2234.000000, 8172.000000, 8222.000000, 8208.000000
2401, 52122256.000000, 2134.250000, 8171.000000, 8227.000000, 8212.000000
2402, 52122416.000000, 2043.500000, 8175.000000, 8226.000000, 8212.000000
2403, 52122576.000000, 1966.000000, 8179.000000, 8231.000000, 8220.000000
2404, 52122736.000000, 1900.250000, 8184.000000, 8236.000000, 8228.000000
2405, 52122896.000000, 1842.750000, 8193.000000, 8243.000000, 8241.000000
2406, 52123056.000000, 1794.500000, 8204.000000, 8250.000000, 8255.000000
2407, 52123216.000000, 1754.500000, 8209.000000, 8251.000000, 8259.000000
2408, 52123376.000000, 1722.000000, 8208.000000, 8251.000000, 8259.000000
2409, 52123536.000000, 1693.500000, 8199.000000, 8249.000000, 8255.000000
2410, 52123696.000000, 1672.000000, 8192.000000, 8238.000000, 8245.000000
2411, 52123856.000000, 1653.250000, 8177.000000, 8220.000000, 8219.000000
2412, 52124016.000000, 1633.000000, 8165.000000, 8202.000000, 8193.000000
2413, 52124176.000000, 1611.500000, 8157.000000, 8196.000000, 8180.000000
2414, 52124336.000000, 1585.500000, 8162.000000, 8196.000000, 8183.000000
2415, 52124496.000000, 1559.000000, 8166.000000, 8197.000000, 8187.000000
2416, 52124656.000000, 1531.500000, 8169.000000, 8196.000000, 8186.000000
2417, 52124816.000000, 1502.500000, 8169.000000, 8192.000000, 8182.000000
2418, 52124976.000000, 1478.500000, 8169.000000, 8189.000000, 8177.000000
2419, 52125136.000000, 1451.750000, 8171.000000, 8188.000000, 8179.000000
2420, 52125296.000000, 1410.750000, 8170.000000, 8187.000000, 8176.000000
2421, 52125456.000000, 1358.500000, 8172.000000, 8186.000000, 8176.000000
2422, 52125616.000000, 1351.250000, 8171.000000, 8181.000000, 8168.000000
2423, 52125776.000000, 1498.500000, 8170.000000, 8179.000000, 8164.000000
2424, 52125936.000000, 1842.500000, 8168.000000, 8179.000000, 8164.000000
2425, 52126096.000000, 2312.250000, 8170.000000, 8182.000000, 8169.000000
2426, 52126256.000000, 2759.750000, 8172.000000, 8182.000000, 8170.000000
2427, 52126416.000000, 3079.000000, 8172.000000, 8180.000000, 8166.000000
2428, 52126576.000000, 3224.250000, 8172.000000, 8180.000000, 8166.000000
2429, 52126736.000000, 3219.500000, 8171.000000, 8181.000000, 8168.000000
2430, 52126896.000000, 3101.750000, 8173.000000, 8181.000000, 8168.000000
2431, 52127056.000000, 2920.750000, 8172.000000, 8184.000000, 8172.000000
2432, 52127216.000000, 2711.500000, 8188.000000, 8201.000000, 8209.000000
2433, 52127376.000000, 2501.750000, 8194.000000, 8204.000000, 8220.000000
2434, 52127536.000000, 2328.000000, 8191.000000, 8196.000000, 8208.000000
2435, 52127696.000000, 2216.250000, 8183.000000, 8186.000000, 8179.000000
2436, 52127856.000000, 2174.750000, 8171.000000, 8176.000000, 8155.000000
2437, 52128016.000000, 2181.500000, 8169.000000, 8172.000000, 8148.000000
2438, 52128176.000000, 2210.000000, 8170.000000, 8171.000000, 8148.000000
2439, 52128336.000000, 2230.500000, 8148.000000, 8206.000000, 8174.000000
2440, 52128496.000000, 2224.000000, 8366.000000, 8137.000000, 8238.000000
2441, 52128656.000000, 2178.750000, 8435.000000, 7852.000000, 7963.000000
2442, 52128816.000000, 2103.500000, 8163.000000, 8119.000000, 8091.000000
2443, 52128976.000000, 2010.750000, 8175.000000, 8206.000000, 8190.000000
2444, 52129136.000000, 1920.000000, 8169.000000, 8218.000000, 8200.000000
2445, 52129296.000000, 1835.500000, 8174.000000, 8223.000000, 8208.000000
2446, 52129456.000000, 1765.500000, 8177.000000, 8226.000000, 8213.000000
2447, 52129616.000000, 1708.000000, 8184.000000, 8228.000000, 8218.000000
2448, 52129776.000000, 1661.500000, 8190.000000, 8232.000000, 8226.000000
2449, 52129936.000000, 1622.000000, 8200.000000, 8239.000000, 8239.000000
2450, 52130096.000000, 1595.500000, 8210.000000, 8247.000000, 8252.000000
2451, 52130256.000000, 1574.250000, 8213.000000, 8250.000000, 8259.000000
2452, 52130416.000000, 1559.250000, 8211.000000, 8245.000000, 8253.000000
2453, 52130576.000000, 1548.000000, 8201.000000, 8239.000000, 8244.000000
2454, 52130736.000000, 1538.000000, 8193.000000, 8226.000000, 8230.000000
2455, 52130896.000000, 1524.500000, 8182.000000, 8209.000000, 8209.000000
2456, 52131056.000000, 1508.750000, 8170.000000, 8196.000000, 8183.000000
2457, 52131216.000000, 1490.250000, 8166.000000, 8192.000000, 8176.000000
2458, 52131376.000000, 1474.500000, 8174.000000, 8191.000000, 8180.000000
2459, 52131536.000000, 1462.000000, 8176.000000, 8191.000000, 8182.000000
2460, 52131696.000000, 1452.000000, 8183.000000, 8192.000000, 8187.000000
2461, 52131856.000000, 1441.750000, 8185.000000, 8189.000000, 8184.000000
2462, 52132016.000000, 1427.500000, 8184.000000, 8183.000000, 8177.000000
2463, 52132176.000000, 1409.250000, 8186.000000, 8182.000000, 8175.000000
2464, 52132336.000000, 1375.250000, 8185.000000, 8178.000000, 8171.000000
2465, 52132496.000000, 1332.250000, 8186.000000, 8179.000000, 8172.000000
2466, 52132656.000000, 1333.000000, 8187.000000, 8176.000000, 8170.000000
2467, 52132816.000000, 1476.000000, 8189.000000, 8175.000000, 8168.000000
2468, 52132976.000000, 1821.000000, 8189.000000, 8172.000000, 8165.000000
2469, 52133136.000000, 2281.250000, 8192.000000, 8174.000000, 8171.000000
2470, 52133296.000000, 2715.000000, 8192.000000, 8175.000000, 8172.000000
2471, 52133456.000000, 3046.500000, 8191.000000, 8175.000000, 8170.000000
2472, 52133616.000000, 3151.750000, 8193.000000, 8175.000000, 8171.000000
2473, 52133776.000000, 3074.000000, 8194.000000, 8174.000000, 8169.000000
2474, 52133936.000000, 2880.750000, 8206.000000, 8187.000000, 8197.000000
2475, 52134096.000000, 2577.000000, 8210.000000, 8197.000000, 8218.000000
2476, 52134256.000000, 2275.500000, 8218.000000, 8196.000000, 8222.000000
2477, 52134416.000000, 2094.500000, 8210.000000, 8186.000000, 8199.000000
2478, 52134576.000000, 2029.500000, 8193.000000, 8172.000000, 8164.000000
2479, 52134736.000000, 2032.250000, 8190.000000, 8167.000000, 8157.000000
2480, 52134896.000000, 2071.500000, 8187.000000, 8166.000000, 8154.000000
2481, 52135056.000000, 2110.750000, 8182.000000, 8178.000000, 8159.000000
2482, 52135216.000000, 2125.250000, 8258.000000, 8201.000000, 8234.000000
2483, 52135376.000000, 2100.250000, 8490.000000, 7910.000000, 8080.000000
2484, 52135536.000000, 2036.750000, 8174.000000, 8003.000000, 7972.000000
2485, 52135696.000000, 1948.000000, 8195.000000, 8182.000000, 8179.000000
2486, 52135856.000000, 1847.000000, 8190.000000, 8206.000000, 8200.000000
2487, 52136016.000000, 1747.500000, 8189.000000, 8211.000000, 8204.000000
2488, 52136176.000000, 1661.750000, 8194.000000, 8214.000000, 8209.000000
2489, 52136336.000000, 1594.250000, 8199.000000, 8218.000000, 8218.000000
2490, 52136496.000000, 1541.000000, 8203.000000, 8224.000000, 8228.000000
2491, 52136656.000000, 1497.000000, 8215.000000, 8232.000000, 8240.000000
2492, 52136816.000000, 1459.500000, 8223.000000, 8237.000000, 8249.000000
2493, 52136976.000000, 1429.500000, 8230.000000, 8240.000000, 8256.000000
2494, 52137136.000000, 1405.250000, 8227.000000, 8240.000000, 8256.000000
2495, 52137296.000000, 1387.750000, 8219.000000, 8239.000000, 8254.000000
2496, 52137456.000000, 1373.500000, 8212.000000, 8230.000000, 8246.000000
2497, 52137616.000000, 1363.000000, 8191.000000, 8211.000000, 8217.000000
2498, 52137776.000000, 1354.750000, 8176.000000, 8197.000000, 8194.000000
2499, 52137936.000000, 1344.750000, 8164.000000, 8192.000000, 8179.000000
2500, 52138096.000000, 1330.500000, 8166.000000, 8194.000000, 8184.000000
2501, 52138256.000000, 1316.250000, 8168.000000, 8195.000000, 8186.000000
2502, 52138416.000000, 1302.250000, 8172.000000, 8196.000000, 8188.000000
2503, 52138576.000000, 1288.500000, 8174.000000, 8192.000000, 8185.000000
2504, 52138736.000000, 1269.500000, 8174.000000, 8192.000000, 8187.000000
2505, 52138896.000000, 1235.000000, 8174.000000, 8190.000000, 8185.000000
2506, 52139056.000000, 1191.500000, 8175.000000, 8189.000000, 8183.000000
2507, 52139216.000000, 1163.250000, 8175.000000, 8187.000000, 8179.000000
2508, 52139376.000000, 1238.500000, 8172.000000, 8184.000000, 8176.000000
2509, 52139536.000000, 1482.250000, 8175.000000, 8185.000000, 8179.000000
2510, 52139696.000000, 1890.750000, 8173.000000, 8185.000000, 8176.000000
2511, 52139856.000000, 2331.750000, 8173.000000, 8185.000000, 8176.000000
2512, 52140016.000000, 2695.000000, 8169.000000, 8184.000000, 8172.000000
2513, 52140176.000000, 2904.000000, 8173.000000, 8185.000000, 8176.000000
2514, 52140336.000000, 2959.000000, 8172.000000, 8186.000000, 8176.000000
2515, 52140496.000000, 2880.000000, 8174.000000, 8187.000000, 8180.000000
2516, 52140656.000000, 2708.000000, 8188.000000, 8205.000000, 8215.000000
2517, 52140816.000000, 2489.250000, 8199.000000, 8214.000000, 8236.000000
2518, 52140976.000000, 2263.250000, 8191.000000, 8201.000000, 8217.000000
2519, 52141136.000000, 2071.500000, 8184.000000, 8192.000000, 8190.000000
2520, 52141296.000000, 1948.750000, 8169.000000, 8182.000000, 8166.000000
2521, 52141456.000000, 1911.500000, 8168.000000, 8179.000000, 8162.000000
2522, 52141616.000000, 1939.250000, 8168.000000, 8179.000000, 8160.000000
2523, 52141776.000000, 2000.750000, 8149.000000, 8205.000000, 8176.000000
2524, 52141936.000000, 2062.500000, 8338.000000, 8183.000000, 8271.000000
2525, 52142096.000000, 2098.750000, 8442.000000, 7873.000000, 8005.000000
2526, 52142256.000000, 2089.500000, 8150.000000, 8095.000000, 8062.000000
2527, 52142416.000000, 2036.500000, 8173.000000, 8209.000000, 8198.000000
2528, 52142576.000000, 1954.750000, 8166.000000, 8221.000000, 8205.000000
2529, 52142736.000000, 1862.750000, 8170.000000, 8227.000000, 8214.000000
2530, 52142896.000000, 1775.250000, 8174.000000, 8230.000000, 8221.000000
2531, 52143056.000000, 1700.750000, 8179.000000, 8234.000000, 8227.000000
2532, 52143216.000000, 1641.500000, 8187.000000, 8238.000000, 8234.000000
2533, 52143376.000000, 1597.250000, 8196.000000, 8246.000000, 8248.000000
2534, 52143536.000000, 1565.500000, 8207.000000, 8251.000000, 8260.000000
2535, 52143696.000000, 1540.750000, 8208.000000, 8254.000000, 8264.000000
2536, 52143856.000000, 1519.000000, 8204.000000, 8253.000000, 8262.000000
2537, 52144016.000000, 1502.750000, 8196.000000, 8244.000000, 8250.000000
2538, 52144176.000000, 1491.250000, 8187.000000, 8231.000000, 8237.000000
2539, 52144336.000000, 1480.750000, 8169.000000, 8214.000000, 8210.000000
2540, 52144496.000000, 1468.250000, 8156.000000, 8204.000000, 8193.000000
2541, 52144656.000000, 1454.500000, 8151.000000, 8200.000000, 8184.000000
2542, 52144816.000000, 1438.500000, 8156.000000, 8200.000000, 8187.000000
2543, 52144976.000000, 1422.250000, 8160.000000, 8199.000000, 8187.000000
2544, 52145136.000000, 1409.000000, 8162.000000, 8199.000000, 8188.000000
2545, 52145296.000000, 1400.750000, 8163.000000, 8198.000000, 8188.000000
2546, 52145456.000000, 1382.500000, 8166.000000, 8196.000000, 8188.000000
2547, 52145616.000000, 1348.750000, 8166.000000, 8193.000000, 8183.000000
2548, 52145776.000000, 1302.750000, 8166.000000, 8191.000000, 8181.000000
2549, 52145936.000000, 1290.000000, 8164.000000, 8188.000000, 8177.000000
2550, 52146096.000000, 1411.500000, 8165.000000, 8188.000000, 8177.000000
2551, 52146256.000000, 1725.250000, 8165.000000, 8188.000000, 8177.000000
2552, 52146416.000000, 2176.500000, 8164.000000, 8185.000000, 8172.000000
2553, 52146576.000000, 2625.000000, 8165.000000, 8184.000000, 8171.000000
2554, 52146736.000000, 2961.500000, 8164.000000, 8185.000000, 8172.000000
2555, 52146896.000000, 3132.250000, 8166.000000, 8186.000000, 8174.000000
2556, 52147056.000000, 3138.250000, 8168.000000, 8187.000000, 8176.000000
2557, 52147216.000000, 3022.250000, 8171.000000, 8193.000000, 8186.000000
2558, 52147376.000000, 2824.500000, 8182.000000, 8207.000000, 8215.000000
2559, 52147536.000000, 2589.250000, 8193.000000, 8211.000000, 8231.000000
2560, 52147696.000000, 2350.750000, 8190.000000, 8202.000000, 8218.000000
2561, 52147856.000000, 2159.000000, 8175.000000, 8189.000000, 8181.000000
2562, 52148016.000000, 2048.000000, 8165.000000, 8177.000000, 8158.000000
2563, 52148176.000000, 2025.750000, 8165.000000, 8177.000000, 8158.000000
2564, 52148336.000000, 2063.500000, 8166.000000, 8178.000000, 8160.000000
2565, 52148496.000000, 2121.000000, 8147.000000, 8222.000000, 8197.000000
2566, 52148656.000000, 2165.250000, 8424.000000, 8043.000000, 8173.000000
2567, 52148816.000000, 2178.250000, 8343.000000, 7885.000000, 7939.000000
2568, 52148976.000000, 2147.750000, 8172.000000, 8162.000000, 8150.000000
2569, 52149136.000000, 2074.250000, 8168.000000, 8217.000000, 8204.000000
2570, 52149296.000000, 1980.000000, 8166.000000, 8226.000000, 8212.000000
2571, 52149456.000000, 1879.500000, 8171.000000, 8229.000000, 8218.000000
2572, 52149616.000000, 1791.250000, 8174.000000, 8230.000000, 8221.000000
2573, 52149776.000000, 1719.750000, 8181.000000, 8233.000000, 8227.000000
2574, 52149936.000000, 1662.250000, 8190.000000, 8239.000000, 8239.000000
2575, 52150096.000000, 1618.000000, 8198.000000, 8245.000000, 8250.000000
2576, 52150256.000000, 1584.750000, 8208.000000, 8252.000000, 8262.000000
2577, 52150416.000000, 1559.750000, 8209.000000, 8251.000000, 8261.000000
2578, 52150576.000000, 1539.750000, 8201.000000, 8247.000000, 8254.000000
2579, 52150736.000000, 1526.000000, 8196.000000, 8242.000000, 8250.000000
2580, 52150896.000000, 1516.000000, 8185.000000, 8229.000000, 8237.000000
2581, 52151056.000000, 1502.500000, 8168.000000, 8211.000000, 8206.000000
2582, 52151216.000000, 1486.500000, 8162.000000, 8200.000000, 8189.000000
2583, 52151376.000000, 1468.750000, 8158.000000, 8197.000000, 8182.000000
2584, 52151536.000000, 1447.000000, 8162.000000, 8198.000000, 8187.000000
2585, 52151696.000000, 1428.250000, 8167.000000, 8199.000000, 8192.000000
2586, 52151856.000000, 1414.250000, 8170.000000, 8198.000000, 8191.000000
2587, 52152016.000000, 1400.000000, 8172.000000, 8196.000000, 8190.000000
2588, 52152176.000000, 1372.500000, 8171.000000, 8192.000000, 8185.000000
2589, 52152336.000000, 1321.500000, 8173.000000, 8192.000000, 8185.000000
2590, 52152496.000000, 1272.000000, 8172.000000, 8191.000000, 8185.000000
2591, 52152656.000000, 1305.750000, 8174.000000, 8189.000000, 8184.000000
2592, 52152816.000000, 1521.750000, 8173.000000, 8186.000000, 8177.000000
2593, 52152976.000000, 1941.250000, 8173.000000, 8184.000000, 8175.000000
2594, 52153136.000000, 2440.750000, 8172.000000, 8185.000000, 8177.000000
2595, 52153296.000000, 2883.750000, 8173.000000, 8186.000000, 8177.000000
2596, 52153456.000000, 3161.750000, 8174.000000, 8186.000000, 8179.000000
2597, 52153616.000000, 3262.000000, 8176.000000, 8184.000000, 8177.000000
2598, 52153776.000000, 3199.750000, 8175.000000, 8183.000000, 8175.000000
2599, 52153936.000000, 3037.250000, 8184.000000, 8193.000000, 8195.000000
2600, 52154096.000000, 2818.250000, 8192.000000, 8206.000000, 8221.000000
2601, 52154256.000000, 2578.000000, 8200.000000, 8210.000000, 8234.000000
2602, 52154416.000000, 2351.750000, 8195.000000, 8198.000000, 8213.000000
2603, 52154576.000000, 2183.250000, 8177.000000, 8182.000000, 8173.000000
2604, 52154736.000000, 2101.750000, 8172.000000, 8177.000000, 8161.000000
2605, 52154896.000000, 2095.750000, 8172.000000, 8179.000000, 8163.000000
2606, 52155056.000000, 2134.250000, 8171.000000, 8181.000000, 8164.000000
2607, 52155216.000000, 2179.250000, 8192.000000, 8211.000000, 8208.000000
2608, 52155376.000000, 2201.250000, 8482.000000, 7943.000000, 8109.000000
2609, 52155536.000000, 2181.500000, 8220.000000, 7966.000000, 7954.000000
2610, 52155696.000000, 2121.500000, 8185.000000, 8188.000000, 8185.000000
2611, 52155856.000000, 2033.250000, 8176.000000, 8219.000000, 8210.000000
2612, 52156016.000000, 1931.500000, 8176.000000, 8225.000000, 8216.000000
2613, 52156176.000000, 1830.750000, 8179.000000, 8226.000000, 8217.000000
2614, 52156336.000000, 1746.000000, 8181.000000, 8227.000000, 8221.000000
2615, 52156496.000000, 1678.250000, 8190.000000, 8233.000000, 8233.000000
2616, 52156656.000000, 1627.500000, 8199.000000, 8239.000000, 8243.000000
2617, 52156816.000000, 1585.250000, 8207.000000, 8245.000000, 8254.000000
2618, 52156976.000000, 1550.250000, 8215.000000, 8245.000000, 8257.000000
2619, 52157136.000000, 1521.500000, 8213.000000, 8246.000000, 8259.000000
2620, 52157296.000000, 1497.250000, 8206.000000, 8243.000000, 8255.000000
2621, 52157456.000000, 1479.750000, 8200.000000, 8237.000000, 8249.000000
2622, 52157616.000000, 1467.250000, 8185.000000, 8220.000000, 8226.000000
2623, 52157776.000000, 1453.750000, 8172.000000, 8203.000000, 8199.000000
2624, 52157936.000000, 1440.250000, 8164.000000, 8196.000000, 8187.000000
2625, 52158096.000000, 1425.250000, 8164.000000, 8196.000000, 8187.000000
2626, 52158256.000000, 1406.000000, 8169.000000, 8198.000000, 8192.000000
2627, 52158416.000000, 1386.250000, 8173.000000, 8196.000000, 8191.000000
2628, 52158576.000000, 1372.250000, 8179.000000, 8196.000000, 8196.000000
2629, 52158736.000000, 1359.750000, 8179.000000, 8196.000000, 8196.000000
2630, 52158896.000000, 1332.250000, 8179.000000, 8192.000000, 8192.000000
2631, 52159056.000000, 1286.000000, 8179.000000, 8191.000000, 8191.000000
2632, 52159216.000000, 1238.000000, 8179.000000, 8187.000000, 8184.000000
2633, 52159376.000000, 1283.250000, 8176.000000, 8183.000000, 8176.000000
2634, 52159536.000000, 1510.500000, 8178.000000, 8183.000000, 8179.000000
2635, 52159696.000000, 1936.000000, 8176.000000, 8184.000000, 8177.000000
2636, 52159856.000000, 2440.000000, 8178.000000, 8185.000000, 8179.000000
2637, 52160016.000000, 2879.750000, 8178.000000, 8183.000000, 8177.000000
2638, 52160176.000000, 3150.500000, 8179.000000, 8182.000000, 8175.000000
2639, 52160336.000000, 3235.750000, 8180.000000, 8184.000000, 8177.000000
2640, 52160496.000000, 3161.750000, 8178.000000, 8184.000000, 8178.000000
2641, 52160656.000000, 2980.000000, 8195.000000, 8197.000000, 8208.000000
2642, 52160816.000000, 2744.000000, 8201.000000, 8206.000000, 8227.000000
2643, 52160976.000000, 2488.250000, 8204.000000, 8202.000000, 8223.000000
2644, 52161136.000000, 2258.000000, 8204.000000, 8194.000000, 8207.000000
2645, 52161296.000000, 2094.750000, 8188.000000, 8180.000000, 8175.000000
2646, 52161456.000000, 2024.000000, 8185.000000, 8176.000000, 8167.000000
2647, 52161616.000000, 2031.250000, 8187.000000, 8175.000000, 8165.000000
2648, 52161776.000000, 2083.750000, 8179.000000, 8182.000000, 8163.000000
2649, 52161936.000000, 2138.500000, 8249.000000, 8204.000000, 8235.000000
2650, 52162096.000000, 2167.000000, 8507.000000, 7897.000000, 8078.000000
2651, 52162256.000000, 2155.750000, 8190.000000, 8007.000000, 7981.000000
2652, 52162416.000000, 2098.250000, 8205.000000, 8191.000000, 8195.000000
2653, 52162576.000000, 2011.250000, 8195.000000, 8214.000000, 8215.000000
2654, 52162736.000000, 1911.000000, 8195.000000, 8222.000000, 8221.000000
2655, 52162896.000000, 1814.000000, 8201.000000, 8224.000000, 8227.000000
2656, 52163056.000000, 1730.500000, 8208.000000, 8227.000000, 8235.000000
2657, 52163216.000000, 1665.500000, 8211.000000, 8230.000000, 8238.000000
2658, 52163376.000000, 1613.000000, 8226.000000, 8235.000000, 8249.000000
2659, 52163536.000000, 1568.000000, 8234.000000, 8239.000000, 8262.000000
2660, 52163696.000000, 1529.500000, 8244.000000, 8245.000000, 8271.000000
2661, 52163856.000000, 1500.750000, 8244.000000, 8244.000000, 8270.000000
2662, 52164016.000000, 1479.750000, 8232.000000, 8241.000000, 8265.000000
2663, 52164176.000000, 1464.500000, 8229.000000, 8229.000000, 8253.000000
2664, 52164336.000000, 1449.500000, 8212.000000, 8210.000000, 8230.000000
2665, 52164496.000000, 1434.500000, 8198.000000, 8199.000000, 8208.000000
2666, 52164656.000000, 1417.750000, 8188.000000, 8193.000000, 8199.000000
2667, 52164816.000000, 1397.750000, 8187.000000, 8190.000000, 8192.000000
2668, 52164976.000000, 1375.250000, 8193.000000, 8191.000000, 8197.000000
2669, 52165136.000000, 1355.250000, 8199.000000, 8189.000000, 8197.000000
2670, 52165296.000000, 1339.500000, 8203.000000, 8188.000000, 8200.000000
2671, 52165456.000000, 1317.250000, 8199.000000, 8187.000000, 8197.000000
2672, 52165616.000000, 1282.500000, 8204.000000, 8184.000000, 8195.000000
2673, 52165776.000000, 1225.750000, 8199.000000, 8182.000000, 8190.000000
2674, 52165936.000000, 1171.750000, 8201.000000, 8180.000000, 8189.000000
2675, 52166096.000000, 1189.500000, 8200.000000, 8179.000000, 8189.000000
2676, 52166256.000000, 1386.000000, 8198.000000, 8179.000000, 8186.000000
2677, 52166416.000000, 1771.750000, 8199.000000, 8176.000000, 8182.000000
2678, 52166576.000000, 2269.250000, 8197.000000, 8176.000000, 8184.000000
2679, 52166736.000000, 2720.750000, 8204.000000, 8177.000000, 8186.000000
2680, 52166896.000000, 3032.250000, 8199.000000, 8179.000000, 8187.000000
2681, 52167056.000000, 3147.000000, 8200.000000, 8178.000000, 8188.000000
2682, 52167216.000000, 3094.250000, 8202.000000, 8183.000000, 8193.000000
2683, 52167376.000000, 2914.500000, 8212.000000, 8193.000000, 8215.000000
2684, 52167536.000000, 2666.750000, 8221.000000, 8200.000000, 8238.000000
2685, 52167696.000000, 2394.750000, 8215.000000, 8193.000000, 8223.000000
2686, 52167856.000000, 2143.500000, 8201.000000, 8182.000000, 8191.000000
2687, 52168016.000000, 1962.750000, 8191.000000, 8174.000000, 8174.000000
2688, 52168176.000000, 1879.250000, 8192.000000, 8172.000000, 8171.000000
2689, 52168336.000000, 1884.750000, 8189.000000, 8174.000000, 8171.000000
2690, 52168496.000000, 1937.500000, 8176.000000, 8219.000000, 8212.000000
2691, 52168656.000000, 2000.750000, 8449.000000, 8121.000000, 8269.000000
2692, 52168816.000000, 2040.750000, 8352.000000, 7934.000000, 8010.000000
2693, 52168976.000000, 2037.500000, 8177.000000, 8131.000000, 8122.000000
2694, 52169136.000000, 1984.750000, 8189.000000, 8205.000000, 8206.000000
2695, 52169296.000000, 1894.750000, 8185.000000, 8216.000000, 8216.000000
2696, 52169456.000000, 1788.750000, 8188.000000, 8220.000000, 8222.000000
2697, 52169616.000000, 1685.750000, 8194.000000, 8223.000000, 8227.000000
2698, 52169776.000000, 1599.750000, 8197.000000, 8226.000000, 8232.000000
2699, 52169936.000000, 1538.250000, 8208.000000, 8233.000000, 8243.000000
2700, 52170096.000000, 1497.250000, 8218.000000, 8238.000000, 8254.000000
2701, 52170256.000000, 1471.750000, 8225.000000, 8245.000000, 8264.000000
2702, 52170416.000000, 1452.750000, 8227.000000, 8245.000000, 8265.000000
2703, 52170576.000000, 1435.750000, 8221.000000, 8243.000000, 8261.000000
2704, 52170736.000000, 1424.750000, 8214.000000, 8237.000000, 8255.000000
2705, 52170896.000000, 1421.000000, 8200.000000, 8223.000000, 8241.000000
2706, 52171056.000000, 1417.750000, 8179.000000, 8210.000000, 8216.000000
2707, 52171216.000000, 1412.250000, 8166.000000, 8200.000000, 8196.000000
2708, 52171376.000000, 1400.500000, 8163.000000, 8197.000000, 8189.000000
2709, 52171536.000000, 1385.500000, 8166.000000, 8200.000000, 8196.000000
2710, 52171696.000000, 1372.250000, 8172.000000, 8202.000000, 8202.000000
2711, 52171856.000000, 1362.750000, 8175.000000, 8204.000000, 8204.000000
2712, 52172016.000000, 1348.750000, 8177.000000, 8200.000000, 8201.000000
2713, 52172176.000000, 1322.500000, 8177.000000, 8198.000000, 8199.000000
2714, 52172336.000000, 1280.750000, 8175.000000, 8196.000000, 8196.000000
2715, 52172496.000000, 1225.750000, 8176.000000, 8195.000000, 8197.000000
2716, 52172656.000000, 1186.500000, 8175.000000, 8193.000000, 8193.000000
2717, 52172816.000000, 1223.250000, 8174.000000, 8191.000000, 8190.000000
2718, 52172976.000000, 1436.500000, 8176.000000, 8190.000000, 8190.000000
2719, 52173136.000000, 1834.750000, 8176.000000, 8190.000000, 8190.000000
2720, 52173296.000000, 2321.250000, 8175.000000, 8192.000000, 8192.000000
2721, 52173456.000000, 2746.500000, 8177.000000, 8193.000000, 8194.000000
2722, 52173616.000000, 3022.750000, 8177.000000, 8192.000000, 8193.000000
2723, 52173776.000000, 3111.250000, 8176.000000, 8191.000000, 8191.000000
2724, 52173936.000000, 3028.000000, 8182.000000, 8196.000000, 8202.000000
2725, 52174096.000000, 2836.250000, 8194.000000, 8213.000000, 8237.000000
2726, 52174256.000000, 2585.250000, 8203.000000, 8221.000000, 8255.000000
2727, 52174416.000000, 2324.000000, 8199.000000, 8212.000000, 8242.000000
2728, 52174576.000000, 2092.000000, 8192.000000, 8200.000000, 8213.000000
2729, 52174736.000000, 1937.000000, 8177.000000, 8190.000000, 8189.000000
2730, 52174896.000000, 1878.750000, 8178.000000, 8190.000000, 8190.000000
2731, 52175056.000000, 1910.750000, 8180.000000, 8192.000000, 8195.000000
2732, 52175216.000000, 1988.500000, 8162.000000, 8220.000000, 8213.000000
2733, 52175376.000000, 2068.250000, 8347.000000, 8192.000000, 8302.000000
2734, 52175536.000000, 2116.750000, 8474.000000, 7877.000000, 8038.000000
2735, 52175696.000000, 2114.500000, 8169.000000, 8111.000000, 8103.000000
2736, 52175856.000000, 2063.750000, 8191.000000, 8227.000000, 8245.000000
2737, 52176016.000000, 1979.250000, 8183.000000, 8237.000000, 8248.000000
2738, 52176176.000000, 1874.000000, 8186.000000, 8241.000000, 8254.000000
2739, 52176336.000000, 1765.500000, 8191.000000, 8245.000000, 8261.000000
2740, 52176496.000000, 1668.000000, 8197.000000, 8252.000000, 8274.000000
2741, 52176656.000000, 1590.750000, 8203.000000, 8256.000000, 8282.000000
2742, 52176816.000000, 1535.750000, 8215.000000, 8262.000000, 8294.000000
2743, 52176976.000000, 1498.000000, 8224.000000, 8268.000000, 8306.000000
2744, 52177136.000000, 1469.000000, 8228.000000, 8270.000000, 8309.000000
2745, 52177296.000000, 1443.750000, 8225.000000, 8271.000000, 8312.000000
2746, 52177456.000000, 1425.500000, 8216.000000, 8266.000000, 8305.000000
2747, 52177616.000000, 1411.000000, 8205.000000, 8252.000000, 8290.000000
2748, 52177776.000000, 1405.250000, 8189.000000, 8231.000000, 8258.000000
2749, 52177936.000000, 1403.500000, 8176.000000, 8219.000000, 8237.000000
2750, 52178096.000000, 1398.500000, 8171.000000, 8216.000000, 8231.000000
2751, 52178256.000000, 1393.500000, 8177.000000, 8216.000000, 8235.000000
2752, 52178416.000000, 1386.750000, 8182.000000, 8219.000000, 8241.000000
2753, 52178576.000000, 1380.250000, 8182.000000, 8215.000000, 8237.000000
2754, 52178736.000000, 1372.750000, 8184.000000, 8215.000000, 8237.000000
2755, 52178896.000000, 1361.250000, 8187.000000, 8213.000000, 8239.000000
2756, 52179056.000000, 1337.000000, 8182.000000, 8212.000000, 8232.000000
2757, 52179216.000000, 1302.000000, 8186.000000, 8211.000000, 8236.000000
2758, 52179376.000000, 1274.000000, 8189.000000, 8210.000000, 8237.000000
2759, 52179536.000000, 1348.750000, 8186.000000, 8205.000000, 8228.000000
2760, 52179696.000000, 1620.500000, 8185.000000, 8206.000000, 8228.000000
2761, 52179856.000000, 2099.750000, 8187.000000, 8207.000000, 8231.000000
2762, 52180016.000000, 2646.750000, 8189.000000, 8206.000000, 8231.000000
2763, 52180176.000000, 3107.250000, 8191.000000, 8206.000000, 8232.000000
2764, 52180336.000000, 3376.000000, 8187.000000, 8206.000000, 8228.000000
2765, 52180496.000000, 3442.750000, 8192.000000, 8210.000000, 8237.000000
2766, 52180656.000000, 3339.000000, 8190.000000, 8209.000000, 8235.000000
2767, 52180816.000000, 3139.500000, 8192.000000, 8208.000000, 8235.000000
2768, 52180976.000000, 2895.250000, 8202.000000, 8219.000000, 8259.000000
2769, 52181136.000000, 2640.000000, 8209.000000, 8228.000000, 8278.000000
2770, 52181296.000000, 2405.250000, 8214.000000, 8228.000000, 8284.000000
2771, 52181456.000000, 2236.750000, 8210.000000, 8218.000000, 8259.000000
2772, 52181616.000000, 2165.500000, 8201.000000, 8208.000000, 8239.000000
2773, 52181776.000000, 2170.750000, 8210.000000, 8212.000000, 8259.000000
2774, 52181936.000000, 2218.250000, 8221.000000, 8219.000000, 8279.000000
2775, 52182096.000000, 2269.500000, 8220.000000, 8233.000000, 8293.000000
2776, 52182256.000000, 2290.500000, 8282.000000, 8256.000000, 8361.000000
2777, 52182416.000000, 2262.250000, 8571.000000, 7943.000000, 8217.000000
2778, 52182576.000000, 2184.750000, 8244.000000, 8057.000000, 8121.000000
2779, 52182736.000000, 2076.000000, 8243.000000, 8245.000000, 8330.000000
2780, 52182896.000000, 1956.750000, 8233.000000, 8271.000000, 8349.000000
2781, 52183056.000000, 1844.500000, 8231.000000, 8275.000000, 8350.000000
2782, 52183216.000000, 1745.250000, 8235.000000, 8276.000000, 8352.000000
2783, 52183376.000000, 1672.750000, 8236.000000, 8275.000000, 8351.000000
2784, 52183536.000000, 1629.500000, 8243.000000, 8280.000000, 8359.000000
2785, 52183696.000000, 1606.500000, 8250.000000, 8287.000000, 8369.000000
2786, 52183856.000000, 1592.250000, 8259.000000, 8293.000000, 8379.000000
2787, 52184016.000000, 1583.250000, 8261.000000, 8294.000000, 8379.000000
2788, 52184176.000000, 1575.000000, 8259.000000, 8293.000000, 8377.000000
2789, 52184336.000000, 1564.750000, 8251.000000, 8286.000000, 8366.000000
2790, 52184496.000000, 1551.500000, 8239.000000, 8277.000000, 8353.000000
2791, 52184656.000000, 1536.500000, 8222.000000, 8259.000000, 8326.000000
2792, 52184816.000000, 1524.000000, 8206.000000, 8239.000000, 8295.000000
2793, 52184976.000000, 1512.000000, 8199.000000, 8229.000000, 8275.000000
2794, 52185136.000000, 1499.500000, 8197.000000, 8227.000000, 8271.000000
2795, 52185296.000000, 1477.250000, 8201.000000, 8228.000000, 8273.000000
2796, 52185456.000000, 1449.750000, 8203.000000, 8226.000000, 8272.000000
2797, 52185616.000000, 1426.750000, 8205.000000, 8223.000000, 8267.000000
2798, 52185776.000000, 1402.500000, 8205.000000, 8220.000000, 8264.000000
2799, 52185936.000000, 1367.250000, 8201.000000, 8218.000000, 8257.000000
2800, 52186096.000000, 1314.000000, 8203.000000, 8214.000000, 8254.000000
2801, 52186256.000000, 1263.500000, 8201.000000, 8212.000000, 8249.000000
2802, 52186416.000000, 1296.500000, 8199.000000, 8207.000000, 8239.000000
2803, 52186576.000000, 1518.000000, 8197.000000, 8205.000000, 8235.000000
2804, 52186736.000000, 1961.500000, 8197.000000, 8203.000000, 8231.000000
2805, 52186896.000000, 2505.750000, 8197.000000, 8204.000000, 8232.000000
2806, 52187056.000000, 2990.250000, 8198.000000, 8203.000000, 8230.000000
2807, 52187216.000000, 3299.500000, 8198.000000, 8203.000000, 8230.000000
2808, 52187376.000000, 3409.000000, 8197.000000, 8201.000000, 8227.000000
2809, 52187536.000000, 3340.000000, 8200.000000, 8203.000000, 8231.000000
2810, 52187696.000000, 3166.250000, 8199.000000, 8202.000000, 8226.000000
2811, 52187856.000000, 2943.000000, 8210.000000, 8215.000000, 8254.000000
2812, 52188016.000000, 2713.750000, 8215.000000, 8222.000000, 8268.000000
2813, 52188176.000000, 2496.250000, 8218.000000, 8217.000000, 8267.000000
2814, 52188336.000000, 2319.500000, 8216.000000, 8207.000000, 8244.000000
2815, 52188496.000000, 2211.750000, 8200.000000, 8195.000000, 8215.000000
2816, 52188656.000000, 2174.250000, 8198.000000, 8191.000000, 8206.000000
2817, 52188816.000000, 2185.500000, 8198.000000, 8188.000000, 8201.000000
2818, 52188976.000000, 2208.250000, 8191.000000, 8192.000000, 8196.000000
2819, 52189136.000000, 2211.500000, 8244.000000, 8214.000000, 8254.000000
2820, 52189296.000000, 2178.000000, 8540.000000, 7912.000000, 8123.000000
2821, 52189456.000000, 2106.750000, 8223.000000, 8005.000000, 8011.000000
2822, 52189616.000000, 2007.500000, 8214.000000, 8201.000000, 8225.000000
2823, 52189776.000000, 1897.000000, 8206.000000, 8224.000000, 8240.000000
2824, 52189936.000000, 1795.250000, 8209.000000, 8231.000000, 8249.000000
2825, 52190096.000000, 1714.250000, 8213.000000, 8232.000000, 8251.000000
2826, 52190256.000000, 1657.500000, 8220.000000, 8235.000000, 8257.000000
2827, 52190416.000000, 1624.000000, 8229.000000, 8240.000000, 8268.000000
2828, 52190576.000000, 1592.250000, 8237.000000, 8244.000000, 8273.000000
2829, 52190736.000000, 1563.000000, 8250.000000, 8247.000000, 8285.000000
2830, 52190896.000000, 1533.000000, 8261.000000, 8255.000000, 8296.000000
2831, 52191056.000000, 1500.500000, 8258.000000, 8254.000000, 8297.000000
2832, 52191216.000000, 1463.750000, 8254.000000, 8252.000000, 8296.000000
2833, 52191376.000000, 1427.500000, 8243.000000, 8238.000000, 8281.000000
2834, 52191536.000000, 1392.500000, 8228.000000, 8219.000000, 8252.000000
2835, 52191696.000000, 1360.000000, 8211.000000, 8202.000000, 8226.000000
2836, 52191856.000000, 1327.500000, 8201.000000, 8195.000000, 8212.000000
2837, 52192016.000000, 1294.250000, 8203.000000, 8194.000000, 8210.000000
2838, 52192176.000000, 1259.250000, 8207.000000, 8195.000000, 8212.000000
2839, 52192336.000000, 1228.250000, 8210.000000, 8193.000000, 8210.000000
2840, 52192496.000000, 1205.750000, 8214.000000, 8192.000000, 8214.000000
2841, 52192656.000000, 1187.000000, 8214.000000, 8191.000000, 8211.000000
2842, 52192816.000000, 1162.750000, 8214.000000, 8188.000000, 8208.000000
2843, 52192976.000000, 1131.250000, 8213.000000, 8183.000000, 8200.000000
2844, 52193136.000000, 1092.750000, 8212.000000, 8181.000000, 8199.000000
2845, 52193296.000000, 1090.250000, 8214.000000, 8180.000000, 8196.000000
2846, 52193456.000000, 1225.750000, 8213.000000, 8178.000000, 8193.000000
2847, 52193616.000000, 1569.000000, 8205.000000, 8177.000000, 8191.000000
2848, 52193776.000000, 2060.250000, 8207.000000, 8176.000000, 8185.000000
2849, 52193936.000000, 2546.000000, 8208.000000, 8174.000000, 8184.000000
2850, 52194096.000000, 2901.500000, 8206.000000, 8176.000000, 8186.000000
2851, 52194256.000000, 3069.750000, 8206.000000, 8176.000000, 8186.000000
2852, 52194416.000000, 3056.750000, 8206.000000, 8175.000000, 8185.000000
2853, 52194576.000000, 2916.500000, 8213.000000, 8184.000000, 8203.000000
2854, 52194736.000000, 2702.000000, 8218.000000, 8193.000000, 8219.000000
2855, 52194896.000000, 2459.000000, 8224.000000, 8193.000000, 8225.000000
2856, 52195056.000000, 2215.500000, 8219.000000, 8186.000000, 8207.000000
2857, 52195216.000000, 2012.500000, 8203.000000, 8174.000000, 8178.000000
2858, 52195376.000000, 1881.500000, 8199.000000, 8168.000000, 8166.000000
2859, 52195536.000000, 1832.250000, 8198.000000, 8165.000000, 8162.000000
2860, 52195696.000000, 1843.250000, 8193.000000, 8175.000000, 8165.000000
2861, 52195856.000000, 1881.250000, 8238.000000, 8206.000000, 8230.000000
2862, 52196016.000000, 1917.000000, 8500.000000, 7966.000000, 8144.000000
2863, 52196176.000000, 1927.750000, 8204.000000, 7980.000000, 7973.000000
2864, 52196336.000000, 1899.500000, 8193.000000, 8167.000000, 8163.000000
2865, 52196496.000000, 1826.000000, 8188.000000, 8203.000000, 8196.000000
2866, 52196656.000000, 1727.500000, 8185.000000, 8211.000000, 8202.000000
2867, 52196816.000000, 1624.000000, 8185.000000, 8214.000000, 8205.000000
2868, 52196976.000000, 1531.500000, 8195.000000, 8218.000000, 8213.000000
2869, 52197136.000000, 1455.250000, 8197.000000, 8223.000000, 8218.000000
2870, 52197296.000000, 1394.500000, 8204.000000, 8230.000000, 8227.000000
2871, 52197456.000000, 1347.000000, 8217.000000, 8238.000000, 8244.000000
2872, 52197616.000000, 1313.750000, 8226.000000, 8244.000000, 8252.000000
2873, 52197776.000000, 1296.750000, 8223.000000, 8241.000000, 8251.000000
2874, 52197936.000000, 1286.750000, 8214.000000, 8240.000000, 8246.000000
2875, 52198096.000000, 1277.000000, 8206.000000, 8231.000000, 8237.000000
2876, 52198256.000000, 1267.000000, 8187.000000, 8212.000000, 8212.000000
2877, 52198416.000000, 1258.500000, 8165.000000, 8197.000000, 8184.000000
2878, 52198576.000000, 1251.750000, 8156.000000, 8189.000000, 8170.000000
2879, 52198736.000000, 1246.500000, 8156.000000, 8187.000000, 8166.000000
2880, 52198896.000000, 1239.000000, 8159.000000, 8190.000000, 8169.000000
2881, 52199056.000000, 1230.500000, 8165.000000, 8193.000000, 8176.000000
2882, 52199216.000000, 1223.000000, 8166.000000, 8192.000000, 8178.000000
2883, 52199376.000000, 1211.250000, 8167.000000, 8188.000000, 8173.000000
2884, 52199536.000000, 1185.250000, 8168.000000, 8184.000000, 8169.000000
2885, 52199696.000000, 1143.000000, 8168.000000, 8183.000000, 8166.000000
2886, 52199856.000000, 1092.000000, 8167.000000, 8184.000000, 8169.000000
2887, 52200016.000000, 1052.250000, 8166.000000, 8182.000000, 8166.000000
2888, 52200176.000000, 1074.750000, 8166.000000, 8179.000000, 8161.000000
2889, 52200336.000000, 1269.250000, 8167.000000, 8179.000000, 8160.000000
2890, 52200496.000000, 1647.250000, 8165.000000, 8178.000000, 8159.000000
2891, 52200656.000000, 2128.250000, 8167.000000, 8182.000000, 8165.000000
2892, 52200816.000000, 2553.250000, 8163.000000, 8181.000000, 8163.000000
2893, 52200976.000000, 2838.250000, 8165.000000, 8180.000000, 8161.000000
2894, 52201136.000000, 2933.750000, 8168.000000, 8183.000000, 8166.000000
2895, 52201296.000000, 2873.750000, 8182.000000, 8199.000000, 8199.000000
2896, 52201456.000000, 2700.250000, 8189.000000, 8205.000000, 8216.000000
2897, 52201616.000000, 2469.250000, 8184.000000, 8197.000000, 8201.000000
2898, 52201776.000000, 2219.000000, 8175.000000, 8184.000000, 8170.000000
2899, 52201936.000000, 1984.250000, 8165.000000, 8175.000000, 8152.000000
2900, 52202096.000000, 1811.750000, 8164.000000, 8172.000000, 8145.000000
2901, 52202256.000000, 1722.750000, 8164.000000, 8174.000000, 8147.000000
2902, 52202416.000000, 1717.250000, 8145.000000, 8205.000000, 8171.000000
2903, 52202576.000000, 1758.500000, 8344.000000, 8169.000000, 8257.000000
2904, 52202736.000000, 1812.750000, 8448.000000, 7862.000000, 7988.000000
2905, 52202896.000000, 1849.750000, 8149.000000, 8098.000000, 8059.000000
2906, 52203056.000000, 1850.000000, 8169.000000, 8205.000000, 8187.000000
2907, 52203216.000000, 1805.000000, 8163.000000, 8219.000000, 8195.000000
2908, 52203376.000000, 1721.500000, 8163.000000, 8222.000000, 8198.000000
2909, 52203536.000000, 1622.750000, 8167.000000, 8223.000000, 8202.000000
2910, 52203696.000000, 1522.500000, 8173.000000, 8229.000000, 8210.000000
2911, 52203856.000000, 1437.500000, 8182.000000, 8235.000000, 8222.000000
2912, 52204016.000000, 1369.250000, 8190.000000, 8241.000000, 8233.000000
2913, 52204176.000000, 1319.000000, 8196.000000, 8246.000000, 8240.000000
2914, 52204336.000000, 1284.000000, 8204.000000, 8248.000000, 8245.000000
2915, 52204496.000000, 1259.750000, 8203.000000, 8250.000000, 8250.000000
2916, 52204656.000000, 1240.750000, 8196.000000, 8245.000000, 8245.000000
2917, 52204816.000000, 1225.250000, 8182.000000, 8228.000000, 8225.000000
2918, 52204976.000000, 1209.250000, 8158.000000, 8206.000000, 8189.000000
2919, 52205136.000000, 1200.500000, 8147.000000, 8193.000000, 8168.000000
2920, 52205296.000000, 1196.500000, 8146.000000, 8191.000000, 8164.000000
2921, 52205456.000000, 1187.250000, 8149.000000, 8193.000000, 8168.000000
2922, 52205616.000000, 1179.000000, 8153.000000, 8194.000000, 8173.000000
2923, 52205776.000000, 1170.500000, 8156.000000, 8193.000000, 8172.000000
2924, 52205936.000000, 1163.000000, 8159.000000, 8191.000000, 8172.000000
2925, 52206096.000000, 1149.000000, 8161.000000, 8191.000000, 8172.000000
2926, 52206256.000000, 1124.000000, 8158.000000, 8188.000000, 8167.000000
2927, 52206416.000000, 1082.000000, 8159.000000, 8186.000000, 8169.000000
2928, 52206576.000000, 1032.750000, 8157.000000, 8183.000000, 8161.000000
2929, 52206736.000000, 1018.750000, 8156.000000, 8182.000000, 8159.000000
2930, 52206896.000000, 1129.500000, 8158.000000, 8181.000000, 8158.000000
2931, 52207056.000000, 1431.750000, 8158.000000, 8182.000000, 8159.000000
2932, 52207216.000000, 1880.750000, 8157.000000, 8183.000000, 8161.000000
2933, 52207376.000000, 2346.500000, 8157.000000, 8181.000000, 8157.000000
2934, 52207536.000000, 2699.250000, 8157.000000, 8179.000000, 8155.000000
2935, 52207696.000000, 2879.000000, 8156.000000, 8181.000000, 8156.000000
2936, 52207856.000000, 2890.750000, 8166.000000, 8191.000000, 8177.000000
2937, 52208016.000000, 2770.250000, 8173.000000, 8203.000000, 8198.000000
2938, 52208176.000000, 2578.250000, 8180.000000, 8201.000000, 8206.000000
2939, 52208336.000000, 2356.250000, 8175.000000, 8193.000000, 8187.000000
2940, 52208496.000000, 2132.000000, 8160.000000, 8178.000000, 8152.000000
2941, 52208656.000000, 1936.000000, 8156.000000, 8175.000000, 8144.000000
2942, 52208816.000000, 1815.250000, 8156.000000, 8174.000000, 8143.000000
2943, 52208976.000000, 1772.000000, 8154.000000, 8174.000000, 8140.000000
2944, 52209136.000000, 1787.000000, 8147.000000, 8213.000000, 8178.000000
2945, 52209296.000000, 1827.250000, 8443.000000, 7987.000000, 8123.000000
2946, 52209456.000000, 1863.250000, 8285.000000, 7909.000000, 7926.000000
2947, 52209616.000000, 1872.750000, 8163.000000, 8173.000000, 8151.000000
2948, 52209776.000000, 1843.500000, 8154.000000, 8215.000000, 8187.000000
2949, 52209936.000000, 1777.750000, 8154.000000, 8222.000000, 8194.000000
2950, 52210096.000000, 1688.500000, 8158.000000, 8226.000000, 8199.000000
2951, 52210256.000000, 1589.500000, 8162.000000, 8229.000000, 8204.000000
2952, 52210416.000000, 1497.000000, 8167.000000, 8233.000000, 8212.000000
2953, 52210576.000000, 1418.250000, 8174.000000, 8237.000000, 8222.000000
2954, 52210736.000000, 1356.500000, 8184.000000, 8244.000000, 8230.000000
2955, 52210896.000000, 1316.000000, 8195.000000, 8250.000000, 8245.000000
2956, 52211056.000000, 1288.500000, 8195.000000, 8253.000000, 8248.000000
2957, 52211216.000000, 1267.250000, 8190.000000, 8250.000000, 8244.000000
2958, 52211376.000000, 1251.500000, 8178.000000, 8242.000000, 8236.000000
2959, 52211536.000000, 1238.000000, 8164.000000, 8219.000000, 8206.000000
2960, 52211696.000000, 1229.750000, 8146.000000, 8204.000000, 8179.000000
2961, 52211856.000000, 1221.250000, 8139.000000, 8197.000000, 8167.000000
2962, 52212016.000000, 1214.000000, 8136.000000, 8193.000000, 8161.000000
2963, 52212176.000000, 1200.500000, 8142.000000, 8193.000000, 8165.000000
2964, 52212336.000000, 1184.750000, 8147.000000, 8193.000000, 8168.000000
2965, 52212496.000000, 1169.500000, 8148.000000, 8194.000000, 8168.000000
2966, 52212656.000000, 1156.250000, 8154.000000, 8193.000000, 8173.000000
2967, 52212816.000000, 1141.000000, 8152.000000, 8193.000000, 8170.000000
2968, 52212976.000000, 1113.500000, 8152.000000, 8186.000000, 8161.000000
2969, 52213136.000000, 1069.000000, 8152.000000, 8184.000000, 8159.000000
2970, 52213296.000000, 1027.500000, 8152.000000, 8182.000000, 8155.000000
2971, 52213456.000000, 1056.000000, 8155.000000, 8183.000000, 8160.000000
2972, 52213616.000000, 1254.000000, 8153.000000, 8182.000000, 8157.000000
2973, 52213776.000000, 1632.000000, 8153.000000, 8181.000000, 8156.000000
2974, 52213936.000000, 2105.250000, 8155.000000, 8181.000000, 8154.000000
2975, 52214096.000000, 2529.500000, 8155.000000, 8180.000000, 8153.000000
2976, 52214256.000000, 2813.500000, 8159.000000, 8181.000000, 8158.000000
2977, 52214416.000000, 2918.500000, 8155.000000, 8181.000000, 8154.000000
2978, 52214576.000000, 2877.500000, 8159.000000, 8182.000000, 8159.000000
2979, 52214736.000000, 2735.500000, 8173.000000, 8199.000000, 8194.000000
2980, 52214896.000000, 2545.250000, 8180.000000, 8206.000000, 8211.000000
2981, 52215056.000000, 2340.500000, 8177.000000, 8196.000000, 8197.000000
2982, 52215216.000000, 2141.250000, 8171.000000, 8187.000000, 8170.000000
2983, 52215376.000000, 1952.750000, 8158.000000, 8177.000000, 8148.000000
2984, 52215536.000000, 1859.000000, 8158.000000, 8173.000000, 8142.000000
2985, 52215696.000000, 1855.250000, 8160.000000, 8174.000000, 8144.000000
2986, 52215856.000000, 1883.500000, 8143.000000, 8200.000000, 8161.000000
2987, 52216016.000000, 1913.500000, 8312.000000, 8191.000000, 8262.000000
2988, 52216176.000000, 1920.250000, 8487.000000, 7850.000000, 8000.000000
2989, 52216336.000000, 1882.750000, 8148.000000, 8090.000000, 8050.000000
2990, 52216496.000000, 1788.000000, 8164.000000, 8207.000000, 8184.000000
2991, 52216656.000000, 1682.250000, 8158.000000, 8221.000000, 8194.000000
2992, 52216816.000000, 1596.250000, 8160.000000, 8224.000000, 8200.000000
2993, 52216976.000000, 1519.000000, 8164.000000, 8226.000000, 8203.000000
2994, 52217136.000000, 1446.500000, 8171.000000, 8228.000000, 8209.000000
2995, 52217296.000000, 1393.500000, 8180.000000, 8232.000000, 8217.000000
2996, 52217456.000000, 1355.000000, 8188.000000, 8239.000000, 8230.000000
2997, 52217616.000000, 1330.000000, 8201.000000, 8245.000000, 8244.000000
2998, 52217776.000000, 1310.000000, 8206.000000, 8247.000000, 8249.000000
2999, 52217936.000000, 1293.500000, 8201.000000, 8245.000000, 8246.000000
3000, 52218096.000000, 1280.250000, 8197.000000, 8243.000000, 8245.000000
3001, 52218256.000000, 1268.500000, 8187.000000, 8231.000000, 8231.000000
3002, 52218416.000000, 1252.750000, 8168.000000, 8211.000000, 8202.000000
3003, 52218576.000000, 1237.250000, 8154.000000, 8197.000000, 8177.000000
3004, 52218736.000000, 1218.000000, 8150.000000, 8193.000000, 8170.000000
3005, 52218896.000000, 1196.500000, 8152.000000, 8191.000000, 8168.000000
3006, 52219056.000000, 1174.000000, 8158.000000, 8195.000000, 8176.000000
3007, 52219216.000000, 1152.750000, 8163.000000, 8194.000000, 8180.000000
3008, 52219376.000000, 1128.500000, 8166.000000, 8190.000000, 8176.000000
3009, 52219536.000000, 1095.000000, 8164.000000, 8188.000000, 8171.000000
3010, 52219696.000000, 1047.500000, 8169.000000, 8187.000000, 8175.000000
3011, 52219856.000000, 1000.000000, 8164.000000, 8185.000000, 8170.000000
3012, 52220016.000000, 1034.000000, 8169.000000, 8185.000000, 8173.000000
3013, 52220176.000000, 1230.750000, 8166.000000, 8180.000000, 8164.000000
3014, 52220336.000000, 1621.000000, 8167.000000, 8178.000000, 8161.000000
3015, 52220496.000000, 2086.250000, 8168.000000, 8179.000000, 8164.000000
3016, 52220656.000000, 2500.250000, 8168.000000, 8180.000000, 8165.000000
3017, 52220816.000000, 2762.750000, 8169.000000, 8180.000000, 8164.000000
3018, 52220976.000000, 2859.500000, 8168.000000, 8178.000000, 8161.000000
3019, 52221136.000000, 2815.000000, 8169.000000, 8177.000000, 8161.000000
3020, 52221296.000000, 2677.000000, 8170.000000, 8180.000000, 8163.000000
3021, 52221456.000000, 2498.500000, 8170.000000, 8180.000000, 8165.000000
3022, 52221616.000000, 2302.500000, 8179.000000, 8189.000000, 8184.000000
3023, 52221776.000000, 2112.250000, 8185.000000, 8200.000000, 8206.000000
3024, 52221936.000000, 1956.250000, 8192.000000, 8200.000000, 8215.000000
3025, 52222096.000000, 1869.250000, 8190.000000, 8191.000000, 8195.000000
3026, 52222256.000000, 1846.250000, 8175.000000, 8180.000000, 8166.000000
3027, 52222416.000000, 1859.250000, 8168.000000, 8174.000000, 8153.000000
3028, 52222576.000000, 1881.750000, 8170.000000, 8172.000000, 8151.000000
3029, 52222736.000000, 1890.250000, 8170.000000, 8174.000000, 8151.000000
3030, 52222896.000000, 1870.000000, 8164.000000, 8216.000000, 8195.000000
3031, 52223056.000000, 1820.500000, 8474.000000, 8003.000000, 8160.000000
3032, 52223216.000000, 1750.500000, 8304.000000, 7925.000000, 7955.000000
3033, 52223376.000000, 1667.000000, 8174.000000, 8172.000000, 8161.000000
3034, 52223536.000000, 1587.000000, 8171.000000, 8211.000000, 8194.000000
3035, 52223696.000000, 1513.000000, 8171.000000, 8223.000000, 8208.000000
3036, 52223856.000000, 1448.000000, 8173.000000, 8224.000000, 8209.000000
3037, 52224016.000000, 1394.250000, 8181.000000, 8227.000000, 8215.000000
3038, 52224176.000000, 1350.000000, 8184.000000, 8228.000000, 8218.000000
3039, 52224336.000000, 1316.250000, 8192.000000, 8232.000000, 8227.000000
3040, 52224496.000000, 1293.750000, 8200.000000, 8239.000000, 8236.000000
3041, 52224656.000000, 1280.250000, 8214.000000, 8245.000000, 8253.000000
3042, 52224816.000000, 1271.750000, 8215.000000, 8247.000000, 8255.000000
3043, 52224976.000000, 1265.000000, 8207.000000, 8242.000000, 8249.000000
3044, 52225136.000000, 1253.250000, 8200.000000, 8235.000000, 8239.000000
3045, 52225296.000000, 1238.500000, 8185.000000, 8218.000000, 8218.000000
3046, 52225456.000000, 1226.000000, 8168.000000, 8204.000000, 8195.000000
3047, 52225616.000000, 1212.250000, 8155.000000, 8196.000000, 8177.000000
3048, 52225776.000000, 1195.750000, 8155.000000, 8191.000000, 8170.000000
3049, 52225936.000000, 1174.750000, 8160.000000, 8192.000000, 8174.000000
3050, 52226096.000000, 1151.250000, 8166.000000, 8194.000000, 8180.000000
3051, 52226256.000000, 1136.000000, 8169.000000, 8194.000000, 8184.000000
3052, 52226416.000000, 1122.500000, 8171.000000, 8190.000000, 8181.000000
3053, 52226576.000000, 1100.750000, 8169.000000, 8188.000000, 8176.000000
3054, 52226736.000000, 1061.500000, 8171.000000, 8184.000000, 8173.000000
3055, 52226896.000000, 1032.750000, 8171.000000, 8184.000000, 8171.000000
3056, 52227056.000000, 1091.000000, 8169.000000, 8184.000000, 8170.000000
3057, 52227216.000000, 1332.000000, 8170.000000, 8182.000000, 8169.000000
3058, 52227376.000000, 1727.000000, 8169.000000, 8182.000000, 8168.000000
3059, 52227536.000000, 2168.750000, 8170.000000, 8178.000000, 8163.000000
3060, 52227696.000000, 2525.500000, 8169.000000, 8181.000000, 8167.000000
3061, 52227856.000000, 2742.250000, 8168.000000, 8182.000000, 8167.000000
3062, 52228016.000000, 2800.250000, 8172.000000, 8184.000000, 8172.000000
3063, 52228176.000000, 2735.000000, 8171.000000, 8181.000000, 8168.000000
3064, 52228336.000000, 2593.250000, 8171.000000, 8180.000000, 8167.000000
3065, 52228496.000000, 2415.250000, 8174.000000, 8182.000000, 8169.000000
3066, 52228656.000000, 2224.250000, 8173.000000, 8184.000000, 8171.000000
3067, 52228816.000000, 2044.000000, 8189.000000, 8198.000000, 8205.000000
3068, 52228976.000000, 1910.750000, 8193.000000, 8201.000000, 8215.000000
3069, 52229136.000000, 1844.750000, 8195.000000, 8196.000000, 8209.000000
3070, 52229296.000000, 1840.000000, 8195.000000, 8187.000000, 8188.000000
3071, 52229456.000000, 1861.500000, 8181.000000, 8177.000000, 8165.000000
3072, 52229616.000000, 1885.000000, 8182.000000, 8174.000000, 8159.000000
3073, 52229776.000000, 1886.750000, 8181.000000, 8170.000000, 8156.000000
3074, 52229936.000000, 1862.000000, 8175.000000, 8181.000000, 8157.000000
3075, 52230096.000000, 1809.250000, 8261.000000, 8203.000000, 8240.000000
3076, 52230256.000000, 1733.250000, 8532.000000, 7892.000000, 8084.000000
3077, 52230416.000000, 1649.750000, 8186.000000, 8021.000000, 7996.000000
3078, 52230576.000000, 1571.500000, 8198.000000, 8189.000000, 8190.000000
3079, 52230736.000000, 1504.250000, 8192.000000, 8210.000000, 8205.000000
3080, 52230896.000000, 1453.500000, 8196.000000, 8217.000000, 8213.000000
3081, 52231056.000000, 1414.500000, 8197.000000, 8218.000000, 8215.000000
3082, 52231216.000000, 1382.750000, 8203.000000, 8222.000000, 8224.000000
3083, 52231376.000000, 1356.750000, 8210.000000, 8225.000000, 8230.000000
3084, 52231536.000000, 1336.750000, 8220.000000, 8229.000000, 8237.000000
3085, 52231696.000000, 1322.750000, 8233.000000, 8239.000000, 8255.000000
3086, 52231856.000000, 1312.000000, 8240.000000, 8244.000000, 8265.000000
3087, 52232016.000000, 1298.750000, 8241.000000, 8243.000000, 8267.000000
3088, 52232176.000000, 1288.000000, 8233.000000, 8241.000000, 8261.000000
3089, 52232336.000000, 1279.250000, 8224.000000, 8228.000000, 8250.000000
3090, 52232496.000000, 1271.000000, 8207.000000, 8210.000000, 8225.000000
3091, 52232656.000000, 1264.000000, 8194.000000, 8195.000000, 8201.000000
3092, 52232816.000000, 1250.500000, 8183.000000, 8188.000000, 8187.000000
3093, 52232976.000000, 1231.000000, 8182.000000, 8186.000000, 8183.000000
3094, 52233136.000000, 1211.000000, 8189.000000, 8187.000000, 8188.000000
3095, 52233296.000000, 1193.250000, 8193.000000, 8186.000000, 8190.000000
3096, 52233456.000000, 1176.500000, 8198.000000, 8187.000000, 8194.000000
3097, 52233616.000000, 1152.250000, 8196.000000, 8183.000000, 8187.000000
3098, 52233776.000000, 1118.000000, 8198.000000, 8181.000000, 8188.000000
3099, 52233936.000000, 1072.750000, 8199.000000, 8176.000000, 8182.000000
3100, 52234096.000000, 1048.500000, 8195.000000, 8175.000000, 8180.000000
3101, 52234256.000000, 1112.250000, 8201.000000, 8174.000000, 8181.000000
3102, 52234416.000000, 1352.500000, 8199.000000, 8175.000000, 8181.000000
3103, 52234576.000000, 1746.500000, 8194.000000, 8171.000000, 8175.000000
3104, 52234736.000000, 2184.000000, 8197.000000, 8173.000000, 8179.000000
3105, 52234896.000000, 2534.750000, 8195.000000, 8174.000000, 8177.000000
3106, 52235056.000000, 2747.500000, 8194.000000, 8171.000000, 8175.000000
3107, 52235216.000000, 2807.000000, 8194.000000, 8174.000000, 8178.000000
3108, 52235376.000000, 2738.250000, 8197.000000, 8172.000000, 8178.000000
3109, 52235536.000000, 2589.000000, 8199.000000, 8173.000000, 8175.000000
3110, 52235696.000000, 2398.000000, 8200.000000, 8177.000000, 8187.000000
3111, 52235856.000000, 2192.750000, 8212.000000, 8191.000000, 8211.000000
3112, 52236016.000000, 2000.750000, 8219.000000, 8196.000000, 8229.000000
3113, 52236176.000000, 1865.750000, 8214.000000, 8186.000000, 8210.000000
3114, 52236336.000000, 1805.750000, 8198.000000, 8176.000000, 8179.000000
3115, 52236496.000000, 1814.500000, 8190.000000, 8169.000000, 8163.000000
3116, 52236656.000000, 1858.000000, 8191.000000, 8169.000000, 8164.000000
3117, 52236816.000000, 1902.500000, 8187.000000, 8170.000000, 8164.000000
3118, 52236976.000000, 1924.250000, 8173.000000, 8210.000000, 8199.000000
3119, 52237136.000000, 1907.000000, 8437.000000, 8134.000000, 8272.000000
3120, 52237296.000000, 1855.500000, 8396.000000, 7911.000000, 8012.000000
3121, 52237456.000000, 1775.000000, 8170.000000, 8114.000000, 8097.000000
3122, 52237616.000000, 1685.000000, 8186.000000, 8199.000000, 8194.000000
3123, 52237776.000000, 1595.750000, 8182.000000, 8208.000000, 8199.000000
3124, 52237936.000000, 1516.750000, 8183.000000, 8211.000000, 8202.000000
3125, 52238096.000000, 1450.500000, 8188.000000, 8216.000000, 8211.000000
3126, 52238256.000000, 1403.000000, 8193.000000, 8221.000000, 8219.000000
3127, 52238416.000000, 1370.500000, 8203.000000, 8229.000000, 8231.000000
3128, 52238576.000000, 1347.250000, 8211.000000, 8233.000000, 8239.000000
3129, 52238736.000000, 1327.000000, 8222.000000, 8238.000000, 8247.000000
3130, 52238896.000000, 1309.500000, 8227.000000, 8242.000000, 8256.000000
3131, 52239056.000000, 1298.000000, 8221.000000, 8243.000000, 8257.000000
3132, 52239216.000000, 1290.500000, 8212.000000, 8237.000000, 8249.000000
3133, 52239376.000000, 1287.500000, 8189.000000, 8218.000000, 8223.000000
3134, 52239536.000000, 1285.000000, 8174.000000, 8202.000000, 8197.000000
3135, 52239696.000000, 1283.500000, 8160.000000, 8192.000000, 8178.000000
3136, 52239856.000000, 1278.500000, 8156.000000, 8190.000000, 8173.000000
3137, 52240016.000000, 1271.250000, 8155.000000, 8193.000000, 8176.000000
3138, 52240176.000000, 1261.250000, 8160.000000, 8192.000000, 8178.000000
3139, 52240336.000000, 1251.000000, 8163.000000, 8191.000000, 8179.000000
3140, 52240496.000000, 1239.250000, 8167.000000, 8191.000000, 8176.000000
3141, 52240656.000000, 1218.750000, 8169.000000, 8189.000000, 8179.000000
3142, 52240816.000000, 1184.500000, 8168.000000, 8189.000000, 8178.000000
3143, 52240976.000000, 1145.250000, 8168.000000, 8185.000000, 8174.000000
3144, 52241136.000000, 1115.750000, 8165.000000, 8183.000000, 8170.000000
3145, 52241296.000000, 1154.250000, 8169.000000, 8183.000000, 8171.000000
3146, 52241456.000000, 1331.500000, 8165.000000, 8184.000000, 8169.000000
3147, 52241616.000000, 1670.000000, 8166.000000, 8185.000000, 8171.000000
3148, 52241776.000000, 2082.250000, 8165.000000, 8182.000000, 8167.000000
3149, 52241936.000000, 2453.750000, 8164.000000, 8182.000000, 8165.000000
3150, 52242096.000000, 2701.250000, 8167.000000, 8183.000000, 8166.000000
3151, 52242256.000000, 2800.250000, 8166.000000, 8184.000000, 8170.000000
3152, 52242416.000000, 2767.000000, 8169.000000, 8186.000000, 8172.000000
3153, 52242576.000000, 2632.000000, 8180.000000, 8200.000000, 8205.000000
3154, 52242736.000000, 2444.500000, 8189.000000, 8206.000000, 8219.000000
3155, 52242896.000000, 2235.000000, 8187.000000, 8199.000000, 8209.000000
3156, 52243056.000000, 2039.000000, 8180.000000, 8190.000000, 8183.000000
3157, 52243216.000000, 1894.000000, 8166.000000, 8179.000000, 8159.000000
3158, 52243376.000000, 1825.000000, 8164.000000, 8176.000000, 8153.000000
3159, 52243536.000000, 1825.750000, 8164.000000, 8174.000000, 8151.000000
3160, 52243696.000000, 1875.250000, 8145.000000, 8203.000000, 8169.000000
3161, 52243856.000000, 1935.750000, 8326.000000, 8185.000000, 8267.000000
3162, 52244016.000000, 1980.250000, 8458.000000, 7869.000000, 8011.000000
3163, 52244176.000000, 1983.500000, 8146.000000, 8089.000000, 8052.000000
3164, 52244336.000000, 1942.500000, 8168.000000, 8205.000000, 8186.000000
3165, 52244496.000000, 1872.500000, 8165.000000, 8220.000000, 8201.000000
3166, 52244656.000000, 1784.750000, 8166.000000, 8225.000000, 8207.000000
3167, 52244816.000000, 1694.000000, 8169.000000, 8228.000000, 8212.000000
3168, 52244976.000000, 1607.250000, 8174.000000, 8230.000000, 8215.000000
3169, 52245136.000000, 1534.500000, 8180.000000, 8235.000000, 8222.000000
3170, 52245296.000000, 1477.000000, 8193.000000, 8242.000000, 8236.000000
3171, 52245456.000000, 1438.000000, 8205.000000, 8251.000000, 8253.000000
3172, 52245616.000000, 1412.250000, 8209.000000, 8254.000000, 8258.000000
3173, 52245776.000000, 1393.500000, 8206.000000, 8253.000000, 8257.000000
3174, 52245936.000000, 1379.250000, 8198.000000, 8245.000000, 8248.000000
3175, 52246096.000000, 1366.750000, 8185.000000, 8229.000000, 8231.000000
3176, 52246256.000000, 1357.000000, 8168.000000, 8212.000000, 8205.000000
3177, 52246416.000000, 1346.000000, 8153.000000, 8199.000000, 8180.000000
3178, 52246576.000000, 1336.000000, 8144.000000, 8192.000000, 8167.000000
3179, 52246736.000000, 1324.750000, 8148.000000, 8192.000000, 8168.000000
3180, 52246896.000000, 1314.000000, 8154.000000, 8195.000000, 8175.000000
3181, 52247056.000000, 1304.750000, 8159.000000, 8197.000000, 8180.000000
3182, 52247216.000000, 1291.500000, 8160.000000, 8196.000000, 8180.000000
3183, 52247376.000000, 1271.000000, 8160.000000, 8192.000000, 8174.000000
3184, 52247536.000000, 1235.250000, 8162.000000, 8190.000000, 8175.000000
3185, 52247696.000000, 1186.250000, 8162.000000, 8188.000000, 8171.000000
3186, 52247856.000000, 1149.750000, 8162.000000, 8186.000000, 8169.000000
3187, 52248016.000000, 1184.000000, 8160.000000, 8187.000000, 8169.000000
3188, 52248176.000000, 1389.500000, 8161.000000, 8183.000000, 8164.000000
3189, 52248336.000000, 1761.500000, 8161.000000, 8184.000000, 8165.000000
3190, 52248496.000000, 2212.250000, 8163.000000, 8183.000000, 8165.000000
3191, 52248656.000000, 2608.750000, 8161.000000, 8186.000000, 8167.000000
3192, 52248816.000000, 2883.500000, 8162.000000, 8186.000000, 8169.000000
3193, 52248976.000000, 2996.250000, 8165.000000, 8185.000000, 8168.000000
3194, 52249136.000000, 2969.500000, 8165.000000, 8182.000000, 8165.000000
3195, 52249296.000000, 2832.000000, 8174.000000, 8194.000000, 8187.000000
3196, 52249456.000000, 2634.250000, 8181.000000, 8206.000000, 8210.000000
3197, 52249616.000000, 2415.250000, 8186.000000, 8205.000000, 8216.000000
3198, 52249776.000000, 2207.500000, 8184.000000, 8195.000000, 8195.000000
3199, 52249936.000000, 2051.250000, 8169.000000, 8181.000000, 8163.000000
3200, 52250096.000000, 1972.750000, 8164.000000, 8177.000000, 8152.000000
3201, 52250256.000000, 1966.000000, 8167.000000, 8177.000000, 8156.000000
3202, 52250416.000000, 1999.500000, 8165.000000, 8182.000000, 8159.000000
3203, 52250576.000000, 2046.000000, 8176.000000, 8209.000000, 8194.000000
3204, 52250736.000000, 2076.000000, 8468.000000, 7933.000000, 8088.000000
3205, 52250896.000000, 2074.000000, 8242.000000, 7944.000000, 7941.000000
3206, 52251056.000000, 2030.750000, 8174.000000, 8186.000000, 8175.000000
3207, 52251216.000000, 1956.000000, 8163.000000, 8220.000000, 8200.000000
3208, 52251376.000000, 1861.750000, 8164.000000, 8227.000000, 8208.000000
3209, 52251536.000000, 1762.250000, 8165.000000, 8227.000000, 8206.000000
3210, 52251696.000000, 1669.750000, 8171.000000, 8231.000000, 8214.000000
3211, 52251856.000000, 1593.250000, 8179.000000, 8237.000000, 8224.000000
3212, 52252016.000000, 1534.250000, 8186.000000, 8241.000000, 8234.000000
3213, 52252176.000000, 1491.750000, 8193.000000, 8247.000000, 8243.000000
3214, 52252336.000000, 1464.250000, 8205.000000, 8251.000000, 8253.000000
3215, 52252496.000000, 1444.500000, 8206.000000, 8254.000000, 8258.000000
3216, 52252656.000000, 1430.250000, 8201.000000, 8253.000000, 8258.000000
3217, 52252816.000000, 1421.000000, 8188.000000, 8242.000000, 8244.000000
3218, 52252976.000000, 1411.000000, 8171.000000, 8219.000000, 8212.000000
3219, 52253136.000000, 1405.750000, 8155.000000, 8202.000000, 8185.000000
3220, 52253296.000000, 1405.000000, 8149.000000, 8195.000000, 8172.000000
3221, 52253456.000000, 1404.500000, 8147.000000, 8194.000000, 8169.000000
3222, 52253616.000000, 1395.250000, 8151.000000, 8197.000000, 8175.000000
3223, 52253776.000000, 1376.750000, 8156.000000, 8196.000000, 8177.000000
3224, 52253936.000000, 1355.000000, 8161.000000, 8194.000000, 8177.000000
3225, 52254096.000000, 1333.500000, 8161.000000, 8194.000000, 8177.000000
3226, 52254256.000000, 1305.250000, 8163.000000, 8193.000000, 8177.000000
3227, 52254416.000000, 1265.000000, 8161.000000, 8192.000000, 8175.000000
3228, 52254576.000000, 1219.000000, 8161.000000, 8187.000000, 8168.000000
3229, 52254736.000000, 1216.750000, 8159.000000, 8185.000000, 8166.000000
3230, 52254896.000000, 1360.750000, 8162.000000, 8185.000000, 8166.000000
3231, 52255056.000000, 1700.250000, 8163.000000, 8186.000000, 8168.000000
3232, 52255216.000000, 2167.500000, 8163.000000, 8185.000000, 8167.000000
3233, 52255376.000000, 2621.500000, 8166.000000, 8184.000000, 8168.000000
3234, 52255536.000000, 2959.500000, 8164.000000, 8183.000000, 8166.000000
3235, 52255696.000000, 3128.750000, 8167.000000, 8183.000000, 8166.000000
3236, 52255856.000000, 3129.000000, 8168.000000, 8186.000000, 8169.000000
3237, 52256016.000000, 3010.500000, 8167.000000, 8187.000000, 8170.000000
3238, 52256176.000000, 2817.750000, 8168.000000, 8186.000000, 8171.000000
3239, 52256336.000000, 2597.250000, 8177.000000, 8197.000000, 8194.000000
3240, 52256496.000000, 2373.750000, 8185.000000, 8206.000000, 8212.000000
3241, 52256656.000000, 2180.500000, 8187.000000, 8204.000000, 8214.000000
3242, 52256816.000000, 2051.250000, 8185.000000, 8194.000000, 8191.000000
3243, 52256976.000000, 2002.000000, 8169.000000, 8183.000000, 8165.000000
3244, 52257136.000000, 2011.500000, 8167.000000, 8177.000000, 8154.000000
3245, 52257296.000000, 2042.250000, 8167.000000, 8178.000000, 8153.000000
3246, 52257456.000000, 2067.250000, 8163.000000, 8184.000000, 8156.000000
3247, 52257616.000000, 2063.250000, 8197.000000, 8207.000000, 8204.000000
3248, 52257776.000000, 2023.500000, 8494.000000, 7905.000000, 8079.000000
3249, 52257936.000000, 1949.250000, 8200.000000, 7984.000000, 7961.000000
3250, 52258096.000000, 1856.000000, 8175.000000, 8194.000000, 8180.000000
3251, 52258256.000000, 1755.250000, 8166.000000, 8223.000000, 8203.000000
3252, 52258416.000000, 1661.000000, 8165.000000, 8230.000000, 8211.000000
3253, 52258576.000000, 1578.750000, 8168.000000, 8229.000000, 8210.000000
3254, 52258736.000000, 1514.750000, 8171.000000, 8230.000000, 8215.000000
3255, 52258896.000000, 1463.750000, 8180.000000, 8235.000000, 8222.000000
3256, 52259056.000000, 1427.250000, 8191.000000, 8241.000000, 8236.000000
3257, 52259216.000000, 1400.000000, 8200.000000, 8247.000000, 8249.000000
3258, 52259376.000000, 1381.750000, 8208.000000, 8251.000000, 8255.000000
3259, 52259536.000000, 1366.500000, 8206.000000, 8251.000000, 8255.000000
3260, 52259696.000000, 1352.250000, 8206.000000, 8250.000000, 8258.000000
3261, 52259856.000000, 1338.500000, 8194.000000, 8241.000000, 8247.000000
3262, 52260016.000000, 1324.250000, 8178.000000, 8222.000000, 8220.000000
3263, 52260176.000000, 1309.500000, 8160.000000, 8203.000000, 8189.000000
3264, 52260336.000000, 1293.750000, 8152.000000, 8195.000000, 8172.000000
3265, 52260496.000000, 1271.750000, 8155.000000, 8194.000000, 8171.000000
3266, 52260656.000000, 1251.000000, 8160.000000, 8195.000000, 8177.000000
3267, 52260816.000000, 1231.000000, 8164.000000, 8196.000000, 8181.000000
3268, 52260976.000000, 1211.000000, 8165.000000, 8195.000000, 8180.000000
3269, 52261136.000000, 1189.000000, 8169.000000, 8191.000000, 8177.000000
3270, 52261296.000000, 1157.250000, 8172.000000, 8191.000000, 8179.000000
3271, 52261456.000000, 1115.500000, 8172.000000, 8190.000000, 8178.000000
3272, 52261616.000000, 1072.750000, 8171.000000, 8187.000000, 8174.000000
3273, 52261776.000000, 1080.500000, 8170.000000, 8183.000000, 8170.000000
3274, 52261936.000000, 1227.250000, 8170.000000, 8181.000000, 8166.000000
3275, 52262096.000000, 1577.000000, 8169.000000, 8183.000000, 8167.000000
3276, 52262256.000000, 2058.000000, 8174.000000, 8182.000000, 8169.000000
3277, 52262416.000000, 2526.500000, 8173.000000, 8184.000000, 8171.000000
3278, 52262576.000000, 2859.750000, 8171.000000, 8182.000000, 8167.000000
3279, 52262736.000000, 3014.000000, 8172.000000, 8180.000000, 8166.000000
3280, 52262896.000000, 2998.250000, 8174.000000, 8182.000000, 8167.000000
3281, 52263056.000000, 2859.750000, 8176.000000, 8183.000000, 8170.000000
