1434, 45658344.000000, 1401.500000, 8213.500000, 8259.500000, 8263.000000
1435, 45658504.000000, 1230.500000, 8207.000000, 8254.000000, 8258.000000
1436, 45658664.000000, 1028.875000, 8195.000000, 8235.000000, 8236.000000
1437, 45658824.000000, 811.875000, 8174.000000, 8212.000000, 8199.500000
1438, 45658984.000000, 587.750000, 8153.000000, 8199.500000, 8174.500000
1439, 45659144.000000, 360.250000, 8153.500000, 8195.500000, 8167.000000
1440, 45659304.000000, 132.375000, 8152.500000, 8194.000000, 8166.000000
1441, 45659464.000000, 24.375000, 8155.000000, 8196.000000, 8167.500000
1442, 45659624.000000, 5.125000, 8162.500000, 8197.500000, 8175.000000
1443, 45659784.000000, 1.125000, 8165.000000, 8198.500000, 8177.500000
1444, 45659944.000000, 12.875000, 8164.500000, 8195.500000, 8175.500000
1445, 45660104.000000, 56.000000, 8163.000000, 8192.000000, 8168.000000
1446, 45660264.000000, 120.875000, 8161.000000, 8190.500000, 8167.500000
1447, 45660424.000000, 201.500000, 8164.500000, 8191.000000, 8169.000000
1448, 45660584.000000, 337.125000, 8160.000000, 8189.000000, 8165.000000
1449, 45660744.000000, 586.125000, 8161.000000, 8187.500000, 8162.500000
1450, 45660904.000000, 957.250000, 8162.000000, 8185.000000, 8160.500000
1451, 45661064.000000, 1364.125000, 8161.000000, 8185.500000, 8160.500000
1452, 45661224.000000, 1708.125000, 8162.000000, 8188.500000, 8165.500000
1453, 45661384.000000, 1941.125000, 8171.000000, 8198.000000, 8186.000000
1454, 45661544.000000, 2064.000000, 8177.000000, 8209.000000, 8207.000000
1455, 45661704.000000, 2103.875000, 8183.000000, 8208.000000, 8212.000000
1456, 45661864.000000, 2090.125000, 8181.000000, 8199.000000, 8196.000000
1457, 45662024.000000, 2048.500000, 8162.000000, 8186.000000, 8161.000000
1458, 45662184.000000, 1994.000000, 8156.500000, 8180.000000, 8147.500000
1459, 45662344.000000, 1931.125000, 8157.500000, 8179.500000, 8148.000000
1460, 45662504.000000, 1884.875000, 8158.500000, 8180.500000, 8148.500000
1461, 45662664.000000, 1870.500000, 8146.500000, 8217.500000, 8184.500000
1462, 45662824.000000, 1891.750000, 8436.500000, 7962.500000, 8091.500000
1463, 45662984.000000, 1935.625000, 8309.000000, 7907.000000, 7929.000000
1464, 45663144.000000, 1984.250000, 8173.000000, 8185.000000, 8166.000000
1465, 45663304.000000, 2015.625000, 8159.500000, 8223.500000, 8197.000000
1466, 45663464.000000, 2016.875000, 8163.000000, 8231.000000, 8208.000000
1467, 45663624.000000, 1991.125000, 8163.500000, 8235.000000, 8211.500000
1468, 45663784.000000, 1945.875000, 8172.000000, 8238.000000, 8220.000000
1469, 45663944.000000, 1891.250000, 8175.000000, 8242.000000, 8226.000000
1470, 45664104.000000, 1839.125000, 8182.500000, 8244.500000, 8231.500000
1471, 45664264.000000, 1791.625000, 8195.000000, 8255.000000, 8250.500000
1472, 45664424.000000, 1750.250000, 8206.500000, 8264.000000, 8268.500000
1473, 45664584.000000, 1716.500000, 8207.000000, 8267.500000, 8272.500000
1474, 45664744.000000, 1687.125000, 8201.500000, 8265.000000, 8270.500000
1475, 45664904.000000, 1661.875000, 8190.000000, 8248.000000, 8248.000000
1476, 45665064.000000, 1639.375000, 8174.000000, 8224.000000, 8215.500000
1477, 45665224.000000, 1616.000000, 8154.000000, 8208.000000, 8186.000000
1478, 45665384.000000, 1596.000000, 8146.500000, 8199.500000, 8171.500000
1479, 45665544.000000, 1577.125000, 8146.500000, 8196.500000, 8167.500000
1480, 45665704.000000, 1559.625000, 8152.000000, 8195.000000, 8168.000000
1481, 45665864.000000, 1546.500000, 8156.000000, 8198.500000, 8175.500000
1482, 45666024.000000, 1536.500000, 8158.500000, 8198.000000, 8176.000000
1483, 45666184.000000, 1525.250000, 8159.500000, 8197.000000, 8176.500000
1484, 45666344.000000, 1509.625000, 8161.500000, 8193.500000, 8173.500000
1485, 45666504.000000, 1487.750000, 8159.000000, 8190.500000, 8169.500000
1486, 45666664.000000, 1473.375000, 8160.000000, 8189.000000, 8168.000000
1487, 45666824.000000, 1510.000000, 8159.000000, 8188.500000, 8165.500000
1488, 45666984.000000, 1673.750000, 8160.500000, 8188.500000, 8169.000000
1489, 45667144.000000, 1943.250000, 8159.000000, 8184.000000, 8161.000000
1490, 45667304.000000, 2241.625000, 8160.000000, 8185.000000, 8162.000000
1491, 45667464.000000, 2472.500000, 8159.500000, 8184.500000, 8162.000000
1492, 45667624.000000, 2599.750000, 8161.000000, 8186.500000, 8163.500000
1493, 45667784.000000, 2628.000000, 8162.000000, 8188.000000, 8167.000000
1494, 45667944.000000, 2587.375000, 8165.500000, 8191.000000, 8173.000000
1495, 45668104.000000, 2511.875000, 8178.500000, 8205.000000, 8206.000000
1496, 45668264.000000, 2429.375000, 8183.500000, 8209.000000, 8216.500000
1497, 45668424.000000, 2347.625000, 8181.500000, 8200.000000, 8202.000000
1498, 45668584.000000, 2260.750000, 8167.500000, 8187.500000, 8167.500000
1499, 45668744.000000, 2184.750000, 8160.000000, 8179.000000, 8151.000000
1500, 45668904.000000, 2132.625000, 8160.000000, 8177.500000, 8148.500000
1501, 45669064.000000, 2110.625000, 8159.000000, 8179.000000, 8150.000000
1502, 45669224.000000, 2108.250000, 8135.500000, 8218.500000, 8179.000000
1503, 45669384.000000, 2115.375000, 8372.500000, 8086.500000, 8188.000000
1504, 45669544.000000, 2120.000000, 8415.500000, 7836.000000, 7925.000000
1505, 45669704.000000, 2109.750000, 8169.500000, 8149.000000, 8126.500000
1506, 45669864.000000, 2081.250000, 8166.000000, 8220.500000, 8200.500000
1507, 45670024.000000, 2038.625000, 8164.000000, 8230.000000, 8210.000000
1508, 45670184.000000, 1989.500000, 8165.000000, 8233.000000, 8214.000000
1509, 45670344.000000, 1939.500000, 8168.000000, 8235.500000, 8218.500000
1510, 45670504.000000, 1889.500000, 8176.000000, 8238.500000, 8225.500000
1511, 45670664.000000, 1842.750000, 8185.000000, 8244.000000, 8236.500000
1512, 45670824.000000, 1801.625000, 8192.500000, 8250.000000, 8247.500000
1513, 45670984.000000, 1766.375000, 8203.500000, 8258.000000, 8262.500000
1514, 45671144.000000, 1735.500000, 8208.500000, 8260.000000, 8269.000000
1515, 45671304.000000, 1706.750000, 8205.000000, 8260.500000, 8268.500000
1516, 45671464.000000, 1684.000000, 8198.500000, 8253.000000, 8261.500000
1517, 45671624.000000, 1666.125000, 8179.500000, 8230.500000, 8228.500000
1518, 45671784.000000, 1647.625000, 8160.000000, 8208.500000, 8193.500000
1519, 45671944.000000, 1632.250000, 8150.500000, 8199.000000, 8175.500000
1520, 45672104.000000, 1615.625000, 8148.500000, 8195.000000, 8169.500000
1521, 45672264.000000, 1599.000000, 8153.500000, 8196.500000, 8174.000000
1522, 45672424.000000, 1579.625000, 8157.500000, 8198.000000, 8178.500000
1523, 45672584.000000, 1560.125000, 8159.500000, 8196.500000, 8179.000000
1524, 45672744.000000, 1542.625000, 8161.500000, 8195.500000, 8179.500000
1525, 45672904.000000, 1522.875000, 8162.000000, 8191.500000, 8175.000000
1526, 45673064.000000, 1498.125000, 8162.500000, 8189.000000, 8172.500000
1527, 45673224.000000, 1468.125000, 8162.000000, 8190.500000, 8173.500000
1528, 45673384.000000, 1466.625000, 8160.500000, 8186.500000, 8167.000000
1529, 45673544.000000, 1553.750000, 8162.500000, 8185.500000, 8167.000000
1530, 45673704.000000, 1767.000000, 8161.500000, 8183.500000, 8165.500000
1531, 45673864.000000, 2047.750000, 8161.000000, 8184.500000, 8165.500000
1532, 45674024.000000, 2293.625000, 8163.500000, 8185.000000, 8167.500000
1533, 45674184.000000, 2443.875000, 8162.500000, 8187.000000, 8169.500000
1534, 45674344.000000, 2483.375000, 8163.000000, 8185.000000, 8167.000000
1535, 45674504.000000, 2448.250000, 8164.000000, 8182.500000, 8163.500000
1536, 45674664.000000, 2366.125000, 8165.000000, 8183.500000, 8166.500000
1537, 45674824.000000, 2277.625000, 8176.000000, 8196.000000, 8191.500000
1538, 45674984.000000, 2191.750000, 8181.500000, 8207.500000, 8214.500000
1539, 45675144.000000, 2109.000000, 8189.500000, 8204.000000, 8217.500000
1540, 45675304.000000, 2034.750000, 8184.500000, 8192.500000, 8193.500000
1541, 45675464.000000, 1984.375000, 8170.500000, 8182.500000, 8167.500000
1542, 45675624.000000, 1963.125000, 8164.000000, 8177.000000, 8154.000000
1543, 45675784.000000, 1966.875000, 8165.000000, 8176.500000, 8155.500000
1544, 45675944.000000, 1986.000000, 8163.000000, 8178.500000, 8154.500000
1545, 45676104.000000, 2000.250000, 8163.500000, 8209.500000, 8189.000000
1546, 45676264.000000, 1999.500000, 8464.000000, 7957.000000, 8111.000000
1547, 45676424.000000, 1979.750000, 8257.500000, 7947.500000, 7952.500000
1548, 45676584.000000, 1947.000000, 8182.000000, 8186.500000, 8179.500000
1549, 45676744.000000, 1903.750000, 8171.500000, 8218.500000, 8206.000000
1550, 45676904.000000, 1859.375000, 8169.000000, 8223.500000, 8208.500000
1551, 45677064.000000, 1821.125000, 8173.000000, 8227.000000, 8215.500000
1552, 45677224.000000, 1785.500000, 8176.500000, 8230.500000, 8220.500000
1553, 45677384.000000, 1755.750000, 8184.500000, 8236.000000, 8230.500000
1554, 45677544.000000, 1732.375000, 8194.000000, 8239.500000, 8240.000000
1555, 45677704.000000, 1712.125000, 8202.500000, 8244.500000, 8249.500000
1556, 45677864.000000, 1695.875000, 8211.000000, 8251.000000, 8261.000000
1557, 45678024.000000, 1684.500000, 8211.000000, 8255.000000, 8267.000000
1558, 45678184.000000, 1675.500000, 8204.500000, 8253.500000, 8265.000000
1559, 45678344.000000, 1666.750000, 8195.000000, 8241.000000, 8250.000000
1560, 45678504.000000, 1662.375000, 8178.500000, 8217.500000, 8216.500000
1561, 45678664.000000, 1656.750000, 8163.500000, 8203.000000, 8191.500000
1562, 45678824.000000, 1652.750000, 8156.000000, 8196.000000, 8181.000000
1563, 45678984.000000, 1645.375000, 8158.500000, 8195.500000, 8179.500000
1564, 45679144.000000, 1632.875000, 8162.000000, 8195.500000, 8182.500000
1565, 45679304.000000, 1622.500000, 8168.000000, 8193.500000, 8182.500000
1566, 45679464.000000, 1613.500000, 8168.500000, 8194.000000, 8182.500000
1567, 45679624.000000, 1604.625000, 8170.500000, 8194.000000, 8185.000000
1568, 45679784.000000, 1594.875000, 8169.000000, 8191.500000, 8181.500000
1569, 45679944.000000, 1579.000000, 8168.500000, 8188.000000, 8177.500000
1570, 45680104.000000, 1559.625000, 8170.000000, 8186.000000, 8175.000000
1571, 45680264.000000, 1556.375000, 8168.500000, 8183.500000, 8171.000000
1572, 45680424.000000, 1622.000000, 8171.500000, 8185.500000, 8175.000000
1573, 45680584.000000, 1797.750000, 8170.500000, 8184.500000, 8173.500000
1574, 45680744.000000, 2043.125000, 8170.000000, 8182.500000, 8169.500000
1575, 45680904.000000, 2268.000000, 8172.500000, 8183.500000, 8172.000000
1576, 45681064.000000, 2395.500000, 8173.000000, 8185.000000, 8174.000000
1577, 45681224.000000, 2429.000000, 8171.000000, 8184.000000, 8171.500000
1578, 45681384.000000, 2391.625000, 8173.000000, 8185.500000, 8174.500000
1579, 45681544.000000, 2318.875000, 8171.000000, 8183.500000, 8170.500000
1580, 45681704.000000, 2234.750000, 8177.500000, 8186.500000, 8180.000000
1581, 45681864.000000, 2153.000000, 8190.500000, 8204.000000, 8215.000000
1582, 45682024.000000, 2075.250000, 8193.500000, 8207.500000, 8224.500000
1583, 45682184.000000, 2011.625000, 8191.500000, 8201.000000, 8213.500000
1584, 45682344.000000, 1977.000000, 8185.000000, 8187.000000, 8183.500000
1585, 45682504.000000, 1974.750000, 8171.500000, 8177.000000, 8160.500000
1586, 45682664.000000, 1996.500000, 8173.500000, 8177.500000, 8161.500000
1587, 45682824.000000, 2027.375000, 8175.500000, 8178.000000, 8163.500000
1588, 45682984.000000, 2050.750000, 8154.000000, 8203.500000, 8177.500000
1589, 45683144.000000, 2053.375000, 8338.000000, 8178.500000, 8268.000000
1590, 45683304.000000, 2034.125000, 8479.000000, 7868.000000, 8014.000000
1591, 45683464.000000, 2001.250000, 8176.000000, 8104.500000, 8085.500000
1592, 45683624.000000, 1965.625000, 8192.500000, 8207.000000, 8205.500000
1593, 45683784.000000, 1927.375000, 8184.000000, 8218.000000, 8212.000000
1594, 45683944.000000, 1895.500000, 8188.000000, 8219.000000, 8214.000000
1595, 45684104.000000, 1868.875000, 8192.500000, 8221.500000, 8219.000000
1596, 45684264.000000, 1848.625000, 8199.500000, 8227.000000, 8228.000000
1597, 45684424.000000, 1834.500000, 8209.000000, 8231.500000, 8239.500000
1598, 45684584.000000, 1822.875000, 8219.000000, 8235.000000, 8248.000000
1599, 45684744.000000, 1813.500000, 8226.500000, 8238.000000, 8257.000000
1600, 45684904.000000, 1803.500000, 8230.500000, 8241.000000, 8263.500000
1601, 45685064.000000, 1796.750000, 8233.000000, 8245.000000, 8269.000000
1602, 45685224.000000, 1791.125000, 8222.500000, 8240.500000, 8264.500000
1603, 45685384.000000, 1782.750000, 8211.500000, 8220.500000, 8241.500000
1604, 45685544.000000, 1778.375000, 8196.000000, 8199.500000, 8207.000000
1605, 45685704.000000, 1773.625000, 8185.500000, 8187.000000, 8186.500000
1606, 45685864.000000, 1766.125000, 8180.500000, 8182.500000, 8180.000000
1607, 45686024.000000, 1757.500000, 8183.500000, 8184.500000, 8182.000000
1608, 45686184.000000, 1747.500000, 8192.500000, 8184.500000, 8187.000000
1609, 45686344.000000, 1738.750000, 8192.000000, 8182.500000, 8185.500000
1610, 45686504.000000, 1731.500000, 8195.500000, 8180.500000, 8184.000000
1611, 45686664.000000, 1721.625000, 8199.000000, 8178.500000, 8186.500000
1612, 45686824.000000, 1715.125000, 8195.000000, 8176.500000, 8181.500000
1613, 45686984.000000, 1704.375000, 8196.000000, 8173.500000, 8177.500000
1614, 45687144.000000, 1690.250000, 8194.000000, 8170.500000, 8174.500000
1615, 45687304.000000, 1688.625000, 8196.000000, 8170.500000, 8172.500000
1616, 45687464.000000, 1747.125000, 8192.500000, 8167.500000, 8171.000000
1617, 45687624.000000, 1902.875000, 8196.500000, 8170.500000, 8175.500000
1618, 45687784.000000, 2130.125000, 8196.000000, 8170.500000, 8172.500000
1619, 45687944.000000, 2331.875000, 8193.000000, 8168.000000, 8170.000000
1620, 45688104.000000, 2449.875000, 8197.500000, 8167.500000, 8172.000000
1621, 45688264.000000, 2471.750000, 8193.000000, 8169.000000, 8171.000000
1622, 45688424.000000, 2428.375000, 8200.000000, 8175.500000, 8183.000000
1623, 45688584.000000, 2351.500000, 8208.500000, 8185.500000, 8203.500000
1624, 45688744.000000, 2261.500000, 8216.000000, 8190.000000, 8217.000000
1625, 45688904.000000, 2170.625000, 8213.000000, 8180.500000, 8202.500000
1626, 45689064.000000, 2086.625000, 8200.500000, 8170.500000, 8175.000000
1627, 45689224.000000, 2024.875000, 8192.500000, 8165.500000, 8163.000000
1628, 45689384.000000, 1997.125000, 8191.000000, 8163.500000, 8160.000000
1629, 45689544.000000, 2005.250000, 8194.000000, 8162.000000, 8156.500000
1630, 45689704.000000, 2038.000000, 8181.500000, 8207.000000, 8200.000000
1631, 45689864.000000, 2075.625000, 8463.000000, 8129.500000, 8281.000000
1632, 45690024.000000, 2102.375000, 8362.000000, 7948.000000, 8032.500000
1633, 45690184.000000, 2103.250000, 8182.500000, 8118.000000, 8109.000000
1634, 45690344.000000, 2081.500000, 8195.500000, 8188.500000, 8190.000000
1635, 45690504.000000, 2046.000000, 8192.000000, 8197.000000, 8194.500000
1636, 45690664.000000, 2005.375000, 8197.000000, 8204.500000, 8205.500000
1637, 45690824.000000, 1966.125000, 8201.000000, 8206.500000, 8211.500000
1638, 45690984.000000, 1930.250000, 8209.000000, 8210.500000, 8219.000000
1639, 45691144.000000, 1897.500000, 8216.500000, 8213.500000, 8222.500000
1640, 45691304.000000, 1869.125000, 8226.500000, 8221.000000, 8238.000000
1641, 45691464.000000, 1840.750000, 8241.500000, 8228.000000, 8251.000000
1642, 45691624.000000, 1818.375000, 8239.000000, 8233.000000, 8255.500000
1643, 45691784.000000, 1796.000000, 8232.000000, 8233.500000, 8257.500000
1644, 45691944.000000, 1776.000000, 8224.500000, 8227.500000, 8248.000000
1645, 45692104.000000, 1756.000000, 8202.000000, 8207.000000, 8221.000000
1646, 45692264.000000, 1737.625000, 8184.000000, 8194.500000, 8195.500000
1647, 45692424.000000, 1719.125000, 8171.500000, 8187.000000, 8179.000000
1648, 45692584.000000, 1703.625000, 8167.500000, 8184.000000, 8177.000000
1649, 45692744.000000, 1686.250000, 8171.500000, 8184.500000, 8178.000000
1650, 45692904.000000, 1669.000000, 8175.500000, 8186.000000, 8179.500000
1651, 45693064.000000, 1652.250000, 8183.000000, 8186.500000, 8185.500000
1652, 45693224.000000, 1634.375000, 8181.500000, 8183.500000, 8183.500000
1653, 45693384.000000, 1614.875000, 8186.000000, 8183.000000, 8183.000000
1654, 45693544.000000, 1588.500000, 8181.000000, 8180.500000, 8176.500000
1655, 45693704.000000, 1559.375000, 8178.000000, 8179.000000, 8174.000000
1656, 45693864.000000, 1529.125000, 8179.000000, 8181.500000, 8174.500000
1657, 45694024.000000, 1501.000000, 8176.500000, 8181.000000, 8177.000000
1658, 45694184.000000, 1498.250000, 8175.500000, 8179.500000, 8172.000000
1659, 45694344.000000, 1591.500000, 8173.000000, 8177.000000, 8169.500000
1660, 45694504.000000, 1807.250000, 8178.000000, 8180.000000, 8174.000000
1661, 45694664.000000, 2093.500000, 8188.500000, 8196.000000, 8204.000000
1662, 45694824.000000, 2325.875000, 8194.000000, 8203.500000, 8220.000000
1663, 45694984.000000, 2452.125000, 8192.500000, 8196.500000, 8210.000000
1664, 45695144.000000, 2463.375000, 8184.000000, 8183.000000, 8181.000000
1665, 45695304.000000, 2403.125000, 8170.500000, 8174.500000, 8160.500000
1666, 45695464.000000, 2297.625000, 8174.000000, 8176.500000, 8160.500000
1667, 45695624.000000, 2164.875000, 8171.500000, 8176.000000, 8161.500000
1668, 45695784.000000, 2022.375000, 8161.000000, 8194.000000, 8171.500000
1669, 45695944.000000, 1889.625000, 8297.000000, 8207.500000, 8269.500000
1670, 45696104.000000, 1805.250000, 8461.500000, 7960.500000, 8116.000000
1671, 45696264.000000, 1786.375000, 8147.500000, 8051.000000, 8016.000000
1672, 45696424.000000, 1831.250000, 8179.000000, 8186.500000, 8181.000000
1673, 45696584.000000, 1909.375000, 8177.000000, 8205.000000, 8194.000000
1674, 45696744.000000, 1991.750000, 8180.000000, 8208.500000, 8198.000000
1675, 45696904.000000, 2042.250000, 8179.000000, 8211.500000, 8204.500000
1676, 45697064.000000, 2051.500000, 8190.000000, 8216.500000, 8210.500000
1677, 45697224.000000, 2031.250000, 8199.000000, 8223.500000, 8225.000000
1678, 45697384.000000, 1991.750000, 8206.000000, 8227.500000, 8233.500000
1679, 45697544.000000, 1941.375000, 8219.000000, 8234.000000, 8245.000000
1680, 45697704.000000, 1892.125000, 8227.000000, 8240.000000, 8254.000000
1681, 45697864.000000, 1850.250000, 8224.500000, 8244.500000, 8261.000000
1682, 45698024.000000, 1819.125000, 8216.000000, 8243.000000, 8260.000000
1683, 45698184.000000, 1797.125000, 8198.500000, 8225.500000, 8235.500000
1684, 45698344.000000, 1782.875000, 8177.000000, 8202.000000, 8199.500000
1685, 45698504.000000, 1770.500000, 8162.000000, 8193.500000, 8181.000000
1686, 45698664.000000, 1760.500000, 8159.000000, 8194.000000, 8179.000000
1687, 45698824.000000, 1751.625000, 8161.000000, 8193.500000, 8180.500000
1688, 45698984.000000, 1746.375000, 8168.500000, 8195.500000, 8184.000000
1689, 45699144.000000, 1741.875000, 8166.000000, 8194.000000, 8182.000000
1690, 45699304.000000, 1738.750000, 8172.000000, 8193.000000, 8183.000000
1691, 45699464.000000, 1733.500000, 8174.000000, 8191.500000, 8183.000000
1692, 45699624.000000, 1719.625000, 8174.000000, 8190.500000, 8182.000000
1693, 45699784.000000, 1695.625000, 8172.000000, 8187.500000, 8178.500000
1694, 45699944.000000, 1668.125000, 8169.500000, 8186.000000, 8174.500000
1695, 45700104.000000, 1639.000000, 8171.000000, 8186.500000, 8175.500000
1696, 45700264.000000, 1630.500000, 8170.000000, 8188.500000, 8175.500000
1697, 45700424.000000, 1705.500000, 8178.500000, 8197.500000, 8196.500000
1698, 45700584.000000, 1923.625000, 8186.000000, 8206.500000, 8216.500000
1699, 45700744.000000, 2256.500000, 8191.000000, 8206.500000, 8220.500000
1700, 45700904.000000, 2580.000000, 8184.000000, 8195.000000, 8198.000000
1701, 45701064.000000, 2793.250000, 8171.000000, 8185.500000, 8170.500000
1702, 45701224.000000, 2866.375000, 8165.000000, 8180.500000, 8159.500000
1703, 45701384.000000, 2840.000000, 8162.500000, 8177.500000, 8155.000000
1704, 45701544.000000, 2743.250000, 8163.500000, 8182.000000, 8158.500000
1705, 45701704.000000, 2612.625000, 8176.500000, 8218.500000, 8207.500000
1706, 45701864.000000, 2460.000000, 8456.500000, 8027.000000, 8177.500000
1707, 45702024.000000, 2304.750000, 8246.000000, 7973.500000, 7984.500000
1708, 45702184.000000, 2179.625000, 8168.500000, 8168.500000, 8154.000000
1709, 45702344.000000, 2118.250000, 8170.000000, 8209.500000, 8192.500000
1710, 45702504.000000, 2129.000000, 8171.500000, 8217.000000, 8202.500000
1711, 45702664.000000, 2194.250000, 8172.500000, 8221.500000, 8207.000000
1712, 45702824.000000, 2282.500000, 8178.500000, 8224.500000, 8213.000000
1713, 45702984.000000, 2351.375000, 8185.500000, 8228.000000, 8220.000000
1714, 45703144.000000, 2381.500000, 8197.500000, 8233.000000, 8232.500000
1715, 45703304.000000, 2368.125000, 8209.500000, 8241.000000, 8245.500000
1716, 45703464.000000, 2321.625000, 8221.500000, 8250.500000, 8262.000000
1717, 45703624.000000, 2260.625000, 8218.000000, 8254.000000, 8268.000000
1718, 45703784.000000, 2195.375000, 8212.000000, 8252.000000, 8262.500000
1719, 45703944.000000, 2135.125000, 8200.000000, 8236.500000, 8245.000000
1720, 45704104.000000, 2082.125000, 8178.000000, 8212.500000, 8209.500000
1721, 45704264.000000, 2039.125000, 8160.500000, 8199.500000, 8186.000000
1722, 45704424.000000, 2004.500000, 8153.000000, 8195.500000, 8176.500000
1723, 45704584.000000, 1977.875000, 8155.500000, 8194.000000, 8174.000000
1724, 45704744.000000, 1953.750000, 8159.000000, 8194.500000, 8177.500000
1725, 45704904.000000, 1931.250000, 8163.500000, 8195.000000, 8181.500000
1726, 45705064.000000, 1915.250000, 8163.500000, 8195.000000, 8179.500000
1727, 45705224.000000, 1901.250000, 8167.500000, 8193.500000, 8182.500000
1728, 45705384.000000, 1885.625000, 8168.000000, 8190.500000, 8178.000000
1729, 45705544.000000, 1862.250000, 8165.000000, 8189.000000, 8174.500000
1730, 45705704.000000, 1820.625000, 8164.000000, 8188.500000, 8171.500000
1731, 45705864.000000, 1784.875000, 8167.500000, 8189.000000, 8175.000000
1732, 45706024.000000, 1857.375000, 8164.500000, 8186.500000, 8172.500000
1733, 45706184.000000, 2160.250000, 8166.000000, 8184.500000, 8170.500000
1734, 45706344.000000, 2565.625000, 8167.500000, 8189.000000, 8177.000000
1735, 45706504.000000, 2953.500000, 8180.500000, 8205.500000, 8208.000000
1736, 45706664.000000, 3226.000000, 8190.500000, 8211.500000, 8228.500000
1737, 45706824.000000, 3359.625000, 8187.000000, 8201.000000, 8209.000000
1738, 45706984.000000, 3370.875000, 8170.000000, 8185.000000, 8169.000000
1739, 45707144.000000, 3283.500000, 8161.000000, 8177.000000, 8152.000000
1740, 45707304.000000, 3150.500000, 8162.500000, 8178.000000, 8154.500000
1741, 45707464.000000, 2999.875000, 8164.000000, 8178.500000, 8155.000000
1742, 45707624.000000, 2859.875000, 8139.000000, 8216.500000, 8182.500000
1743, 45707784.000000, 2743.875000, 8366.500000, 8141.000000, 8239.500000
1744, 45707944.000000, 2690.375000, 8439.500000, 7865.000000, 7976.000000
1745, 45708104.000000, 2703.375000, 8160.000000, 8120.500000, 8092.500000
1746, 45708264.000000, 2763.750000, 8171.000000, 8211.000000, 8198.500000
1747, 45708424.000000, 2836.000000, 8166.000000, 8221.500000, 8204.500000
1748, 45708584.000000, 2886.375000, 8167.500000, 8224.500000, 8207.500000
1749, 45708744.000000, 2887.625000, 8173.500000, 8226.500000, 8212.500000
1750, 45708904.000000, 2836.625000, 8181.000000, 8232.500000, 8224.500000
1751, 45709064.000000, 2765.875000, 8187.500000, 8239.500000, 8234.000000
1752, 45709224.000000, 2682.750000, 8198.500000, 8245.500000, 8247.000000
1753, 45709384.000000, 2601.000000, 8209.000000, 8254.000000, 8262.000000
1754, 45709544.000000, 2527.125000, 8216.500000, 8260.000000, 8271.500000
1755, 45709704.000000, 2463.125000, 8213.000000, 8261.000000, 8274.000000
1756, 45709864.000000, 2411.125000, 8203.000000, 8254.000000, 8264.500000
1757, 45710024.000000, 2365.750000, 8181.500000, 8226.500000, 8226.500000
1758, 45710184.000000, 2323.625000, 8161.000000, 8206.500000, 8194.000000
1759, 45710344.000000, 2286.125000, 8152.000000, 8195.500000, 8174.500000
1760, 45710504.000000, 2250.250000, 8151.500000, 8195.500000, 8172.000000
1761, 45710664.000000, 2216.250000, 8155.000000, 8198.000000, 8178.500000
1762, 45710824.000000, 2185.125000, 8160.000000, 8198.500000, 8180.500000
1763, 45710984.000000, 2154.375000, 8160.500000, 8195.500000, 8178.000000
1764, 45711144.000000, 2119.375000, 8164.000000, 8196.000000, 8181.000000
1765, 45711304.000000, 2072.125000, 8165.500000, 8194.000000, 8179.500000
1766, 45711464.000000, 2012.000000, 8163.500000, 8195.000000, 8178.500000
1767, 45711624.000000, 1974.625000, 8163.500000, 8191.500000, 8177.000000
1768, 45711784.000000, 2063.000000, 8161.500000, 8188.500000, 8170.500000
1769, 45711944.000000, 2347.750000, 8163.500000, 8187.000000, 8169.500000
1770, 45712104.000000, 2796.625000, 8162.500000, 8188.500000, 8171.000000
1771, 45712264.000000, 3260.750000, 8165.000000, 8189.000000, 8174.000000
1772, 45712424.000000, 3623.750000, 8164.000000, 8188.500000, 8171.500000
1773, 45712584.000000, 3843.375000, 8162.500000, 8186.500000, 8169.000000
1774, 45712744.000000, 3920.000000, 8168.000000, 8191.000000, 8179.500000
1775, 45712904.000000, 3895.250000, 8179.000000, 8205.000000, 8206.500000
1776, 45713064.000000, 3805.750000, 8187.500000, 8211.500000, 8224.500000
1777, 45713224.000000, 3685.000000, 8182.000000, 8201.000000, 8206.000000
1778, 45713384.000000, 3541.500000, 8170.000000, 8188.000000, 8173.500000
1779, 45713544.000000, 3385.625000, 8161.500000, 8180.000000, 8156.000000
1780, 45713704.000000, 3254.125000, 8161.000000, 8179.500000, 8154.500000
1781, 45713864.000000, 3174.875000, 8163.000000, 8182.000000, 8158.000000
1782, 45714024.000000, 3152.000000, 8137.500000, 8218.000000, 8184.000000
1783, 45714184.000000, 3166.000000, 8357.000000, 8124.500000, 8222.500000
1784, 45714344.000000, 3184.750000, 8451.000000, 7833.500000, 7949.000000
1785, 45714504.000000, 3180.625000, 8167.500000, 8134.500000, 8113.500000
1786, 45714664.000000, 3142.250000, 8170.000000, 8220.000000, 8205.000000
1787, 45714824.000000, 3066.250000, 8165.500000, 8229.500000, 8213.000000
1788, 45714984.000000, 2964.500000, 8170.000000, 8230.000000, 8215.000000
1789, 45715144.000000, 2847.250000, 8175.500000, 8233.500000, 8222.000000
1790, 45715304.000000, 2734.875000, 8179.500000, 8238.000000, 8230.000000
1791, 45715464.000000, 2624.625000, 8187.000000, 8244.500000, 8240.500000
1792, 45715624.000000, 2521.625000, 8197.000000, 8251.500000, 8253.500000
1793, 45715784.000000, 2434.125000, 8208.000000, 8258.000000, 8265.500000
1794, 45715944.000000, 2362.125000, 8214.500000, 8262.500000, 8273.500000
1795, 45716104.000000, 2295.875000, 8211.000000, 8266.000000, 8278.000000
1796, 45716264.000000, 2233.375000, 8204.000000, 8258.500000, 8271.500000
1797, 45716424.000000, 2171.875000, 8185.000000, 8231.500000, 8234.000000
1798, 45716584.000000, 2110.625000, 8163.000000, 8207.500000, 8194.500000
1799, 45716744.000000, 2054.250000, 8152.000000, 8197.500000, 8176.000000
1800, 45716904.000000, 2001.500000, 8151.500000, 8197.000000, 8175.500000
1801, 45717064.000000, 1950.500000, 8153.000000, 8196.500000, 8175.500000
1802, 45717224.000000, 1901.500000, 8158.000000, 8197.000000, 8178.000000
1803, 45717384.000000, 1854.625000, 8162.000000, 8196.000000, 8179.000000
1804, 45717544.000000, 1805.500000, 8164.500000, 8195.000000, 8181.000000
1805, 45717704.000000, 1752.750000, 8165.000000, 8195.500000, 8182.500000
1806, 45717864.000000, 1687.375000, 8164.500000, 8194.500000, 8180.500000
1807, 45718024.000000, 1651.125000, 8164.000000, 8191.500000, 8176.500000
1808, 45718184.000000, 1755.250000, 8163.000000, 8187.500000, 8171.500000
1809, 45718344.000000, 2076.125000, 8164.500000, 8187.500000, 8171.500000
1810, 45718504.000000, 2572.125000, 8165.000000, 8188.500000, 8173.500000
1811, 45718664.000000, 3082.750000, 8166.000000, 8188.000000, 8172.000000
1812, 45718824.000000, 3478.375000, 8167.000000, 8187.500000, 8172.500000
1813, 45718984.000000, 3709.250000, 8167.000000, 8185.500000, 8170.500000
1814, 45719144.000000, 3779.500000, 8165.500000, 8185.500000, 8169.000000
1815, 45719304.000000, 3740.625000, 8168.500000, 8186.500000, 8172.000000
1816, 45719464.000000, 3639.250000, 8169.000000, 8188.500000, 8174.500000
1817, 45719624.000000, 3509.875000, 8177.500000, 8198.000000, 8193.500000
1818, 45719784.000000, 3359.000000, 8184.000000, 8206.500000, 8212.500000
1819, 45719944.000000, 3191.875000, 8190.500000, 8207.000000, 8220.000000
1820, 45720104.000000, 3042.500000, 8185.500000, 8197.500000, 8200.000000
1821, 45720264.000000, 2939.500000, 8171.000000, 8187.000000, 8172.000000
1822, 45720424.000000, 2888.125000, 8166.000000, 8181.000000, 8159.000000
1823, 45720584.000000, 2874.750000, 8169.000000, 8178.000000, 8158.000000
1824, 45720744.000000, 2866.875000, 8169.000000, 8181.000000, 8161.000000
1825, 45720904.000000, 2844.125000, 8149.500000, 8221.500000, 8195.500000
1826, 45721064.000000, 2797.375000, 8434.000000, 7999.500000, 8135.000000
1827, 45721224.000000, 2715.000000, 8349.500000, 7881.500000, 7930.500000
1828, 45721384.000000, 2607.250000, 8184.500000, 8174.000000, 8168.500000
1829, 45721544.000000, 2490.000000, 8174.000000, 8220.500000, 8209.500000
1830, 45721704.000000, 2369.000000, 8169.500000, 8229.000000, 8215.000000
1831, 45721864.000000, 2255.750000, 8174.000000, 8232.500000, 8222.000000
1832, 45722024.000000, 2155.250000, 8179.500000, 8234.500000, 8227.500000
1833, 45722184.000000, 2065.625000, 8185.000000, 8237.500000, 8232.500000
1834, 45722344.000000, 1984.250000, 8193.000000, 8242.500000, 8244.000000
1835, 45722504.000000, 1915.750000, 8204.000000, 8252.000000, 8260.000000
1836, 45722664.000000, 1851.375000, 8213.000000, 8258.000000, 8271.000000
1837, 45722824.000000, 1793.500000, 8217.000000, 8261.500000, 8277.500000
1838, 45722984.000000, 1747.375000, 8213.500000, 8260.500000, 8276.000000
1839, 45723144.000000, 1707.000000, 8201.000000, 8249.000000, 8261.000000
1840, 45723304.000000, 1667.625000, 8184.000000, 8224.500000, 8228.000000
1841, 45723464.000000, 1627.125000, 8166.500000, 8205.500000, 8196.000000
1842, 45723624.000000, 1589.000000, 8156.000000, 8196.500000, 8179.500000
1843, 45723784.000000, 1544.625000, 8155.000000, 8193.500000, 8173.000000
1844, 45723944.000000, 1496.125000, 8159.000000, 8193.500000, 8176.500000
1845, 45724104.000000, 1448.875000, 8163.500000, 8196.500000, 8183.000000
1846, 45724264.000000, 1405.375000, 8165.000000, 8197.500000, 8184.500000
1847, 45724424.000000, 1362.500000, 8166.000000, 8193.500000, 8181.500000
1848, 45724584.000000, 1308.625000, 8166.500000, 8192.000000, 8178.500000
1849, 45724744.000000, 1248.375000, 8169.000000, 8191.000000, 8179.000000
1850, 45724904.000000, 1220.125000, 8167.500000, 8190.000000, 8178.000000
1851, 45725064.000000, 1333.875000, 8167.000000, 8187.000000, 8172.000000
1852, 45725224.000000, 1659.875000, 8167.500000, 8185.500000, 8171.500000
1853, 45725384.000000, 2154.500000, 8167.500000, 8183.000000, 8167.000000
1854, 45725544.000000, 2659.500000, 8168.000000, 8184.500000, 8169.500000
1855, 45725704.000000, 3057.000000, 8168.500000, 8186.000000, 8169.500000
1856, 45725864.000000, 3278.125000, 8170.000000, 8186.000000, 8173.000000
1857, 45726024.000000, 3347.000000, 8169.500000, 8184.000000, 8170.500000
1858, 45726184.000000, 3302.875000, 8168.000000, 8184.500000, 8169.500000
1859, 45726344.000000, 3203.125000, 8171.000000, 8184.000000, 8171.000000
1860, 45726504.000000, 3076.000000, 8175.500000, 8192.500000, 8185.000000
1861, 45726664.000000, 2924.750000, 8186.500000, 8208.500000, 8217.000000
1862, 45726824.000000, 2761.625000, 8193.000000, 8207.500000, 8223.500000
1863, 45726984.000000, 2618.500000, 8187.000000, 8195.500000, 8202.500000
1864, 45727144.000000, 2529.125000, 8176.000000, 8186.000000, 8175.500000
1865, 45727304.000000, 2490.250000, 8167.500000, 8181.500000, 8161.500000
1866, 45727464.000000, 2481.375000, 8167.500000, 8179.000000, 8159.000000
1867, 45727624.000000, 2480.750000, 8168.000000, 8179.000000, 8158.500000
1868, 45727784.000000, 2463.875000, 8142.500000, 8215.000000, 8183.500000
1869, 45727944.000000, 2418.500000, 8379.000000, 8113.500000, 8221.500000
1870, 45728104.000000, 2336.875000, 8431.000000, 7859.000000, 7964.500000
1871, 45728264.000000, 2235.500000, 8175.500000, 8142.500000, 8128.000000
1872, 45728424.000000, 2122.875000, 8174.000000, 8216.500000, 8204.000000
1873, 45728584.000000, 2013.750000, 8168.000000, 8225.000000, 8210.000000
1874, 45728744.000000, 1911.625000, 8171.500000, 8228.500000, 8216.000000
1875, 45728904.000000, 1819.750000, 8175.500000, 8232.500000, 8222.000000
1876, 45729064.000000, 1739.250000, 8180.000000, 8237.000000, 8230.000000
1877, 45729224.000000, 1668.750000, 8189.000000, 8240.000000, 8239.000000
1878, 45729384.000000, 1606.000000, 8199.500000, 8246.500000, 8251.500000
1879, 45729544.000000, 1549.375000, 8210.000000, 8252.500000, 8263.500000
1880, 45729704.000000, 1500.750000, 8213.500000, 8257.500000, 8271.000000
1881, 45729864.000000, 1456.125000, 8208.000000, 8258.000000, 8272.000000
1882, 45730024.000000, 1422.875000, 8200.500000, 8248.000000, 8260.500000
1883, 45730184.000000, 1387.500000, 8183.000000, 8225.500000, 8229.500000
1884, 45730344.000000, 1356.250000, 8164.000000, 8207.000000, 8199.500000
1885, 45730504.000000, 1321.250000, 8152.000000, 8198.000000, 8181.000000
1886, 45730664.000000, 1283.375000, 8151.500000, 8194.500000, 8177.000000
1887, 45730824.000000, 1243.000000, 8154.000000, 8194.500000, 8178.500000
1888, 45730984.000000, 1203.625000, 8159.500000, 8194.000000, 8182.500000
1889, 45731144.000000, 1167.375000, 8165.000000, 8195.000000, 8188.000000
1890, 45731304.000000, 1132.625000, 8165.500000, 8195.000000, 8186.500000
1891, 45731464.000000, 1088.625000, 8166.500000, 8194.000000, 8186.500000
1892, 45731624.000000, 1035.625000, 8168.000000, 8190.000000, 8183.000000
1893, 45731784.000000, 984.500000, 8163.000000, 8188.000000, 8176.000000
1894, 45731944.000000, 995.625000, 8165.500000, 8185.500000, 8175.000000
1895, 45732104.000000, 1151.250000, 8164.000000, 8186.000000, 8173.000000
1896, 45732264.000000, 1518.750000, 8164.000000, 8185.500000, 8172.000000
1897, 45732424.000000, 1994.000000, 8164.000000, 8184.000000, 8171.000000
1898, 45732584.000000, 2443.000000, 8163.500000, 8183.000000, 8167.500000
1899, 45732744.000000, 2752.500000, 8164.500000, 8183.500000, 8169.500000
1900, 45732904.000000, 2900.125000, 8164.500000, 8185.500000, 8171.500000
1901, 45733064.000000, 2918.625000, 8166.000000, 8184.500000, 8171.500000
1902, 45733224.000000, 2843.000000, 8165.500000, 8186.000000, 8172.500000
1903, 45733384.000000, 2727.000000, 8168.000000, 8185.000000, 8174.000000
1904, 45733544.000000, 2577.625000, 8180.500000, 8201.500000, 8207.000000
1905, 45733704.000000, 2411.750000, 8183.000000, 8206.000000, 8217.000000
1906, 45733864.000000, 2256.000000, 8186.000000, 8201.000000, 8212.000000
1907, 45734024.000000, 2148.250000, 8178.500000, 8187.000000, 8181.500000
1908, 45734184.000000, 2098.000000, 8167.000000, 8179.000000, 8162.000000
1909, 45734344.000000, 2097.750000, 8167.000000, 8176.500000, 8157.500000
1910, 45734504.000000, 2116.625000, 8165.500000, 8177.000000, 8158.500000
1911, 45734664.000000, 2130.625000, 8152.500000, 8193.500000, 8164.500000
1912, 45734824.000000, 2111.875000, 8260.500000, 8206.000000, 8252.500000
1913, 45734984.000000, 2058.250000, 8486.500000, 7885.500000, 8052.000000
1914, 45735144.000000, 1978.125000, 8157.000000, 8058.000000, 8023.000000
1915, 45735304.000000, 1884.250000, 8179.000000, 8202.500000, 8197.000000
1916, 45735464.000000, 1789.875000, 8173.000000, 8220.000000, 8211.000000
1917, 45735624.000000, 1696.875000, 8173.000000, 8222.500000, 8213.500000
1918, 45735784.000000, 1615.000000, 8175.500000, 8224.000000, 8214.500000
1919, 45735944.000000, 1543.750000, 8183.500000, 8228.500000, 8224.000000
1920, 45736104.000000, 1481.625000, 8191.000000, 8233.500000, 8233.500000
1921, 45736264.000000, 1430.500000, 8202.500000, 8239.500000, 8248.500000
1922, 45736424.000000, 1384.375000, 8211.500000, 8243.000000, 8255.000000
1923, 45736584.000000, 1344.125000, 8220.500000, 8247.500000, 8264.500000
1924, 45736744.000000, 1308.875000, 8220.500000, 8250.500000, 8270.500000
1925, 45736904.000000, 1280.750000, 8215.000000, 8248.500000, 8267.000000
1926, 45737064.000000, 1254.750000, 8200.500000, 8230.000000, 8244.500000
1927, 45737224.000000, 1230.875000, 8182.000000, 8205.500000, 8207.500000
1928, 45737384.000000, 1208.375000, 8170.000000, 8191.500000, 8184.500000
1929, 45737544.000000, 1181.500000, 8163.500000, 8187.500000, 8176.000000
1930, 45737704.000000, 1151.500000, 8170.500000, 8188.000000, 8180.000000
1931, 45737864.000000, 1119.625000, 8175.000000, 8189.500000, 8185.500000
1932, 45738024.000000, 1088.875000, 8178.000000, 8186.500000, 8182.500000
1933, 45738184.000000, 1059.500000, 8182.000000, 8184.000000, 8184.000000
1934, 45738344.000000, 1027.250000, 8183.000000, 8185.500000, 8185.500000
1935, 45738504.000000, 990.875000, 8185.000000, 8182.000000, 8182.000000
1936, 45738664.000000, 946.750000, 8184.000000, 8179.500000, 8179.500000
1937, 45738824.000000, 910.875000, 8181.500000, 8176.500000, 8173.000000
1938, 45738984.000000, 946.750000, 8186.000000, 8175.000000, 8172.000000
1939, 45739144.000000, 1153.500000, 8184.500000, 8172.500000, 8169.000000
1940, 45739304.000000, 1544.750000, 8184.500000, 8175.000000, 8172.500000
1941, 45739464.000000, 2022.125000, 8186.500000, 8174.000000, 8173.500000
1942, 45739624.000000, 2441.250000, 8188.000000, 8171.500000, 8171.500000
1943, 45739784.000000, 2727.500000, 8190.500000, 8172.000000, 8173.000000
1944, 45739944.000000, 2847.625000, 8188.500000, 8172.500000, 8173.000000
1945, 45740104.000000, 2839.375000, 8193.000000, 8175.500000, 8179.000000
1946, 45740264.000000, 2744.375000, 8197.500000, 8175.500000, 8182.000000
1947, 45740424.000000, 2595.500000, 8208.500000, 8188.000000, 8208.000000
1948, 45740584.000000, 2421.625000, 8214.000000, 8191.500000, 8219.000000
1949, 45740744.000000, 2247.125000, 8210.500000, 8186.000000, 8210.500000
1950, 45740904.000000, 2109.500000, 8207.000000, 8177.500000, 8189.500000
1951, 45741064.000000, 2034.500000, 8192.000000, 8169.000000, 8164.500000
1952, 45741224.000000, 2023.500000, 8192.500000, 8163.500000, 8161.000000
1953, 45741384.000000, 2051.875000, 8193.500000, 8165.500000, 8162.000000
1954, 45741544.000000, 2089.750000, 8180.500000, 8187.000000, 8176.000000
1955, 45741704.000000, 2105.750000, 8328.000000, 8202.500000, 8286.000000
1956, 45741864.000000, 2086.625000, 8498.000000, 7918.000000, 8088.000000
1957, 45742024.000000, 2031.125000, 8173.500000, 8054.000000, 8032.000000
1958, 45742184.000000, 1946.875000, 8202.000000, 8182.000000, 8187.000000
1959, 45742344.000000, 1852.250000, 8197.500000, 8201.000000, 8205.500000
1960, 45742504.000000, 1759.500000, 8198.500000, 8206.000000, 8209.500000
1961, 45742664.000000, 1674.000000, 8200.500000, 8210.500000, 8215.000000
1962, 45742824.000000, 1600.125000, 8208.000000, 8211.000000, 8219.000000
1963, 45742984.000000, 1535.125000, 8218.000000, 8214.000000, 8228.000000
1964, 45743144.000000, 1480.875000, 8227.000000, 8222.500000, 8240.000000
1965, 45743304.000000, 1436.000000, 8239.000000, 8228.000000, 8254.500000
1966, 45743464.000000, 1399.250000, 8246.000000, 8234.500000, 8262.500000
1967, 45743624.000000, 1366.875000, 8245.000000, 8236.000000, 8266.500000
1968, 45743784.000000, 1347.000000, 8236.000000, 8233.000000, 8263.000000
1969, 45743944.000000, 1327.125000, 8219.500000, 8216.500000, 8241.000000
1970, 45744104.000000, 1311.250000, 8196.500000, 8198.500000, 8208.500000
1971, 45744264.000000, 1292.125000, 8183.500000, 8188.000000, 8188.500000
1972, 45744424.000000, 1272.375000, 8174.000000, 8182.500000, 8177.500000
1973, 45744584.000000, 1252.000000, 8176.000000, 8185.000000, 8180.000000
1974, 45744744.000000, 1233.000000, 8181.000000, 8187.500000, 8187.000000
1975, 45744904.000000, 1214.000000, 8182.000000, 8186.000000, 8186.500000
1976, 45745064.000000, 1192.375000, 8187.500000, 8184.500000, 8186.500000
1977, 45745224.000000, 1166.375000, 8183.000000, 8180.000000, 8179.000000
1978, 45745384.000000, 1132.000000, 8185.500000, 8179.000000, 8181.500000
1979, 45745544.000000, 1087.750000, 8186.000000, 8182.000000, 8179.500000
1980, 45745704.000000, 1045.250000, 8182.000000, 8179.000000, 8179.000000
1981, 45745864.000000, 1033.125000, 8184.500000, 8178.000000, 8177.000000
1982, 45746024.000000, 1136.375000, 8182.500000, 8177.500000, 8173.500000
1983, 45746184.000000, 1410.625000, 8180.000000, 8175.000000, 8170.000000
1984, 45746344.000000, 1833.500000, 8181.500000, 8178.500000, 8174.000000
1985, 45746504.000000, 2266.250000, 8182.500000, 8180.000000, 8177.000000
1986, 45746664.000000, 2608.000000, 8183.500000, 8177.500000, 8174.000000
1987, 45746824.000000, 2802.250000, 8183.500000, 8177.000000, 8172.500000
1988, 45746984.000000, 2857.750000, 8184.500000, 8177.500000, 8175.000000
1989, 45747144.000000, 2802.750000, 8196.500000, 8193.500000, 8204.500000
1990, 45747304.000000, 2673.875000, 8206.000000, 8200.000000, 8221.500000
1991, 45747464.000000, 2501.625000, 8200.500000, 8194.500000, 8211.000000
1992, 45747624.000000, 2312.125000, 8194.500000, 8182.000000, 8184.500000
1993, 45747784.000000, 2141.000000, 8182.000000, 8174.500000, 8167.000000
1994, 45747944.000000, 2025.375000, 8181.500000, 8175.000000, 8164.500000
1995, 45748104.000000, 1983.875000, 8178.500000, 8174.500000, 8164.000000
1996, 45748264.000000, 2002.000000, 8169.500000, 8191.000000, 8176.000000
1997, 45748424.000000, 2058.000000, 8303.500000, 8209.500000, 8275.000000
1998, 45748584.000000, 2109.000000, 8476.000000, 7974.500000, 8133.000000
1999, 45748744.000000, 2131.500000, 8160.000000, 8050.000000, 8024.000000
2000, 45748904.000000, 2108.000000, 8184.000000, 8183.500000, 8179.500000
2001, 45749064.000000, 2052.125000, 8182.500000, 8205.500000, 8197.500000
2002, 45749224.000000, 1967.250000, 8181.500000, 8207.000000, 8199.500000
2003, 45749384.000000, 1869.125000, 8191.500000, 8207.500000, 8204.500000
2004, 45749544.000000, 1771.625000, 8199.500000, 8213.500000, 8214.500000
2005, 45749704.000000, 1681.750000, 8207.500000, 8220.000000, 8224.500000
2006, 45749864.000000, 1601.250000, 8216.500000, 8222.000000, 8230.500000
2007, 45750024.000000, 1533.750000, 8228.000000, 8225.500000, 8240.500000
2008, 45750184.000000, 1472.625000, 8238.500000, 8235.000000, 8254.000000
2009, 45750344.000000, 1418.750000, 8240.000000, 8243.000000, 8266.000000
2010, 45750504.000000, 1375.375000, 8228.000000, 8240.000000, 8264.000000
2011, 45750664.000000, 1336.125000, 8211.000000, 8224.500000, 8241.000000
2012, 45750824.000000, 1300.875000, 8188.500000, 8202.500000, 8205.500000
2013, 45750984.000000, 1270.500000, 8166.500000, 8192.500000, 8181.000000
2014, 45751144.000000, 1242.125000, 8165.500000, 8190.500000, 8179.000000
2015, 45751304.000000, 1212.625000, 8163.500000, 8191.000000, 8178.500000
2016, 45751464.000000, 1187.750000, 8169.000000, 8192.000000, 8181.000000
2017, 45751624.000000, 1162.750000, 8171.000000, 8191.000000, 8180.500000
2018, 45751784.000000, 1137.750000, 8179.500000, 8188.000000, 8180.000000
2019, 45751944.000000, 1109.250000, 8179.000000, 8187.500000, 8182.500000
2020, 45752104.000000, 1068.125000, 8175.500000, 8185.000000, 8178.500000
2021, 45752264.000000, 1019.500000, 8176.000000, 8187.000000, 8179.500000
2022, 45752424.000000, 972.375000, 8173.500000, 8182.500000, 8172.500000
2023, 45752584.000000, 945.125000, 8176.500000, 8184.500000, 8175.500000
2024, 45752744.000000, 1010.000000, 8171.500000, 8182.500000, 8173.000000
2025, 45752904.000000, 1236.250000, 8173.000000, 8184.500000, 8173.000000
2026, 45753064.000000, 1616.375000, 8174.500000, 8186.000000, 8175.000000
2027, 45753224.000000, 2036.625000, 8177.000000, 8182.500000, 8172.000000
2028, 45753384.000000, 2387.750000, 8179.500000, 8191.000000, 8188.000000
2029, 45753544.000000, 2611.875000, 8188.500000, 8204.000000, 8213.500000
2030, 45753704.000000, 2698.500000, 8192.500000, 8201.500000, 8214.000000
2031, 45753864.000000, 2677.875000, 8191.500000, 8193.500000, 8198.000000
2032, 45754024.000000, 2576.375000, 8174.500000, 8183.000000, 8171.500000
2033, 45754184.000000, 2426.375000, 8176.000000, 8176.500000, 8159.500000
2034, 45754344.000000, 2248.375000, 8172.500000, 8178.500000, 8161.000000
2035, 45754504.000000, 2076.250000, 8172.000000, 8181.000000, 8164.000000
2036, 45754664.000000, 1944.375000, 8188.000000, 8218.000000, 8213.500000
2037, 45754824.000000, 1873.625000, 8473.000000, 8068.500000, 8229.500000
2038, 45754984.000000, 1868.625000, 8244.000000, 7991.000000, 8009.500000
2039, 45755144.000000, 1912.000000, 8169.000000, 8159.000000, 8142.000000
2040, 45755304.000000, 1970.750000, 8176.500000, 8206.500000, 8194.500000
2041, 45755464.000000, 2009.875000, 8177.000000, 8212.500000, 8203.000000
2042, 45755624.000000, 2017.125000, 8181.500000, 8212.000000, 8202.000000
2043, 45755784.000000, 1984.625000, 8186.000000, 8216.000000, 8208.500000
2044, 45755944.000000, 1924.250000, 8198.000000, 8219.500000, 8218.500000
2045, 45756104.000000, 1841.750000, 8207.000000, 8227.500000, 8229.500000
2046, 45756264.000000, 1755.125000, 8220.500000, 8230.000000, 8238.000000
2047, 45756424.000000, 1670.000000, 8236.000000, 8237.500000, 8253.000000
2048, 45756584.000000, 1593.875000, 8237.000000, 8244.500000, 8264.500000
2049, 45756744.000000, 1528.250000, 8230.500000, 8250.000000, 8269.500000
2050, 45756904.000000, 1477.125000, 8216.500000, 8237.000000, 8253.000000
2051, 45757064.000000, 1432.000000, 8185.500000, 8214.500000, 8215.000000
2052, 45757224.000000, 1395.875000, 8168.000000, 8197.500000, 8185.000000
2053, 45757384.000000, 1365.625000, 8159.000000, 8191.000000, 8172.500000
2054, 45757544.000000, 1342.625000, 8156.500000, 8193.000000, 8174.500000
2055, 45757704.000000, 1321.875000, 8161.000000, 8194.500000, 8177.500000
2056, 45757864.000000, 1301.625000, 8168.000000, 8193.000000, 8178.000000
2057, 45758024.000000, 1279.750000, 8163.500000, 8192.000000, 8176.500000
2058, 45758184.000000, 1255.125000, 8172.500000, 8193.000000, 8181.500000
2059, 45758344.000000, 1221.000000, 8173.500000, 8192.000000, 8180.000000
2060, 45758504.000000, 1177.125000, 8172.500000, 8190.500000, 8181.000000
2061, 45758664.000000, 1124.500000, 8170.000000, 8188.000000, 8175.000000
2062, 45758824.000000, 1089.625000, 8170.500000, 8188.000000, 8175.000000
2063, 45758984.000000, 1124.125000, 8166.500000, 8187.500000, 8174.000000
2064, 45759144.000000, 1330.000000, 8167.000000, 8186.500000, 8172.000000
2065, 45759304.000000, 1700.250000, 8170.000000, 8188.000000, 8175.000000
2066, 45759464.000000, 2147.625000, 8172.000000, 8187.500000, 8175.500000
2067, 45759624.000000, 2540.375000, 8181.000000, 8196.500000, 8196.000000
2068, 45759784.000000, 2811.375000, 8192.000000, 8207.000000, 8218.000000
2069, 45759944.000000, 2941.250000, 8189.000000, 8200.000000, 8211.000000
2070, 45760104.000000, 2946.000000, 8184.000000, 8191.000000, 8187.000000
2071, 45760264.000000, 2867.125000, 8172.500000, 8182.000000, 8167.500000
2072, 45760424.000000, 2733.500000, 8169.500000, 8177.000000, 8158.500000
2073, 45760584.000000, 2570.000000, 8168.000000, 8178.000000, 8157.500000
2074, 45760744.000000, 2391.250000, 8162.000000, 8192.500000, 8168.000000
2075, 45760904.000000, 2235.750000, 8228.000000, 8217.000000, 8243.000000
2076, 45761064.000000, 2132.875000, 8483.000000, 7956.000000, 8118.000000
2077, 45761224.000000, 2094.000000, 8173.500000, 8020.000000, 7996.000000
2078, 45761384.000000, 2109.125000, 8172.500000, 8183.000000, 8168.500000
2079, 45761544.000000, 2151.375000, 8171.000000, 8213.500000, 8200.500000
2080, 45761704.000000, 2191.125000, 8170.500000, 8219.500000, 8204.500000
2081, 45761864.000000, 2204.500000, 8176.000000, 8221.000000, 8211.500000
2082, 45762024.000000, 2182.000000, 8181.000000, 8223.500000, 8213.500000
2083, 45762184.000000, 2124.375000, 8193.000000, 8228.000000, 8226.000000
2084, 45762344.000000, 2045.125000, 8202.000000, 8236.000000, 8239.500000
2085, 45762504.000000, 1953.125000, 8216.000000, 8246.000000, 8257.000000
2086, 45762664.000000, 1858.500000, 8225.000000, 8251.000000, 8267.000000
2087, 45762824.000000, 1770.875000, 8226.500000, 8257.000000, 8276.000000
2088, 45762984.000000, 1693.500000, 8221.500000, 8257.000000, 8276.500000
2089, 45763144.000000, 1628.875000, 8204.500000, 8236.000000, 8251.000000
2090, 45763304.000000, 1575.750000, 8175.500000, 8212.500000, 8210.500000
2091, 45763464.000000, 1532.000000, 8159.500000, 8198.000000, 8183.500000
2092, 45763624.000000, 1495.875000, 8151.000000, 8191.000000, 8170.000000
2093, 45763784.000000, 1466.625000, 8154.500000, 8193.500000, 8174.000000
2094, 45763944.000000, 1441.375000, 8157.500000, 8195.000000, 8178.500000
2095, 45764104.000000, 1418.000000, 8160.000000, 8195.500000, 8177.500000
2096, 45764264.000000, 1395.750000, 8162.500000, 8194.500000, 8179.000000
2097, 45764424.000000, 1365.250000, 8163.500000, 8191.000000, 8176.500000
2098, 45764584.000000, 1325.750000, 8165.500000, 8192.500000, 8177.000000
2099, 45764744.000000, 1272.250000, 8165.000000, 8192.500000, 8179.500000
2100, 45764904.000000, 1225.500000, 8163.000000, 8190.500000, 8175.500000
2101, 45765064.000000, 1235.875000, 8160.000000, 8188.500000, 8172.500000
2102, 45765224.000000, 1416.375000, 8163.500000, 8185.500000, 8170.000000
2103, 45765384.000000, 1789.125000, 8162.000000, 8186.500000, 8171.500000
2104, 45765544.000000, 2289.125000, 8161.500000, 8188.500000, 8172.500000
2105, 45765704.000000, 2763.500000, 8162.500000, 8186.500000, 8171.000000
2106, 45765864.000000, 3123.500000, 8162.000000, 8186.000000, 8169.000000
2107, 45766024.000000, 3321.250000, 8161.000000, 8185.000000, 8167.500000
2108, 45766184.000000, 3379.000000, 8171.500000, 8195.500000, 8189.000000
2109, 45766344.000000, 3328.125000, 8179.500000, 8207.500000, 8211.000000
2110, 45766504.000000, 3211.625000, 8184.000000, 8207.500000, 8217.500000
2111, 45766664.000000, 3059.250000, 8179.500000, 8194.500000, 8192.500000
2112, 45766824.000000, 2879.375000, 8166.000000, 8184.000000, 8167.000000
2113, 45766984.000000, 2697.750000, 8163.000000, 8180.500000, 8158.500000
2114, 45767144.000000, 2549.375000, 8164.500000, 8181.000000, 8160.000000
2115, 45767304.000000, 2462.625000, 8162.500000, 8182.000000, 8161.500000
2116, 45767464.000000, 2433.125000, 8147.500000, 8222.500000, 8197.500000
2117, 45767624.000000, 2438.750000, 8447.000000, 8000.000000, 8136.000000
2118, 45767784.000000, 2451.875000, 8341.500000, 7895.000000, 7940.500000
2119, 45767944.000000, 2452.875000, 8175.500000, 8174.000000, 8162.500000
2120, 45768104.000000, 2420.375000, 8165.000000, 8221.500000, 8206.500000
2121, 45768264.000000, 2354.625000, 8164.000000, 8227.500000, 8212.000000
2122, 45768424.000000, 2260.375000, 8167.500000, 8230.500000, 8214.500000
2123, 45768584.000000, 2148.375000, 8170.500000, 8236.000000, 8224.000000
2124, 45768744.000000, 2037.500000, 8181.500000, 8242.000000, 8236.500000
2125, 45768904.000000, 1925.750000, 8187.500000, 8248.000000, 8247.000000
2126, 45769064.000000, 1826.250000, 8199.500000, 8256.000000, 8262.000000
2127, 45769224.000000, 1741.250000, 8211.000000, 8264.000000, 8275.500000
2128, 45769384.000000, 1672.375000, 8222.000000, 8272.000000, 8290.000000
2129, 45769544.000000, 1614.375000, 8219.500000, 8274.000000, 8293.500000
2130, 45769704.000000, 1566.375000, 8210.000000, 8257.000000, 8275.000000
2131, 45769864.000000, 1523.125000, 8181.500000, 8225.000000, 8227.000000
2132, 45770024.000000, 1487.250000, 8159.500000, 8202.500000, 8188.000000
2133, 45770184.000000, 1455.375000, 8151.000000, 8195.500000, 8173.500000
2134, 45770344.000000, 1421.250000, 8147.000000, 8193.500000, 8170.500000
2135, 45770504.000000, 1389.375000, 8152.000000, 8193.500000, 8172.000000
2136, 45770664.000000, 1358.125000, 8153.000000, 8193.500000, 8170.500000
2137, 45770824.000000, 1331.750000, 8158.000000, 8193.000000, 8173.500000
2138, 45770984.000000, 1304.875000, 8161.000000, 8194.000000, 8177.000000
2139, 45771144.000000, 1263.625000, 8163.000000, 8194.000000, 8178.000000
2140, 45771304.000000, 1207.750000, 8161.000000, 8191.500000, 8174.500000
2141, 45771464.000000, 1149.375000, 8163.000000, 8189.500000, 8175.500000
2142, 45771624.000000, 1172.750000, 8160.500000, 8186.000000, 8168.500000
2143, 45771784.000000, 1385.875000, 8161.000000, 8187.500000, 8168.500000
2144, 45771944.000000, 1860.750000, 8161.500000, 8187.000000, 8169.000000
2145, 45772104.000000, 2472.000000, 8163.000000, 8187.500000, 8171.500000
2146, 45772264.000000, 3061.000000, 8164.500000, 8186.000000, 8170.000000
2147, 45772424.000000, 3502.500000, 8161.500000, 8184.000000, 8166.000000
2148, 45772584.000000, 3762.125000, 8163.500000, 8186.500000, 8169.000000
2149, 45772744.000000, 3852.125000, 8165.500000, 8187.500000, 8171.000000
2150, 45772904.000000, 3815.000000, 8168.000000, 8187.500000, 8174.500000
2151, 45773064.000000, 3710.500000, 8178.500000, 8200.500000, 8199.500000
2152, 45773224.000000, 3567.625000, 8183.500000, 8206.000000, 8211.500000
2153, 45773384.000000, 3393.375000, 8187.000000, 8204.000000, 8212.000000
2154, 45773544.000000, 3198.250000, 8185.000000, 8194.000000, 8194.000000
2155, 45773704.000000, 3014.000000, 8169.500000, 8184.500000, 8169.000000
2156, 45773864.000000, 2873.250000, 8166.000000, 8179.000000, 8157.000000
2157, 45774024.000000, 2789.250000, 8167.000000, 8177.500000, 8156.500000
2158, 45774184.000000, 2747.125000, 8163.500000, 8184.500000, 8160.500000
2159, 45774344.000000, 2723.625000, 8180.500000, 8207.000000, 8199.500000
2160, 45774504.000000, 2690.000000, 8481.500000, 7887.500000, 8047.500000
2161, 45774664.000000, 2633.125000, 8256.500000, 7953.500000, 7951.000000
2162, 45774824.000000, 2546.625000, 8181.000000, 8194.000000, 8187.000000
2163, 45774984.000000, 2429.625000, 8167.500000, 8225.000000, 8211.000000
2164, 45775144.000000, 2299.250000, 8168.500000, 8232.500000, 8218.000000
2165, 45775304.000000, 2164.250000, 8172.000000, 8236.500000, 8224.500000
2166, 45775464.000000, 2033.750000, 8177.500000, 8236.000000, 8227.500000
2167, 45775624.000000, 1915.500000, 8184.500000, 8240.000000, 8236.000000
2168, 45775784.000000, 1811.625000, 8194.000000, 8248.500000, 8249.000000
2169, 45775944.000000, 1724.000000, 8205.000000, 8257.500000, 8265.500000
2170, 45776104.000000, 1647.500000, 8216.000000, 8265.000000, 8281.000000
2171, 45776264.000000, 1585.125000, 8220.500000, 8267.000000, 8286.000000
2172, 45776424.000000, 1533.125000, 8220.500000, 8266.000000, 8287.000000
2173, 45776584.000000, 1485.000000, 8207.500000, 8249.000000, 8265.500000
2174, 45776744.000000, 1442.125000, 8180.500000, 8222.000000, 8223.000000
2175, 45776904.000000, 1400.000000, 8159.000000, 8202.000000, 8189.500000
2176, 45777064.000000, 1359.000000, 8150.500000, 8192.500000, 8172.000000
2177, 45777224.000000, 1319.875000, 8149.000000, 8191.000000, 8167.500000
2178, 45777384.000000, 1279.625000, 8153.500000, 8193.000000, 8172.500000
2179, 45777544.000000, 1242.125000, 8157.000000, 8194.500000, 8176.500000
2180, 45777704.000000, 1207.250000, 8162.000000, 8194.500000, 8180.000000
2181, 45777864.000000, 1171.125000, 8162.000000, 8192.000000, 8179.000000
2182, 45778024.000000, 1129.125000, 8162.500000, 8190.000000, 8175.500000
2183, 45778184.000000, 1073.125000, 8165.000000, 8189.500000, 8178.500000
2184, 45778344.000000, 1022.000000, 8164.000000, 8189.000000, 8174.000000
2185, 45778504.000000, 1049.250000, 8164.500000, 8186.000000, 8172.000000
2186, 45778664.000000, 1272.125000, 8166.000000, 8184.000000, 8170.000000
2187, 45778824.000000, 1740.000000, 8165.500000, 8182.000000, 8167.500000
2188, 45778984.000000, 2344.000000, 8166.500000, 8183.000000, 8168.500000
2189, 45779144.000000, 2929.375000, 8166.000000, 8184.000000, 8170.000000
2190, 45779304.000000, 3369.625000, 8167.000000, 8184.000000, 8170.500000
2191, 45779464.000000, 3636.875000, 8169.500000, 8183.500000, 8171.000000
2192, 45779624.000000, 3724.500000, 8171.000000, 8183.500000, 8172.500000
2193, 45779784.000000, 3692.750000, 8170.500000, 8185.500000, 8173.500000
2194, 45779944.000000, 3593.625000, 8172.000000, 8186.000000, 8176.000000
2195, 45780104.000000, 3455.125000, 8179.500000, 8195.500000, 8196.000000
2196, 45780264.000000, 3284.750000, 8185.500000, 8205.000000, 8212.500000
2197, 45780424.000000, 3091.375000, 8193.000000, 8205.500000, 8223.500000
2198, 45780584.000000, 2910.125000, 8190.500000, 8195.500000, 8201.500000
2199, 45780744.000000, 2771.000000, 8173.000000, 8184.000000, 8171.000000
2200, 45780904.000000, 2687.750000, 8168.000000, 8178.000000, 8159.000000
2201, 45781064.000000, 2639.500000, 8168.500000, 8177.500000, 8159.000000
2202, 45781224.000000, 2612.750000, 8166.000000, 8176.500000, 8156.500000
2203, 45781384.000000, 2576.750000, 8149.500000, 8222.000000, 8197.000000
2204, 45781544.000000, 2520.875000, 8432.500000, 8005.000000, 8140.000000
2205, 45781704.000000, 2431.750000, 8367.500000, 7871.000000, 7932.000000
2206, 45781864.000000, 2316.125000, 8181.500000, 8172.000000, 8166.500000
2207, 45782024.000000, 2187.500000, 8170.500000, 8221.000000, 8209.000000
2208, 45782184.000000, 2058.125000, 8171.000000, 8230.500000, 8219.000000
2209, 45782344.000000, 1936.375000, 8172.000000, 8233.500000, 8223.500000
2210, 45782504.000000, 1827.750000, 8177.000000, 8236.000000, 8229.000000
2211, 45782664.000000, 1728.500000, 8184.000000, 8238.000000, 8235.000000
2212, 45782824.000000, 1644.000000, 8191.000000, 8245.000000, 8247.000000
2213, 45782984.000000, 1569.875000, 8205.000000, 8253.000000, 8263.000000
2214, 45783144.000000, 1510.250000, 8215.000000, 8261.000000, 8277.500000
2215, 45783304.000000, 1459.500000, 8222.000000, 8263.500000, 8284.500000
2216, 45783464.000000, 1414.000000, 8218.500000, 8262.500000, 8284.000000
2217, 45783624.000000, 1371.875000, 8210.000000, 8253.000000, 8272.000000
2218, 45783784.000000, 1330.375000, 8189.000000, 8228.000000, 8237.000000
2219, 45783944.000000, 1290.000000, 8164.500000, 8207.000000, 8199.000000
2220, 45784104.000000, 1252.250000, 8153.000000, 8195.500000, 8178.500000
2221, 45784264.000000, 1217.125000, 8153.500000, 8191.500000, 8173.000000
2222, 45784424.000000, 1178.000000, 8155.000000, 8191.000000, 8172.000000
2223, 45784584.000000, 1142.250000, 8158.500000, 8194.500000, 8178.500000
2224, 45784744.000000, 1107.250000, 8164.000000, 8194.000000, 8181.000000
2225, 45784904.000000, 1072.125000, 8166.000000, 8193.000000, 8182.000000
2226, 45785064.000000, 1035.625000, 8165.000000, 8190.000000, 8179.000000
2227, 45785224.000000, 993.625000, 8166.500000, 8189.000000, 8177.500000
2228, 45785384.000000, 944.500000, 8165.500000, 8188.500000, 8176.000000
2229, 45785544.000000, 911.125000, 8166.000000, 8189.000000, 8177.000000
2230, 45785704.000000, 1004.375000, 8165.000000, 8185.500000, 8171.000000
2231, 45785864.000000, 1303.625000, 8165.500000, 8184.000000, 8169.500000
2232, 45786024.000000, 1834.875000, 8165.500000, 8184.500000, 8170.000000
2233, 45786184.000000, 2438.000000, 8166.000000, 8186.000000, 8172.000000
2234, 45786344.000000, 2972.500000, 8165.500000, 8186.000000, 8171.500000
2235, 45786504.000000, 3334.125000, 8164.500000, 8184.500000, 8168.500000
2236, 45786664.000000, 3506.250000, 8164.500000, 8184.000000, 8168.000000
2237, 45786824.000000, 3520.125000, 8169.000000, 8184.500000, 8170.500000
2238, 45786984.000000, 3430.375000, 8171.000000, 8185.500000, 8174.500000
2239, 45787144.000000, 3252.250000, 8170.000000, 8187.000000, 8174.000000
2240, 45787304.000000, 3045.125000, 8174.000000, 8189.500000, 8181.000000
2241, 45787464.000000, 2833.625000, 8185.000000, 8204.000000, 8210.000000
2242, 45787624.000000, 2658.875000, 8191.500000, 8207.000000, 8222.000000
2243, 45787784.000000, 2535.875000, 8192.000000, 8202.000000, 8215.000000
2244, 45787944.000000, 2474.000000, 8180.500000, 8189.000000, 8182.500000
2245, 45788104.000000, 2452.750000, 8170.000000, 8180.000000, 8162.500000
2246, 45788264.000000, 2450.375000, 8167.000000, 8177.000000, 8156.000000
2247, 45788424.000000, 2435.500000, 8169.000000, 8178.000000, 8160.000000
2248, 45788584.000000, 2384.625000, 8154.500000, 8197.500000, 8169.000000
2249, 45788744.000000, 2292.375000, 8268.000000, 8204.500000, 8256.000000
2250, 45788904.000000, 2163.000000, 8492.500000, 7859.000000, 8023.500000
2251, 45789064.000000, 2043.750000, 8165.500000, 8070.000000, 8039.000000
2252, 45789224.000000, 1922.250000, 8179.000000, 8207.500000, 8200.000000
2253, 45789384.000000, 1814.000000, 8172.000000, 8226.000000, 8214.000000
2254, 45789544.000000, 1718.500000, 8172.000000, 8230.000000, 8220.000000
2255, 45789704.000000, 1635.250000, 8176.000000, 8232.000000, 8223.000000
2256, 45789864.000000, 1561.875000, 8180.000000, 8232.000000, 8227.000000
2257, 45790024.000000, 1498.125000, 8189.000000, 8238.500000, 8237.500000
2258, 45790184.000000, 1442.875000, 8198.000000, 8245.500000, 8250.500000
2259, 45790344.000000, 1399.000000, 8209.000000, 8254.000000, 8266.000000
2260, 45790504.000000, 1359.625000, 8216.000000, 8255.500000, 8270.500000
2261, 45790664.000000, 1313.000000, 8217.000000, 8258.000000, 8276.000000
2262, 45790824.000000, 1268.875000, 8210.000000, 8256.000000, 8274.000000
2263, 45790984.000000, 1237.500000, 8198.000000, 8239.500000, 8252.500000
2264, 45791144.000000, 1205.875000, 8173.000000, 8215.000000, 8211.500000
2265, 45791304.000000, 1174.250000, 8157.000000, 8198.000000, 8184.000000
2266, 45791464.000000, 1138.250000, 8151.500000, 8191.500000, 8171.000000
2267, 45791624.000000, 1097.375000, 8154.000000, 8190.500000, 8171.500000
2268, 45791784.000000, 1059.500000, 8160.500000, 8194.500000, 8181.000000
2269, 45791944.000000, 1031.625000, 8163.500000, 8196.500000, 8185.000000
2270, 45792104.000000, 1001.500000, 8166.000000, 8193.000000, 8183.000000
2271, 45792264.000000, 969.000000, 8167.500000, 8190.000000, 8180.000000
2272, 45792424.000000, 926.125000, 8164.000000, 8190.500000, 8177.500000
2273, 45792584.000000, 886.375000, 8167.500000, 8189.500000, 8179.500000
2274, 45792744.000000, 911.250000, 8165.000000, 8187.500000, 8176.500000
2275, 45792904.000000, 1116.750000, 8164.000000, 8183.000000, 8169.000000
2276, 45793064.000000, 1528.375000, 8165.000000, 8182.000000, 8169.000000
2277, 45793224.000000, 2070.500000, 8166.000000, 8183.000000, 8169.000000
2278, 45793384.000000, 2583.250000, 8164.500000, 8183.000000, 8169.000000
2279, 45793544.000000, 2964.625000, 8164.500000, 8183.500000, 8169.500000
2280, 45793704.000000, 3158.875000, 8165.500000, 8183.500000, 8170.000000
2281, 45793864.000000, 3199.750000, 8167.500000, 8182.500000, 8169.500000
2282, 45794024.000000, 3123.875000, 8169.500000, 8183.500000, 8172.000000
2283, 45794184.000000, 2983.625000, 8171.500000, 8186.500000, 8176.000000
2284, 45794344.000000, 2805.875000, 8169.500000, 8186.000000, 8174.500000
2285, 45794504.000000, 2607.125000, 8180.500000, 8198.000000, 8199.500000
2286, 45794664.000000, 2420.500000, 8186.500000, 8204.000000, 8213.500000
2287, 45794824.000000, 2281.375000, 8193.000000, 8204.500000, 8220.500000
2288, 45794984.000000, 2213.375000, 8190.000000, 8195.000000, 8199.000000
2289, 45795144.000000, 2198.375000, 8173.500000, 8184.000000, 8172.000000
2290, 45795304.000000, 2213.000000, 8168.500000, 8179.000000, 8161.500000
2291, 45795464.000000, 2225.000000, 8169.000000, 8177.000000, 8159.000000
2292, 45795624.000000, 2210.250000, 8167.500000, 8178.000000, 8158.000000
2293, 45795784.000000, 2158.125000, 8170.000000, 8214.000000, 8199.500000
2294, 45795944.000000, 2067.125000, 8464.000000, 7982.000000, 8138.000000
2295, 45796104.000000, 1953.000000, 8262.500000, 7947.000000, 7957.000000
2296, 45796264.000000, 1834.250000, 8183.000000, 8180.000000, 8177.000000
2297, 45796424.000000, 1722.750000, 8174.500000, 8218.000000, 8208.500000
2298, 45796584.000000, 1624.500000, 8174.500000, 8224.500000, 8215.000000
2299, 45796744.000000, 1541.250000, 8176.000000, 8228.000000, 8219.000000
2300, 45796904.000000, 1470.125000, 8180.000000, 8228.000000, 8221.000000
2301, 45797064.000000, 1407.250000, 8187.000000, 8233.000000, 8230.000000
2302, 45797224.000000, 1356.125000, 8195.500000, 8238.000000, 8239.500000
2303, 45797384.000000, 1311.875000, 8208.500000, 8247.500000, 8258.500000
2304, 45797544.000000, 1273.250000, 8215.500000, 8251.500000, 8266.000000
2305, 45797704.000000, 1241.500000, 8218.500000, 8253.000000, 8269.500000
2306, 45797864.000000, 1212.125000, 8211.500000, 8250.000000, 8265.000000
2307, 45798024.000000, 1184.625000, 8207.500000, 8241.500000, 8258.000000
2308, 45798184.000000, 1160.375000, 8188.500000, 8222.000000, 8227.000000
2309, 45798344.000000, 1138.750000, 8170.500000, 8202.500000, 8196.500000
2310, 45798504.000000, 1113.750000, 8161.000000, 8193.000000, 8178.500000
2311, 45798664.000000, 1087.625000, 8162.000000, 8191.000000, 8176.000000
2312, 45798824.000000, 1059.125000, 8168.500000, 8192.000000, 8181.500000
2313, 45798984.000000, 1033.750000, 8173.000000, 8195.500000, 8186.500000
2314, 45799144.000000, 1008.750000, 8174.000000, 8192.500000, 8185.500000
2315, 45799304.000000, 978.250000, 8180.500000, 8189.500000, 8185.000000
2316, 45799464.000000, 938.125000, 8179.500000, 8187.000000, 8181.000000
2317, 45799624.000000, 889.500000, 8180.500000, 8184.500000, 8178.000000
2318, 45799784.000000, 851.375000, 8181.500000, 8184.000000, 8179.500000
2319, 45799944.000000, 877.500000, 8183.000000, 8182.500000, 8177.500000
2320, 45800104.000000, 1067.625000, 8183.000000, 8180.000000, 8175.000000
2321, 45800264.000000, 1442.750000, 8181.000000, 8176.500000, 8169.500000
2322, 45800424.000000, 1930.750000, 8188.000000, 8177.500000, 8172.500000
2323, 45800584.000000, 2385.375000, 8184.500000, 8180.000000, 8175.500000
2324, 45800744.000000, 2710.250000, 8186.000000, 8178.500000, 8175.500000
2325, 45800904.000000, 2870.750000, 8185.500000, 8177.000000, 8173.000000
2326, 45801064.000000, 2874.500000, 8193.500000, 8174.500000, 8173.500000
2327, 45801224.000000, 2777.375000, 8190.500000, 8176.500000, 8175.500000
2328, 45801384.000000, 2611.000000, 8200.000000, 8186.000000, 8197.500000
2329, 45801544.000000, 2410.375000, 8209.000000, 8197.000000, 8215.500000
2330, 45801704.000000, 2198.125000, 8217.000000, 8193.000000, 8222.000000
2331, 45801864.000000, 2016.750000, 8214.000000, 8183.000000, 8202.000000
2332, 45802024.000000, 1900.000000, 8197.000000, 8172.500000, 8172.500000
2333, 45802184.000000, 1855.750000, 8197.000000, 8168.500000, 8165.500000
2334, 45802344.000000, 1867.875000, 8194.000000, 8167.500000, 8162.500000
2335, 45802504.000000, 1901.375000, 8196.500000, 8168.000000, 8164.500000
2336, 45802664.000000, 1923.750000, 8203.500000, 8207.000000, 8212.500000
2337, 45802824.000000, 1914.125000, 8494.000000, 8022.500000, 8194.000000
2338, 45802984.000000, 1866.375000, 8281.500000, 7948.500000, 7977.500000
2339, 45803144.000000, 1784.125000, 8208.000000, 8158.500000, 8166.000000
2340, 45803304.000000, 1683.375000, 8200.000000, 8197.500000, 8201.500000
2341, 45803464.000000, 1580.125000, 8201.000000, 8204.500000, 8209.500000
2342, 45803624.000000, 1485.500000, 8200.500000, 8207.000000, 8211.500000
2343, 45803784.000000, 1399.125000, 8211.500000, 8212.500000, 8220.500000
2344, 45803944.000000, 1325.500000, 8214.000000, 8214.500000, 8224.500000
2345, 45804104.000000, 1262.125000, 8226.500000, 8219.000000, 8236.000000
2346, 45804264.000000, 1207.500000, 8235.500000, 8223.500000, 8245.500000
2347, 45804424.000000, 1160.875000, 8249.000000, 8231.500000, 8258.500000
2348, 45804584.000000, 1120.625000, 8249.500000, 8233.500000, 8266.000000
2349, 45804744.000000, 1086.375000, 8243.500000, 8236.000000, 8267.500000
2350, 45804904.000000, 1057.125000, 8232.500000, 8224.000000, 8251.000000
2351, 45805064.000000, 1030.875000, 8211.500000, 8203.500000, 8221.500000
2352, 45805224.000000, 1008.375000, 8189.000000, 8187.500000, 8191.500000
2353, 45805384.000000, 988.000000, 8178.500000, 8183.000000, 8178.500000
2354, 45805544.000000, 969.625000, 8180.000000, 8181.500000, 8178.500000
2355, 45805704.000000, 949.000000, 8180.000000, 8183.500000, 8180.500000
2356, 45805864.000000, 931.250000, 8186.000000, 8181.500000, 8180.500000
2357, 45806024.000000, 915.000000, 8188.500000, 8183.500000, 8184.000000
2358, 45806184.000000, 893.375000, 8188.500000, 8182.000000, 8181.500000
2359, 45806344.000000, 864.125000, 8192.500000, 8180.500000, 8182.000000
2360, 45806504.000000, 825.375000, 8186.000000, 8176.500000, 8175.500000
2361, 45806664.000000, 781.000000, 8188.000000, 8177.000000, 8174.000000
2362, 45806824.000000, 753.125000, 8185.500000, 8177.500000, 8175.500000
2363, 45806984.000000, 814.500000, 8185.000000, 8177.500000, 8174.500000
2364, 45807144.000000, 1037.125000, 8184.000000, 8176.500000, 8172.500000
2365, 45807304.000000, 1422.375000, 8183.500000, 8174.500000, 8172.000000
2366, 45807464.000000, 1869.000000, 8183.500000, 8175.500000, 8171.000000
2367, 45807624.000000, 2260.250000, 8188.000000, 8176.500000, 8173.500000
2368, 45807784.000000, 2513.500000, 8188.000000, 8181.500000, 8181.500000
2369, 45807944.000000, 2622.125000, 8194.500000, 8192.500000, 8204.000000
2370, 45808104.000000, 2604.125000, 8204.500000, 8199.500000, 8221.000000
2371, 45808264.000000, 2492.500000, 8202.000000, 8188.500000, 8202.500000
2372, 45808424.000000, 2325.125000, 8192.500000, 8181.000000, 8182.000000
2373, 45808584.000000, 2127.000000, 8180.000000, 8175.000000, 8164.500000
2374, 45808744.000000, 1935.000000, 8179.000000, 8173.500000, 8160.500000
2375, 45808904.000000, 1786.125000, 8179.000000, 8172.500000, 8159.500000
2376, 45809064.000000, 1716.250000, 8163.500000, 8201.500000, 8181.000000
2377, 45809224.000000, 1722.375000, 8371.000000, 8193.000000, 8294.500000
2378, 45809384.000000, 1784.750000, 8442.500000, 7954.500000, 8092.500000
2379, 45809544.000000, 1858.375000, 8154.000000, 8082.500000, 8049.500000
2380, 45809704.000000, 1910.125000, 8182.000000, 8190.000000, 8184.500000
2381, 45809864.000000, 1922.375000, 8182.000000, 8204.000000, 8194.500000
2382, 45810024.000000, 1894.375000, 8182.500000, 8211.000000, 8204.000000
2383, 45810184.000000, 1836.375000, 8185.500000, 8215.000000, 8207.000000
2384, 45810344.000000, 1760.000000, 8191.500000, 8217.000000, 8215.000000
2385, 45810504.000000, 1679.000000, 8205.500000, 8222.000000, 8223.000000
2386, 45810664.000000, 1601.250000, 8211.000000, 8227.000000, 8234.500000
2387, 45810824.000000, 1532.000000, 8225.000000, 8237.000000, 8250.000000
2388, 45810984.000000, 1476.500000, 8231.500000, 8242.500000, 8259.000000
2389, 45811144.000000, 1430.000000, 8226.000000, 8243.000000, 8259.000000
2390, 45811304.000000, 1392.875000, 8219.000000, 8239.500000, 8255.500000
2391, 45811464.000000, 1362.750000, 8201.000000, 8219.500000, 8229.500000
2392, 45811624.000000, 1341.625000, 8179.500000, 8205.000000, 8205.500000
2393, 45811784.000000, 1323.000000, 8167.500000, 8196.500000, 8184.500000
2394, 45811944.000000, 1305.875000, 8159.500000, 8190.000000, 8177.500000
2395, 45812104.000000, 1293.250000, 8164.000000, 8190.000000, 8175.000000
2396, 45812264.000000, 1280.500000, 8168.000000, 8191.500000, 8180.500000
2397, 45812424.000000, 1267.375000, 8173.000000, 8191.500000, 8184.000000
2398, 45812584.000000, 1252.000000, 8179.000000, 8190.500000, 8185.000000
2399, 45812744.000000, 1230.500000, 8177.500000, 8187.500000, 8181.000000
2400, 45812904.000000, 1196.625000, 8177.000000, 8184.500000, 8176.000000
2401, 45813064.000000, 1154.625000, 8178.000000, 8183.500000, 8175.500000
2402, 45813224.000000, 1109.000000, 8174.000000, 8181.000000, 8172.000000
2403, 45813384.000000, 1094.500000, 8174.500000, 8184.000000, 8175.500000
2404, 45813544.000000, 1176.750000, 8175.500000, 8184.000000, 8174.500000
2405, 45813704.000000, 1414.750000, 8176.000000, 8181.500000, 8170.500000
2406, 45813864.000000, 1783.625000, 8175.500000, 8181.500000, 8172.000000
2407, 45814024.000000, 2182.875000, 8177.500000, 8184.000000, 8176.500000
2408, 45814184.000000, 2508.250000, 8188.500000, 8198.000000, 8203.500000
2409, 45814344.000000, 2711.500000, 8197.000000, 8205.000000, 8221.500000
2410, 45814504.000000, 2779.750000, 8195.000000, 8195.500000, 8207.500000
2411, 45814664.000000, 2734.000000, 8188.500000, 8186.000000, 8184.000000
2412, 45814824.000000, 2608.625000, 8176.000000, 8179.500000, 8166.000000
2413, 45814984.000000, 2428.000000, 8174.000000, 8176.000000, 8159.500000
2414, 45815144.000000, 2224.750000, 8176.000000, 8176.500000, 8161.500000
2415, 45815304.000000, 2037.375000, 8166.000000, 8194.000000, 8172.000000
2416, 45815464.000000, 1906.375000, 8296.000000, 8211.500000, 8271.000000
2417, 45815624.000000, 1852.750000, 8474.500000, 7952.000000, 8110.500000
2418, 45815784.000000, 1866.375000, 8154.000000, 8055.500000, 8022.500000
2419, 45815944.000000, 1921.000000, 8183.000000, 8190.000000, 8183.000000
2420, 45816104.000000, 1974.625000, 8178.500000, 8208.000000, 8195.500000
2421, 45816264.000000, 1999.875000, 8178.500000, 8212.500000, 8201.000000
2422, 45816424.000000, 1983.500000, 8184.000000, 8216.500000, 8206.500000
2423, 45816584.000000, 1937.750000, 8191.500000, 8219.500000, 8213.500000
2424, 45816744.000000, 1866.000000, 8199.500000, 8223.500000, 8223.500000
2425, 45816904.000000, 1780.750000, 8208.500000, 8225.500000, 8229.500000
2426, 45817064.000000, 1697.375000, 8222.500000, 8237.500000, 8248.500000
2427, 45817224.000000, 1618.375000, 8230.000000, 8245.500000, 8259.500000
2428, 45817384.000000, 1549.750000, 8229.500000, 8249.000000, 8265.000000
2429, 45817544.000000, 1492.500000, 8219.000000, 8244.000000, 8260.000000
2430, 45817704.000000, 1446.375000, 8202.500000, 8225.000000, 8234.000000
2431, 45817864.000000, 1409.250000, 8184.500000, 8207.000000, 8204.000000
2432, 45818024.000000, 1378.125000, 8163.500000, 8195.500000, 8183.000000
2433, 45818184.000000, 1352.875000, 8161.500000, 8191.000000, 8176.000000
2434, 45818344.000000, 1332.000000, 8161.000000, 8192.000000, 8175.000000
2435, 45818504.000000, 1312.000000, 8163.500000, 8192.000000, 8176.500000
2436, 45818664.000000, 1292.625000, 8169.000000, 8192.500000, 8180.500000
2437, 45818824.000000, 1275.000000, 8171.000000, 8193.000000, 8182.000000
2438, 45818984.000000, 1250.500000, 8172.500000, 8190.000000, 8180.500000
2439, 45819144.000000, 1217.000000, 8173.500000, 8188.500000, 8178.500000
2440, 45819304.000000, 1173.125000, 8170.500000, 8184.500000, 8173.500000
2441, 45819464.000000, 1130.625000, 8172.000000, 8184.500000, 8174.500000
2442, 45819624.000000, 1128.375000, 8172.500000, 8186.500000, 8176.000000
2443, 45819784.000000, 1254.625000, 8170.500000, 8184.500000, 8174.500000
2444, 45819944.000000, 1552.125000, 8172.000000, 8184.000000, 8174.000000
2445, 45820104.000000, 1973.500000, 8171.500000, 8183.000000, 8170.500000
2446, 45820264.000000, 2400.375000, 8171.500000, 8183.500000, 8175.000000
2447, 45820424.000000, 2742.250000, 8181.000000, 8194.000000, 8192.000000
2448, 45820584.000000, 2939.625000, 8188.500000, 8204.500000, 8213.000000
2449, 45820744.000000, 3005.125000, 8191.500000, 8201.000000, 8217.500000
2450, 45820904.000000, 2955.500000, 8189.500000, 8188.500000, 8192.000000
2451, 45821064.000000, 2827.000000, 8175.500000, 8180.500000, 8171.000000
2452, 45821224.000000, 2649.625000, 8167.000000, 8177.000000, 8160.000000
2453, 45821384.000000, 2447.125000, 8172.000000, 8176.500000, 8160.500000
2454, 45821544.000000, 2262.125000, 8166.000000, 8179.500000, 8159.500000
2455, 45821704.000000, 2127.625000, 8178.000000, 8215.000000, 8208.000000
2456, 45821864.000000, 2065.250000, 8468.500000, 8036.000000, 8192.500000
2457, 45822024.000000, 2065.625000, 8255.000000, 7973.000000, 7992.000000
2458, 45822184.000000, 2108.125000, 8174.500000, 8166.500000, 8156.000000
2459, 45822344.000000, 2152.625000, 8175.000000, 8207.500000, 8196.500000
2460, 45822504.000000, 2172.000000, 8171.000000, 8212.500000, 8199.500000
2461, 45822664.000000, 2152.875000, 8179.500000, 8217.500000, 8207.500000
2462, 45822824.000000, 2100.375000, 8185.500000, 8219.000000, 8214.000000
2463, 45822984.000000, 2024.625000, 8192.000000, 8226.000000, 8223.000000
2464, 45823144.000000, 1930.625000, 8201.500000, 8230.500000, 8232.000000
2465, 45823304.000000, 1833.375000, 8213.000000, 8236.500000, 8243.500000
2466, 45823464.000000, 1743.750000, 8224.500000, 8245.000000, 8259.500000
2467, 45823624.000000, 1663.500000, 8228.500000, 8254.000000, 8271.500000
2468, 45823784.000000, 1598.000000, 8223.500000, 8252.500000, 8272.500000
2469, 45823944.000000, 1542.750000, 8208.000000, 8237.000000, 8252.500000
2470, 45824104.000000, 1499.375000, 8186.500000, 8213.000000, 8214.500000
2471, 45824264.000000, 1461.250000, 8163.500000, 8197.000000, 8186.500000
2472, 45824424.000000, 1430.125000, 8155.000000, 8192.500000, 8175.000000
2473, 45824584.000000, 1403.750000, 8156.500000, 8192.000000, 8175.500000
2474, 45824744.000000, 1381.000000, 8161.500000, 8192.500000, 8176.500000
2475, 45824904.000000, 1363.000000, 8162.000000, 8192.000000, 8177.000000
2476, 45825064.000000, 1342.375000, 8168.000000, 8192.000000, 8180.000000
2477, 45825224.000000, 1317.500000, 8171.500000, 8191.500000, 8183.000000
2478, 45825384.000000, 1282.375000, 8171.000000, 8190.000000, 8179.000000
2479, 45825544.000000, 1234.375000, 8167.500000, 8187.500000, 8175.500000
2480, 45825704.000000, 1185.000000, 8170.500000, 8184.500000, 8174.500000
2481, 45825864.000000, 1191.375000, 8167.500000, 8183.000000, 8169.000000
2482, 45826024.000000, 1339.750000, 8170.000000, 8185.000000, 8174.000000
2483, 45826184.000000, 1687.000000, 8168.000000, 8183.500000, 8171.000000
2484, 45826344.000000, 2150.625000, 8169.000000, 8182.500000, 8169.500000
2485, 45826504.000000, 2617.375000, 8171.000000, 8183.000000, 8172.000000
2486, 45826664.000000, 2972.750000, 8169.500000, 8180.000000, 8167.500000
2487, 45826824.000000, 3187.125000, 8171.500000, 8184.500000, 8174.000000
2488, 45826984.000000, 3245.875000, 8178.500000, 8193.000000, 8189.500000
2489, 45827144.000000, 3193.500000, 8188.000000, 8201.500000, 8209.500000
2490, 45827304.000000, 3065.500000, 8190.500000, 8199.500000, 8212.500000
2491, 45827464.000000, 2897.875000, 8187.000000, 8190.000000, 8192.000000
2492, 45827624.000000, 2706.625000, 8177.000000, 8184.500000, 8173.500000
2493, 45827784.000000, 2517.750000, 8172.500000, 8178.000000, 8162.500000
2494, 45827944.000000, 2376.875000, 8169.500000, 8175.500000, 8159.000000
2495, 45828104.000000, 2295.000000, 8172.500000, 8178.500000, 8160.500000
2496, 45828264.000000, 2273.375000, 8170.000000, 8220.500000, 8208.000000
2497, 45828424.000000, 2291.500000, 8470.000000, 8033.000000, 8187.500000
2498, 45828584.000000, 2319.625000, 8288.500000, 7949.500000, 7982.500000
2499, 45828744.000000, 2326.500000, 8176.500000, 8163.000000, 8151.000000
2500, 45828904.000000, 2300.125000, 8174.000000, 8207.500000, 8194.500000
2501, 45829064.000000, 2239.750000, 8172.500000, 8216.500000, 8204.000000
2502, 45829224.000000, 2147.000000, 8179.000000, 8221.500000, 8214.000000
2503, 45829384.000000, 2040.375000, 8182.000000, 8224.000000, 8217.000000
2504, 45829544.000000, 1930.125000, 8190.000000, 8225.500000, 8221.500000
2505, 45829704.000000, 1826.125000, 8199.000000, 8231.500000, 8233.000000
2506, 45829864.000000, 1732.125000, 8209.500000, 8241.000000, 8250.000000
2507, 45830024.000000, 1655.875000, 8225.000000, 8251.500000, 8266.500000
2508, 45830184.000000, 1596.250000, 8227.500000, 8257.000000, 8277.500000
2509, 45830344.000000, 1549.125000, 8222.500000, 8255.500000, 8274.000000
2510, 45830504.000000, 1512.875000, 8211.000000, 8241.500000, 8257.000000
2511, 45830664.000000, 1482.625000, 8189.500000, 8217.500000, 8222.500000
2512, 45830824.000000, 1456.750000, 8165.000000, 8201.000000, 8190.500000
2513, 45830984.000000, 1432.875000, 8155.500000, 8193.500000, 8176.500000
2514, 45831144.000000, 1412.000000, 8156.500000, 8189.500000, 8171.000000
2515, 45831304.000000, 1388.875000, 8160.500000, 8191.000000, 8172.500000
2516, 45831464.000000, 1368.000000, 8161.500000, 8190.500000, 8175.500000
2517, 45831624.000000, 1346.625000, 8167.500000, 8192.000000, 8180.000000
2518, 45831784.000000, 1316.250000, 8166.000000, 8191.500000, 8177.500000
2519, 45831944.000000, 1274.500000, 8169.000000, 8187.500000, 8174.500000
2520, 45832104.000000, 1220.625000, 8169.500000, 8186.500000, 8174.000000
2521, 45832264.000000, 1173.250000, 8167.000000, 8185.000000, 8172.500000
2522, 45832424.000000, 1196.625000, 8168.000000, 8187.000000, 8174.000000
2523, 45832584.000000, 1400.625000, 8167.000000, 8186.000000, 8172.500000
2524, 45832744.000000, 1804.625000, 8167.000000, 8183.000000, 8170.000000
2525, 45832904.000000, 2326.375000, 8169.500000, 8182.500000, 8168.000000
2526, 45833064.000000, 2820.500000, 8167.000000, 8184.500000, 8171.500000
2527, 45833224.000000, 3200.375000, 8167.500000, 8186.000000, 8173.000000
2528, 45833384.000000, 3413.500000, 8168.000000, 8185.500000, 8172.500000
2529, 45833544.000000, 3478.875000, 8171.000000, 8185.000000, 8174.000000
2530, 45833704.000000, 3425.875000, 8171.500000, 8184.000000, 8170.000000
2531, 45833864.000000, 3298.375000, 8173.000000, 8186.500000, 8175.000000
2532, 45834024.000000, 3134.625000, 8175.500000, 8193.000000, 8187.500000
2533, 45834184.000000, 2944.125000, 8187.500000, 8204.500000, 8211.500000
2534, 45834344.000000, 2754.625000, 8192.500000, 8205.500000, 8221.000000
2535, 45834504.000000, 2597.250000, 8187.500000, 8192.500000, 8197.500000
2536, 45834664.000000, 2501.250000, 8177.000000, 8185.500000, 8176.500000
2537, 45834824.000000, 2456.250000, 8171.500000, 8182.000000, 8166.500000
2538, 45834984.000000, 2449.625000, 8170.000000, 8180.500000, 8163.500000
2539, 45835144.000000, 2451.875000, 8170.000000, 8179.000000, 8162.000000
2540, 45835304.000000, 2440.750000, 8143.500000, 8223.500000, 8196.500000
2541, 45835464.000000, 2400.875000, 8399.000000, 8131.500000, 8248.500000
2542, 45835624.000000, 2328.750000, 8446.000000, 7869.000000, 7984.000000
2543, 45835784.000000, 2232.375000, 8167.500000, 8128.500000, 8109.500000
2544, 45835944.000000, 2118.250000, 8173.500000, 8213.500000, 8203.500000
2545, 45836104.000000, 2002.125000, 8167.000000, 8223.500000, 8208.500000
2546, 45836264.000000, 1890.750000, 8172.500000, 8229.500000, 8218.000000
2547, 45836424.000000, 1790.625000, 8174.000000, 8233.000000, 8224.000000
2548, 45836584.000000, 1708.250000, 8184.000000, 8237.000000, 8231.000000
2549, 45836744.000000, 1640.000000, 8189.000000, 8241.500000, 8239.000000
2550, 45836904.000000, 1586.125000, 8200.500000, 8249.500000, 8254.000000
2551, 45837064.000000, 1543.000000, 8212.500000, 8260.000000, 8270.500000
2552, 45837224.000000, 1503.625000, 8223.000000, 8268.500000, 8286.500000
2553, 45837384.000000, 1467.250000, 8220.500000, 8269.000000, 8289.000000
2554, 45837544.000000, 1432.875000, 8211.000000, 8258.000000, 8275.500000
2555, 45837704.000000, 1402.625000, 8190.500000, 8232.000000, 8238.000000
2556, 45837864.000000, 1376.125000, 8168.000000, 8209.000000, 8200.500000
2557, 45838024.000000, 1347.625000, 8152.000000, 8200.500000, 8179.500000
2558, 45838184.000000, 1316.875000, 8149.000000, 8194.500000, 8171.500000
2559, 45838344.000000, 1282.375000, 8153.000000, 8193.000000, 8172.000000
2560, 45838504.000000, 1251.500000, 8159.000000, 8192.500000, 8174.000000
2561, 45838664.000000, 1222.500000, 8161.000000, 8195.500000, 8178.000000
2562, 45838824.000000, 1193.500000, 8163.000000, 8196.000000, 8179.000000
2563, 45838984.000000, 1159.000000, 8163.000000, 8194.500000, 8179.500000
2564, 45839144.000000, 1115.500000, 8166.000000, 8192.000000, 8178.000000
2565, 45839304.000000, 1064.500000, 8163.000000, 8190.000000, 8175.000000
2566, 45839464.000000, 1076.250000, 8162.500000, 8190.000000, 8173.500000
2567, 45839624.000000, 1244.750000, 8163.500000, 8189.500000, 8174.000000
2568, 45839784.000000, 1653.500000, 8160.000000, 8187.500000, 8169.500000
2569, 45839944.000000, 2213.875000, 8162.500000, 8185.500000, 8169.000000
2570, 45840104.000000, 2793.250000, 8162.000000, 8185.500000, 8168.500000
2571, 45840264.000000, 3257.375000, 8161.500000, 8187.000000, 8169.000000
2572, 45840424.000000, 3552.250000, 8162.500000, 8188.500000, 8172.000000
2573, 45840584.000000, 3675.250000, 8162.500000, 8187.000000, 8170.500000
2574, 45840744.000000, 3657.750000, 8161.500000, 8186.500000, 8168.500000
2575, 45840904.000000, 3556.250000, 8162.500000, 8186.500000, 8170.000000
2576, 45841064.000000, 3409.000000, 8164.000000, 8187.000000, 8171.500000
2577, 45841224.000000, 3231.375000, 8166.000000, 8189.000000, 8175.000000
2578, 45841384.000000, 3035.625000, 8173.000000, 8200.500000, 8198.000000
2579, 45841544.000000, 2855.375000, 8179.500000, 8207.500000, 8214.000000
2580, 45841704.000000, 2722.750000, 8185.500000, 8204.500000, 8217.000000
2581, 45841864.000000, 2645.625000, 8182.500000, 8196.500000, 8197.000000
2582, 45842024.000000, 2611.000000, 8165.000000, 8187.000000, 8172.000000
2583, 45842184.000000, 2595.125000, 8160.500000, 8181.500000, 8160.000000
2584, 45842344.000000, 2575.750000, 8159.500000, 8180.000000, 8157.500000
2585, 45842504.000000, 2532.625000, 8161.500000, 8180.500000, 8158.500000
2586, 45842664.000000, 2456.500000, 8150.000000, 8222.500000, 8200.500000
2587, 45842824.000000, 2351.125000, 8455.500000, 7958.500000, 8109.000000
2588, 45842984.000000, 2228.125000, 8327.500000, 7900.500000, 7937.000000
2589, 45843144.000000, 2102.875000, 8177.000000, 8182.500000, 8176.000000
2590, 45843304.000000, 1984.875000, 8164.000000, 8226.000000, 8211.000000
2591, 45843464.000000, 1877.000000, 8161.500000, 8233.500000, 8217.500000
2592, 45843624.000000, 1783.750000, 8165.500000, 8238.000000, 8226.500000
2593, 45843784.000000, 1702.250000, 8168.500000, 8238.500000, 8228.000000
2594, 45843944.000000, 1634.000000, 8176.000000, 8240.000000, 8233.000000
2595, 45844104.000000, 1578.750000, 8183.500000, 8248.000000, 8246.500000
2596, 45844264.000000, 1535.375000, 8197.500000, 8254.500000, 8261.500000
2597, 45844424.000000, 1495.125000, 8208.000000, 8264.000000, 8278.000000
2598, 45844584.000000, 1459.875000, 8216.000000, 8266.000000, 8285.000000
2599, 45844744.000000, 1426.375000, 8213.000000, 8266.000000, 8285.000000
2600, 45844904.000000, 1395.500000, 8205.000000, 8254.500000, 8272.500000
2601, 45845064.000000, 1365.500000, 8180.000000, 8228.500000, 8232.500000
2602, 45845224.000000, 1337.125000, 8157.000000, 8207.000000, 8194.000000
2603, 45845384.000000, 1309.750000, 8145.000000, 8197.000000, 8175.000000
2604, 45845544.000000, 1282.500000, 8143.000000, 8191.500000, 8164.500000
2605, 45845704.000000, 1252.500000, 8146.500000, 8194.000000, 8171.000000
2606, 45845864.000000, 1222.500000, 8151.000000, 8194.500000, 8174.500000
2607, 45846024.000000, 1192.625000, 8155.000000, 8198.000000, 8181.000000
2608, 45846184.000000, 1163.875000, 8157.500000, 8195.500000, 8180.000000
2609, 45846344.000000, 1132.000000, 8159.000000, 8193.000000, 8178.000000
2610, 45846504.000000, 1088.125000, 8161.000000, 8192.000000, 8177.000000
2611, 45846664.000000, 1046.875000, 8161.000000, 8192.000000, 8177.000000
2612, 45846824.000000, 1075.250000, 8159.500000, 8191.500000, 8175.000000
2613, 45846984.000000, 1285.375000, 8160.500000, 8190.000000, 8174.500000
2614, 45847144.000000, 1742.750000, 8161.500000, 8186.500000, 8170.500000
2615, 45847304.000000, 2355.000000, 8159.000000, 8186.000000, 8167.000000
2616, 45847464.000000, 2972.625000, 8160.500000, 8187.000000, 8169.500000
2617, 45847624.000000, 3461.125000, 8160.000000, 8188.000000, 8170.000000
2618, 45847784.000000, 3758.125000, 8161.000000, 8187.500000, 8170.500000
2619, 45847944.000000, 3864.625000, 8163.500000, 8185.500000, 8169.000000
2620, 45848104.000000, 3835.625000, 8164.000000, 8186.000000, 8169.000000
2621, 45848264.000000, 3725.000000, 8164.000000, 8187.000000, 8172.000000
2622, 45848424.000000, 3571.125000, 8164.000000, 8190.500000, 8175.500000
2623, 45848584.000000, 3391.125000, 8166.500000, 8189.500000, 8176.000000
2624, 45848744.000000, 3191.625000, 8177.500000, 8203.000000, 8205.000000
2625, 45848904.000000, 3009.250000, 8184.500000, 8209.000000, 8220.000000
2626, 45849064.000000, 2871.875000, 8187.000000, 8205.000000, 8217.000000
2627, 45849224.000000, 2788.250000, 8182.000000, 8196.000000, 8193.500000
2628, 45849384.000000, 2744.875000, 8166.500000, 8182.500000, 8165.000000
2629, 45849544.000000, 2715.625000, 8162.500000, 8179.500000, 8157.000000
2630, 45849704.000000, 2681.375000, 8166.000000, 8177.500000, 8158.500000
2631, 45849864.000000, 2628.125000, 8160.000000, 8187.000000, 8162.000000
2632, 45850024.000000, 2541.625000, 8186.500000, 8212.500000, 8209.000000
2633, 45850184.000000, 2428.875000, 8501.000000, 7913.000000, 8088.000000
2634, 45850344.000000, 2304.125000, 8228.000000, 7979.500000, 7967.500000
2635, 45850504.000000, 2175.500000, 8179.000000, 8198.000000, 8191.000000
2636, 45850664.000000, 2049.625000, 8166.500000, 8225.000000, 8211.500000
2637, 45850824.000000, 1938.875000, 8168.000000, 8230.000000, 8219.000000
2638, 45850984.000000, 1843.125000, 8169.500000, 8230.500000, 8219.000000
2639, 45851144.000000, 1762.250000, 8175.000000, 8233.000000, 8224.000000
2640, 45851304.000000, 1692.375000, 8183.500000, 8238.500000, 8235.000000
2641, 45851464.000000, 1635.500000, 8193.000000, 8244.500000, 8246.500000
2642, 45851624.000000, 1586.125000, 8203.500000, 8250.500000, 8259.500000
2643, 45851784.000000, 1543.125000, 8216.500000, 8255.000000, 8271.500000
2644, 45851944.000000, 1506.625000, 8219.000000, 8259.000000, 8278.000000
2645, 45852104.000000, 1469.250000, 8215.500000, 8257.000000, 8275.500000
2646, 45852264.000000, 1434.250000, 8206.500000, 8248.500000, 8265.500000
2647, 45852424.000000, 1400.125000, 8182.000000, 8222.000000, 8224.500000
2648, 45852584.000000, 1364.875000, 8159.500000, 8203.000000, 8190.500000
2649, 45852744.000000, 1330.250000, 8152.000000, 8192.000000, 8173.000000
2650, 45852904.000000, 1294.250000, 8151.000000, 8189.500000, 8168.500000
2651, 45853064.000000, 1258.125000, 8154.000000, 8192.000000, 8172.000000
2652, 45853224.000000, 1223.250000, 8159.000000, 8195.000000, 8180.000000
2653, 45853384.000000, 1189.500000, 8162.000000, 8194.000000, 8179.500000
2654, 45853544.000000, 1158.875000, 8165.500000, 8189.500000, 8177.000000
2655, 45853704.000000, 1124.000000, 8164.000000, 8189.500000, 8174.500000
2656, 45853864.000000, 1081.750000, 8165.000000, 8192.000000, 8179.000000
2657, 45854024.000000, 1035.250000, 8165.500000, 8188.500000, 8176.000000
2658, 45854184.000000, 1028.375000, 8165.500000, 8185.500000, 8173.000000
2659, 45854344.000000, 1173.625000, 8164.500000, 8184.000000, 8169.000000
2660, 45854504.000000, 1536.500000, 8165.000000, 8183.500000, 8168.500000
2661, 45854664.000000, 2085.000000, 8164.500000, 8186.000000, 8170.000000
2662, 45854824.000000, 2672.250000, 8167.000000, 8184.500000, 8171.500000
2663, 45854984.000000, 3160.125000, 8166.500000, 8184.500000, 8171.000000
2664, 45855144.000000, 3456.375000, 8168.000000, 8184.500000, 8171.500000
2665, 45855304.000000, 3566.000000, 8169.500000, 8185.500000, 8173.500000
2666, 45855464.000000, 3525.500000, 8171.000000, 8187.000000, 8176.000000
2667, 45855624.000000, 3396.875000, 8172.000000, 8187.500000, 8177.500000
2668, 45855784.000000, 3222.125000, 8171.000000, 8185.000000, 8174.000000
2669, 45855944.000000, 3023.500000, 8182.000000, 8195.000000, 8196.500000
2670, 45856104.000000, 2815.375000, 8188.500000, 8204.500000, 8215.000000
2671, 45856264.000000, 2633.750000, 8194.500000, 8205.000000, 8222.500000
2672, 45856424.000000, 2512.250000, 8191.500000, 8195.500000, 8202.000000
2673, 45856584.000000, 2447.375000, 8175.000000, 8183.500000, 8172.500000
2674, 45856744.000000, 2423.875000, 8170.000000, 8176.000000, 8158.500000
2675, 45856904.000000, 2413.375000, 8172.000000, 8177.000000, 8161.000000
2676, 45857064.000000, 2394.500000, 8173.000000, 8181.000000, 8165.500000
2677, 45857224.000000, 2350.875000, 8164.000000, 8218.000000, 8200.000000
2678, 45857384.000000, 2277.125000, 8474.500000, 8008.500000, 8170.500000
2679, 45857544.000000, 2178.625000, 8301.500000, 7933.000000, 7962.000000
2680, 45857704.000000, 2068.875000, 8185.500000, 8177.000000, 8175.000000
2681, 45857864.000000, 1956.375000, 8177.000000, 8218.000000, 8211.000000
2682, 45858024.000000, 1848.750000, 8176.500000, 8224.000000, 8216.000000
2683, 45858184.000000, 1748.375000, 8177.000000, 8224.500000, 8217.500000
2684, 45858344.000000, 1661.625000, 8183.000000, 8227.000000, 8222.000000
2685, 45858504.000000, 1587.625000, 8192.500000, 8231.000000, 8230.500000
2686, 45858664.000000, 1525.250000, 8202.500000, 8236.000000, 8243.000000
2687, 45858824.000000, 1473.625000, 8211.500000, 8242.500000, 8255.500000
2688, 45858984.000000, 1429.000000, 8226.000000, 8247.000000, 8266.500000
2689, 45859144.000000, 1393.250000, 8230.000000, 8248.000000, 8270.000000
2690, 45859304.000000, 1358.250000, 8229.500000, 8248.500000, 8272.500000
2691, 45859464.000000, 1325.375000, 8220.000000, 8242.500000, 8266.000000
2692, 45859624.000000, 1294.125000, 8201.000000, 8219.500000, 8230.500000
2693, 45859784.000000, 1266.500000, 8179.500000, 8197.500000, 8194.500000
2694, 45859944.000000, 1240.375000, 8170.000000, 8187.500000, 8176.500000
2695, 45860104.000000, 1218.625000, 8172.000000, 8184.500000, 8173.500000
2696, 45860264.000000, 1192.125000, 8177.000000, 8188.500000, 8181.500000
2697, 45860424.000000, 1161.500000, 8184.500000, 8189.000000, 8185.500000
2698, 45860584.000000, 1131.500000, 8189.500000, 8185.500000, 8187.000000
2699, 45860744.000000, 1101.500000, 8189.500000, 8184.500000, 8183.000000
2700, 45860904.000000, 1070.875000, 8195.500000, 8183.000000, 8186.500000
2701, 45861064.000000, 1032.625000, 8191.500000, 8182.500000, 8186.000000
2702, 45861224.000000, 979.625000, 8194.000000, 8179.500000, 8183.500000
2703, 45861384.000000, 930.000000, 8193.000000, 8176.500000, 8178.500000
2704, 45861544.000000, 939.125000, 8194.000000, 8172.000000, 8174.500000
2705, 45861704.000000, 1104.375000, 8197.000000, 8173.000000, 8174.500000
2706, 45861864.000000, 1474.500000, 8194.000000, 8173.500000, 8177.500000
2707, 45862024.000000, 1980.375000, 8197.500000, 8175.000000, 8179.500000
2708, 45862184.000000, 2482.375000, 8198.500000, 8172.500000, 8176.000000
2709, 45862344.000000, 2870.875000, 8196.000000, 8170.000000, 8173.500000
2710, 45862504.000000, 3080.750000, 8198.000000, 8171.500000, 8175.500000
2711, 45862664.000000, 3137.875000, 8200.500000, 8174.000000, 8177.500000
2712, 45862824.000000, 3061.875000, 8200.000000, 8175.000000, 8181.500000
2713, 45862984.000000, 2913.875000, 8214.500000, 8183.500000, 8201.500000
2714, 45863144.000000, 2720.750000, 8216.500000, 8190.500000, 8218.000000
2715, 45863304.000000, 2506.375000, 8226.000000, 8189.000000, 8221.000000
2716, 45863464.000000, 2304.375000, 8217.500000, 8180.500000, 8199.500000
2717, 45863624.000000, 2154.750000, 8203.500000, 8171.000000, 8175.500000
2718, 45863784.000000, 2077.750000, 8203.000000, 8164.500000, 8164.500000
2719, 45863944.000000, 2057.625000, 8199.500000, 8164.500000, 8165.500000
2720, 45864104.000000, 2076.250000, 8200.000000, 8170.500000, 8167.000000
2721, 45864264.000000, 2100.500000, 8235.500000, 8203.000000, 8229.000000
2722, 45864424.000000, 2100.875000, 8515.000000, 7996.500000, 8184.500000
2723, 45864584.000000, 2064.875000, 8233.000000, 7990.000000, 7997.500000
2724, 45864744.000000, 1988.875000, 8209.500000, 8161.000000, 8173.500000
2725, 45864904.000000, 1889.750000, 8205.000000, 8195.500000, 8203.500000
2726, 45865064.000000, 1782.500000, 8205.500000, 8202.000000, 8210.000000
2727, 45865224.000000, 1675.875000, 8206.000000, 8206.000000, 8214.500000
2728, 45865384.000000, 1577.875000, 8210.000000, 8205.000000, 8213.000000
2729, 45865544.000000, 1490.000000, 8221.000000, 8210.500000, 8226.500000
2730, 45865704.000000, 1415.125000, 8229.500000, 8218.000000, 8236.000000
2731, 45865864.000000, 1356.500000, 8241.000000, 8224.000000, 8250.000000
2732, 45866024.000000, 1308.750000, 8249.500000, 8228.000000, 8259.500000
2733, 45866184.000000, 1268.250000, 8256.000000, 8232.000000, 8262.000000
2734, 45866344.000000, 1235.500000, 8247.000000, 8232.500000, 8264.500000
2735, 45866504.000000, 1207.875000, 8234.500000, 8224.000000, 8253.500000
2736, 45866664.000000, 1187.000000, 8212.500000, 8206.000000, 8225.500000
2737, 45866824.000000, 1167.000000, 8184.500000, 8188.000000, 8190.000000
2738, 45866984.000000, 1147.000000, 8180.000000, 8181.500000, 8179.500000
2739, 45867144.000000, 1126.125000, 8174.000000, 8181.000000, 8174.500000
2740, 45867304.000000, 1106.375000, 8180.000000, 8183.000000, 8181.000000
2741, 45867464.000000, 1084.000000, 8185.500000, 8186.000000, 8186.500000
2742, 45867624.000000, 1061.750000, 8186.500000, 8184.000000, 8183.500000
2743, 45867784.000000, 1039.750000, 8185.500000, 8179.500000, 8181.000000
2744, 45867944.000000, 1011.500000, 8190.500000, 8180.000000, 8180.000000
2745, 45868104.000000, 977.000000, 8189.500000, 8179.500000, 8181.000000
2746, 45868264.000000, 934.125000, 8182.500000, 8177.500000, 8180.000000
2747, 45868424.000000, 884.750000, 8188.500000, 8179.000000, 8178.500000
2748, 45868584.000000, 855.375000, 8183.000000, 8173.000000, 8173.000000
2749, 45868744.000000, 910.875000, 8182.000000, 8176.000000, 8173.000000
2750, 45868904.000000, 1145.000000, 8183.500000, 8174.500000, 8174.000000
2751, 45869064.000000, 1538.000000, 8183.500000, 8175.500000, 8174.000000
2752, 45869224.000000, 2003.625000, 8187.000000, 8180.000000, 8181.500000
2753, 45869384.000000, 2418.875000, 8194.500000, 8192.000000, 8204.500000
2754, 45869544.000000, 2707.000000, 8205.000000, 8194.500000, 8218.500000
2755, 45869704.000000, 2840.375000, 8202.000000, 8185.500000, 8202.000000
2756, 45869864.000000, 2825.250000, 8183.500000, 8176.500000, 8176.000000
2757, 45870024.000000, 2680.375000, 8182.000000, 8171.000000, 8159.000000
2758, 45870184.000000, 2493.375000, 8181.000000, 8170.500000, 8158.500000
2759, 45870344.000000, 2280.250000, 8178.000000, 8169.000000, 8158.000000
2760, 45870504.000000, 2056.750000, 8164.500000, 8208.500000, 8190.500000
2761, 45870664.000000, 1903.875000, 8428.500000, 8161.500000, 8292.000000
2762, 45870824.000000, 1844.500000, 8394.500000, 7960.500000, 8065.500000
2763, 45870984.000000, 1862.375000, 8163.000000, 8103.500000, 8078.500000
2764, 45871144.000000, 1916.375000, 8185.500000, 8191.000000, 8184.000000
2765, 45871304.000000, 1965.500000, 8183.500000, 8203.000000, 8196.500000
2766, 45871464.000000, 1983.000000, 8184.500000, 8207.500000, 8201.000000
2767, 45871624.000000, 1958.625000, 8191.000000, 8209.000000, 8204.000000
2768, 45871784.000000, 1898.250000, 8195.000000, 8211.000000, 8210.000000
2769, 45871944.000000, 1813.375000, 8208.000000, 8213.500000, 8217.500000
2770, 45872104.000000, 1719.250000, 8224.000000, 8224.500000, 8235.000000
2771, 45872264.000000, 1625.500000, 8234.500000, 8227.500000, 8246.000000
2772, 45872424.000000, 1540.000000, 8241.500000, 8233.500000, 8254.500000
2773, 45872584.000000, 1454.000000, 8241.000000, 8234.500000, 8254.000000
2774, 45872744.000000, 1389.750000, 8229.500000, 8231.000000, 8255.000000
2775, 45872904.000000, 1351.375000, 8207.000000, 8217.000000, 8228.000000
2776, 45873064.000000, 1321.750000, 8176.500000, 8201.500000, 8198.500000
2777, 45873224.000000, 1300.125000, 8170.000000, 8193.500000, 8182.000000
2778, 45873384.000000, 1284.875000, 8160.000000, 8188.000000, 8172.000000
2779, 45873544.000000, 1270.625000, 8162.000000, 8188.000000, 8174.000000
2780, 45873704.000000, 1258.875000, 8168.000000, 8193.500000, 8181.000000
2781, 45873864.000000, 1245.000000, 8170.500000, 8193.000000, 8183.000000
2782, 45874024.000000, 1221.750000, 8174.000000, 8190.500000, 8181.500000
2783, 45874184.000000, 1192.000000, 8177.000000, 8188.500000, 8180.000000
2784, 45874344.000000, 1148.750000, 8178.500000, 8185.500000, 8176.000000
2785, 45874504.000000, 1105.750000, 8176.000000, 8185.500000, 8178.000000
2786, 45874664.000000, 1070.000000, 8171.500000, 8184.500000, 8173.000000
2787, 45874824.000000, 1092.250000, 8174.500000, 8185.000000, 8175.500000
2788, 45874984.000000, 1238.875000, 8173.000000, 8182.000000, 8170.500000
2789, 45875144.000000, 1540.750000, 8173.000000, 8182.000000, 8172.500000
2790, 45875304.000000, 1935.500000, 8185.500000, 8200.500000, 8203.000000
2791, 45875464.000000, 2318.125000, 8196.000000, 8204.000000, 8221.500000
2792, 45875624.000000, 2602.375000, 8192.500000, 8196.500000, 8203.000000
2793, 45875784.000000, 2760.500000, 8181.500000, 8181.500000, 8176.000000
2794, 45875944.000000, 2793.250000, 8170.000000, 8176.500000, 8159.000000
2795, 45876104.000000, 2724.250000, 8171.500000, 8176.500000, 8158.000000
2796, 45876264.000000, 2586.125000, 8171.000000, 8176.000000, 8157.000000
2797, 45876424.000000, 2400.000000, 8160.000000, 8195.000000, 8171.000000
2798, 45876584.000000, 2197.375000, 8288.000000, 8210.500000, 8265.500000
2799, 45876744.000000, 2021.125000, 8475.000000, 7966.500000, 8123.500000
2800, 45876904.000000, 1910.000000, 8150.500000, 8046.500000, 8015.000000
2801, 45877064.000000, 1874.500000, 8176.000000, 8185.000000, 8172.000000
2802, 45877224.000000, 1900.875000, 8172.000000, 8206.500000, 8193.500000
2803, 45877384.000000, 1957.000000, 8173.500000, 8210.500000, 8194.500000
2804, 45877544.000000, 2009.000000, 8179.000000, 8212.000000, 8201.000000
2805, 45877704.000000, 2032.000000, 8187.500000, 8215.500000, 8210.000000
2806, 45877864.000000, 2017.500000, 8198.000000, 8221.500000, 8219.000000
2807, 45878024.000000, 1968.375000, 8207.000000, 8226.000000, 8228.000000
2808, 45878184.000000, 1890.125000, 8221.000000, 8232.500000, 8243.000000
2809, 45878344.000000, 1798.500000, 8234.500000, 8238.000000, 8253.500000
2810, 45878504.000000, 1706.875000, 8237.000000, 8246.500000, 8265.500000
2811, 45878664.000000, 1622.125000, 8227.500000, 8243.000000, 8264.000000
2812, 45878824.000000, 1551.750000, 8205.000000, 8227.500000, 8240.000000
2813, 45878984.000000, 1493.500000, 8181.000000, 8208.000000, 8206.000000
2814, 45879144.000000, 1449.625000, 8159.000000, 8195.000000, 8180.000000
2815, 45879304.000000, 1415.625000, 8154.000000, 8193.000000, 8173.000000
2816, 45879464.000000, 1389.375000, 8158.500000, 8193.500000, 8178.500000
2817, 45879624.000000, 1369.000000, 8160.500000, 8194.500000, 8179.000000
2818, 45879784.000000, 1349.625000, 8165.000000, 8192.500000, 8178.000000
2819, 45879944.000000, 1329.625000, 8166.500000, 8192.500000, 8181.000000
2820, 45880104.000000, 1298.875000, 8172.500000, 8191.500000, 8182.000000
2821, 45880264.000000, 1260.750000, 8173.000000, 8190.500000, 8179.500000
2822, 45880424.000000, 1216.375000, 8168.000000, 8189.500000, 8179.500000
2823, 45880584.000000, 1183.250000, 8170.000000, 8187.000000, 8176.000000
2824, 45880744.000000, 1217.750000, 8168.000000, 8187.000000, 8174.000000
2825, 45880904.000000, 1389.500000, 8167.500000, 8187.500000, 8175.500000
2826, 45881064.000000, 1726.125000, 8167.500000, 8188.500000, 8176.500000
2827, 45881224.000000, 2151.500000, 8178.000000, 8197.500000, 8194.500000
2828, 45881384.000000, 2556.250000, 8184.000000, 8206.000000, 8214.500000
2829, 45881544.000000, 2860.875000, 8189.500000, 8204.500000, 8218.000000
2830, 45881704.000000, 3021.375000, 8187.500000, 8196.000000, 8199.000000
2831, 45881864.000000, 3055.500000, 8173.000000, 8184.500000, 8170.500000
2832, 45882024.000000, 2976.500000, 8166.500000, 8180.000000, 8158.500000
2833, 45882184.000000, 2832.125000, 8163.000000, 8175.500000, 8153.500000
2834, 45882344.000000, 2643.375000, 8166.500000, 8179.000000, 8157.500000
2835, 45882504.000000, 2435.750000, 8154.000000, 8226.500000, 8205.500000
2836, 45882664.000000, 2246.750000, 8445.500000, 8087.000000, 8226.000000
2837, 45882824.000000, 2113.625000, 8333.000000, 7938.500000, 7993.500000
2838, 45882984.000000, 2057.375000, 8168.500000, 8150.500000, 8133.000000
2839, 45883144.000000, 2062.750000, 8168.000000, 8209.000000, 8192.000000
2840, 45883304.000000, 2104.875000, 8170.500000, 8219.000000, 8205.000000
2841, 45883464.000000, 2146.500000, 8171.000000, 8222.000000, 8207.000000
2842, 45883624.000000, 2166.250000, 8179.500000, 8224.000000, 8214.000000
2843, 45883784.000000, 2148.000000, 8187.500000, 8227.000000, 8219.500000
2844, 45883944.000000, 2094.500000, 8196.000000, 8232.000000, 8232.500000
2845, 45884104.000000, 2011.125000, 8211.000000, 8240.500000, 8246.000000
2846, 45884264.000000, 1909.750000, 8220.000000, 8251.000000, 8263.000000
2847, 45884424.000000, 1808.125000, 8226.000000, 8256.000000, 8272.000000
2848, 45884584.000000, 1713.500000, 8221.000000, 8256.000000, 8274.000000
2849, 45884744.000000, 1631.625000, 8212.500000, 8245.500000, 8261.500000
2850, 45884904.000000, 1567.000000, 8184.500000, 8223.000000, 8225.000000
2851, 45885064.000000, 1515.625000, 8160.000000, 8203.000000, 8191.000000
2852, 45885224.000000, 1474.250000, 8151.500000, 8196.000000, 8174.500000
2853, 45885384.000000, 1440.625000, 8151.500000, 8192.000000, 8168.500000
2854, 45885544.000000, 1416.375000, 8153.000000, 8193.500000, 8172.500000
2855, 45885704.000000, 1396.000000, 8158.000000, 8195.500000, 8176.500000
2856, 45885864.000000, 1375.375000, 8159.500000, 8196.500000, 8179.000000
2857, 45886024.000000, 1347.375000, 8161.000000, 8194.500000, 8177.500000
2858, 45886184.000000, 1310.375000, 8162.500000, 8192.500000, 8176.000000
2859, 45886344.000000, 1260.625000, 8161.000000, 8191.000000, 8174.000000
2860, 45886504.000000, 1229.000000, 8161.000000, 8192.000000, 8175.000000
2861, 45886664.000000, 1288.250000, 8161.000000, 8191.500000, 8174.500000
2862, 45886824.000000, 1537.625000, 8157.500000, 8188.500000, 8169.000000
2863, 45886984.000000, 1963.125000, 8156.000000, 8184.500000, 8162.000000
2864, 45887144.000000, 2476.750000, 8162.000000, 8187.500000, 8170.500000
2865, 45887304.000000, 2945.375000, 8160.500000, 8188.500000, 8171.000000
2866, 45887464.000000, 3282.500000, 8158.000000, 8187.500000, 8168.500000
2867, 45887624.000000, 3455.000000, 8165.500000, 8196.500000, 8184.000000
2868, 45887784.000000, 3482.875000, 8176.000000, 8205.500000, 8205.500000
2869, 45887944.000000, 3406.750000, 8181.000000, 8209.000000, 8217.000000
2870, 45888104.000000, 3262.750000, 8178.000000, 8200.000000, 8200.000000
2871, 45888264.000000, 3081.000000, 8164.500000, 8188.000000, 8170.000000
2872, 45888424.000000, 2877.125000, 8157.000000, 8182.000000, 8156.000000
2873, 45888584.000000, 2680.625000, 8157.500000, 8179.000000, 8152.500000
2874, 45888744.000000, 2531.375000, 8157.500000, 8180.500000, 8155.000000
2875, 45888904.000000, 2448.750000, 8135.500000, 8225.000000, 8191.500000
2876, 45889064.000000, 2420.500000, 8377.500000, 8104.000000, 8210.500000
2877, 45889224.000000, 2424.625000, 8435.500000, 7843.500000, 7946.000000
2878, 45889384.000000, 2431.375000, 8164.500000, 8140.500000, 8118.500000
2879, 45889544.000000, 2417.125000, 8162.500000, 8219.500000, 8201.500000
2880, 45889704.000000, 2368.375000, 8159.000000, 8230.500000, 8211.500000
2881, 45889864.000000, 2289.000000, 8162.000000, 8235.000000, 8218.000000
2882, 45890024.000000, 2183.875000, 8164.500000, 8236.500000, 8221.500000
2883, 45890184.000000, 2066.000000, 8173.500000, 8239.500000, 8229.500000
2884, 45890344.000000, 1945.000000, 8181.000000, 8247.000000, 8242.000000
2885, 45890504.000000, 1827.625000, 8191.500000, 8256.500000, 8259.000000
2886, 45890664.000000, 1726.250000, 8204.000000, 8264.000000, 8273.000000
2887, 45890824.000000, 1642.375000, 8214.500000, 8270.000000, 8287.000000
2888, 45890984.000000, 1576.000000, 8210.000000, 8269.000000, 8284.000000
2889, 45891144.000000, 1522.750000, 8205.000000, 8261.000000, 8276.500000
2890, 45891304.000000, 1480.000000, 8183.500000, 8235.000000, 8238.500000
2891, 45891464.000000, 1444.375000, 8157.500000, 8211.500000, 8199.500000
2892, 45891624.000000, 1412.500000, 8144.500000, 8199.000000, 8176.500000
2893, 45891784.000000, 1384.625000, 8140.500000, 8195.000000, 8168.000000
2894, 45891944.000000, 1358.125000, 8143.500000, 8196.500000, 8172.500000
2895, 45892104.000000, 1332.875000, 8148.500000, 8197.500000, 8175.500000
2896, 45892264.000000, 1309.750000, 8153.500000, 8198.000000, 8179.500000
2897, 45892424.000000, 1282.375000, 8155.000000, 8195.500000, 8176.500000
2898, 45892584.000000, 1246.375000, 8156.000000, 8194.500000, 8177.500000
2899, 45892744.000000, 1196.625000, 8158.500000, 8193.500000, 8178.500000
2900, 45892904.000000, 1173.625000, 8156.000000, 8192.000000, 8175.000000
2901, 45893064.000000, 1280.375000, 8155.500000, 8191.000000, 8173.000000
2902, 45893224.000000, 1628.375000, 8157.500000, 8189.500000, 8172.000000
2903, 45893384.000000, 2174.125000, 8158.000000, 8185.000000, 8166.000000
2904, 45893544.000000, 2793.250000, 8158.000000, 8186.000000, 8167.000000
2905, 45893704.000000, 3329.625000, 8156.000000, 8187.500000, 8168.500000
2906, 45893864.000000, 3700.250000, 8160.000000, 8187.500000, 8171.500000
2907, 45894024.000000, 3873.250000, 8159.000000, 8186.500000, 8169.500000
2908, 45894184.000000, 3885.500000, 8160.000000, 8185.000000, 8167.000000
2909, 45894344.000000, 3792.375000, 8162.000000, 8185.500000, 8168.500000
2910, 45894504.000000, 3641.500000, 8162.500000, 8189.500000, 8174.000000
2911, 45894664.000000, 3459.875000, 8178.000000, 8206.500000, 8210.500000
2912, 45894824.000000, 3251.250000, 8180.500000, 8208.500000, 8218.000000
2913, 45894984.000000, 3041.375000, 8179.000000, 8198.500000, 8202.500000
2914, 45895144.000000, 2864.875000, 8172.000000, 8187.000000, 8175.000000
2915, 45895304.000000, 2745.625000, 8160.500000, 8180.000000, 8158.500000
2916, 45895464.000000, 2677.125000, 8158.000000, 8178.000000, 8153.000000
2917, 45895624.000000, 2639.625000, 8160.000000, 8178.500000, 8154.500000
2918, 45895784.000000, 2608.875000, 8146.500000, 8196.500000, 8162.500000
2919, 45895944.000000, 2566.875000, 8241.500000, 8195.500000, 8234.500000
2920, 45896104.000000, 2494.750000, 8490.500000, 7815.000000, 7976.000000
2921, 45896264.000000, 2394.250000, 8173.000000, 8070.500000, 8043.500000
2922, 45896424.000000, 2273.125000, 8171.500000, 8212.500000, 8198.500000
2923, 45896584.000000, 2143.500000, 8162.500000, 8230.000000, 8211.500000
2924, 45896744.000000, 2014.750000, 8166.500000, 8235.000000, 8221.500000
2925, 45896904.000000, 1896.500000, 8170.000000, 8240.000000, 8229.000000
2926, 45897064.000000, 1792.250000, 8174.500000, 8241.500000, 8231.000000
2927, 45897224.000000, 1704.000000, 8183.000000, 8243.000000, 8238.500000
2928, 45897384.000000, 1628.500000, 8189.500000, 8249.000000, 8248.500000
2929, 45897544.000000, 1564.250000, 8206.000000, 8258.500000, 8269.000000
2930, 45897704.000000, 1513.125000, 8216.000000, 8266.000000, 8283.000000
2931, 45897864.000000, 1465.000000, 8217.000000, 8267.500000, 8285.500000
2932, 45898024.000000, 1425.000000, 8214.000000, 8261.500000, 8279.500000
2933, 45898184.000000, 1389.250000, 8198.500000, 8242.500000, 8255.500000
2934, 45898344.000000, 1354.250000, 8171.500000, 8216.500000, 8210.500000
2935, 45898504.000000, 1319.250000, 8154.500000, 8203.000000, 8185.500000
2936, 45898664.000000, 1282.625000, 8146.000000, 8198.000000, 8173.000000
2937, 45898824.000000, 1246.000000, 8148.000000, 8192.000000, 8168.000000
2938, 45898984.000000, 1208.250000, 8153.000000, 8194.000000, 8171.500000
2939, 45899144.000000, 1170.000000, 8157.000000, 8194.500000, 8174.500000
2940, 45899304.000000, 1129.375000, 8160.500000, 8195.000000, 8179.500000
2941, 45899464.000000, 1083.250000, 8163.000000, 8195.000000, 8182.000000
2942, 45899624.000000, 1023.125000, 8162.500000, 8190.500000, 8176.000000
2943, 45899784.000000, 965.250000, 8163.000000, 8190.000000, 8174.000000
2944, 45899944.000000, 993.875000, 8162.000000, 8187.500000, 8171.000000
2945, 45900104.000000, 1224.250000, 8162.000000, 8187.000000, 8170.000000
2946, 45900264.000000, 1702.500000, 8161.500000, 8187.000000, 8171.000000
2947, 45900424.000000, 2329.250000, 8163.000000, 8185.000000, 8167.000000
2948, 45900584.000000, 2939.125000, 8162.500000, 8182.000000, 8163.500000
2949, 45900744.000000, 3406.125000, 8164.000000, 8184.500000, 8167.500000
2950, 45900904.000000, 3665.875000, 8165.000000, 8186.500000, 8171.500000
2951, 45901064.000000, 3742.375000, 8166.000000, 8187.000000, 8172.000000
2952, 45901224.000000, 3673.125000, 8167.000000, 8185.500000, 8170.500000
2953, 45901384.000000, 3532.500000, 8169.000000, 8184.000000, 8170.000000
2954, 45901544.000000, 3352.875000, 8171.500000, 8187.000000, 8174.500000
2955, 45901704.000000, 3144.000000, 8185.000000, 8206.000000, 8214.000000
2956, 45901864.000000, 2923.625000, 8189.000000, 8207.000000, 8220.000000
2957, 45902024.000000, 2721.375000, 8188.500000, 8200.000000, 8211.500000
2958, 45902184.000000, 2570.125000, 8182.500000, 8187.500000, 8182.500000
2959, 45902344.000000, 2471.625000, 8168.500000, 8181.000000, 8162.500000
2960, 45902504.000000, 2414.750000, 8164.500000, 8178.500000, 8156.500000
2961, 45902664.000000, 2374.125000, 8167.000000, 8179.000000, 8158.000000
2962, 45902824.000000, 2334.125000, 8156.500000, 8189.000000, 8161.000000
2963, 45902984.000000, 2273.375000, 8223.000000, 8204.000000, 8225.000000
2964, 45903144.000000, 2189.625000, 8497.000000, 7862.500000, 8034.000000
2965, 45903304.000000, 2081.875000, 8180.000000, 8033.000000, 8004.500000
2966, 45903464.000000, 1954.875000, 8181.000000, 8206.000000, 8201.000000
2967, 45903624.000000, 1822.750000, 8170.000000, 8225.000000, 8212.000000
2968, 45903784.000000, 1701.625000, 8171.000000, 8229.000000, 8218.500000
2969, 45903944.000000, 1591.000000, 8175.000000, 8233.000000, 8225.000000
2970, 45904104.000000, 1496.125000, 8179.500000, 8236.000000, 8230.000000
2971, 45904264.000000, 1418.625000, 8187.500000, 8239.500000, 8238.500000
2972, 45904424.000000, 1357.250000, 8193.500000, 8243.000000, 8245.000000
2973, 45904584.000000, 1305.750000, 8205.500000, 8250.000000, 8260.000000
2974, 45904744.000000, 1264.250000, 8216.000000, 8258.500000, 8275.500000
2975, 45904904.000000, 1230.375000, 8216.500000, 8259.500000, 8278.500000
2976, 45905064.000000, 1201.750000, 8212.000000, 8257.000000, 8275.500000
2977, 45905224.000000, 1176.875000, 8199.000000, 8240.000000, 8254.500000
2978, 45905384.000000, 1153.750000, 8175.000000, 8215.000000, 8214.500000
2979, 45905544.000000, 1130.000000, 8159.000000, 8199.000000, 8186.500000
2980, 45905704.000000, 1107.750000, 8151.000000, 8193.500000, 8173.500000
2981, 45905864.000000, 1080.500000, 8152.000000, 8192.500000, 8173.500000
2982, 45906024.000000, 1050.500000, 8156.000000, 8193.000000, 8176.000000
2983, 45906184.000000, 1023.625000, 8160.000000, 8191.500000, 8177.500000
2984, 45906344.000000, 996.750000, 8165.500000, 8191.500000, 8181.000000
2985, 45906504.000000, 967.375000, 8166.000000, 8192.500000, 8182.500000
2986, 45906664.000000, 931.000000, 8165.000000, 8188.500000, 8176.000000
2987, 45906824.000000, 886.875000, 8166.000000, 8185.500000, 8173.500000
2988, 45906984.000000, 862.500000, 8167.000000, 8185.000000, 8173.500000
2989, 45907144.000000, 941.125000, 8165.500000, 8183.500000, 8169.000000
2990, 45907304.000000, 1232.125000, 8167.000000, 8185.000000, 8172.000000
2991, 45907464.000000, 1712.000000, 8167.500000, 8183.000000, 8170.000000
2992, 45907624.000000, 2279.250000, 8164.500000, 8181.500000, 8165.500000
2993, 45907784.000000, 2781.375000, 8170.000000, 8181.000000, 8168.000000
2994, 45907944.000000, 3128.250000, 8171.000000, 8184.000000, 8173.000000
2995, 45908104.000000, 3285.750000, 8171.000000, 8184.500000, 8173.500000
2996, 45908264.000000, 3286.375000, 8170.500000, 8183.500000, 8171.500000
2997, 45908424.000000, 3178.375000, 8173.500000, 8183.000000, 8173.000000
2998, 45908584.000000, 3008.500000, 8173.500000, 8182.000000, 8171.000000
2999, 45908744.000000, 2808.375000, 8183.500000, 8194.500000, 8196.000000
3000, 45908904.000000, 2596.125000, 8189.500000, 8207.500000, 8218.000000
3001, 45909064.000000, 2407.875000, 8195.500000, 8206.000000, 8225.500000
3002, 45909224.000000, 2267.500000, 8190.000000, 8192.500000, 8197.500000
3003, 45909384.000000, 2192.000000, 8176.500000, 8181.000000, 8169.000000
3004, 45909544.000000, 2166.500000, 8172.000000, 8176.500000, 8159.500000
3005, 45909704.000000, 2164.000000, 8170.500000, 8177.000000, 8159.000000
3006, 45909864.000000, 2157.875000, 8173.500000, 8179.500000, 8163.500000
3007, 45910024.000000, 2130.375000, 8154.500000, 8217.500000, 8195.000000
3008, 45910184.000000, 2064.625000, 8440.500000, 8038.000000, 8178.500000
3009, 45910344.000000, 1975.750000, 8350.000000, 7905.000000, 7961.500000
3010, 45910504.000000, 1866.875000, 8183.500000, 8170.000000, 8164.000000
3011, 45910664.000000, 1753.500000, 8176.000000, 8216.000000, 8205.000000
3012, 45910824.000000, 1646.375000, 8172.500000, 8222.000000, 8209.500000
3013, 45910984.000000, 1552.625000, 8177.000000, 8225.500000, 8216.500000
3014, 45911144.000000, 1468.625000, 8181.500000, 8228.500000, 8222.000000
3015, 45911304.000000, 1400.000000, 8188.500000, 8234.000000, 8232.000000
3016, 45911464.000000, 1343.875000, 8196.000000, 8237.000000, 8239.000000
3017, 45911624.000000, 1296.000000, 8204.000000, 8241.500000, 8247.500000
3018, 45911784.000000, 1258.250000, 8217.500000, 8248.000000, 8262.000000
3019, 45911944.000000, 1225.625000, 8221.000000, 8251.500000, 8269.500000
3020, 45912104.000000, 1198.125000, 8217.000000, 8253.500000, 8271.500000
3021, 45912264.000000, 1172.875000, 8210.500000, 8246.000000, 8265.000000
3022, 45912424.000000, 1152.000000, 8190.500000, 8224.000000, 8231.000000
3023, 45912584.000000, 1132.000000, 8171.500000, 8203.000000, 8196.500000
3024, 45912744.000000, 1112.000000, 8162.000000, 8196.000000, 8183.000000
3025, 45912904.000000, 1090.750000, 8160.500000, 8193.500000, 8178.000000
3026, 45913064.000000, 1068.000000, 8165.000000, 8193.500000, 8180.500000
3027, 45913224.000000, 1044.875000, 8168.500000, 8194.000000, 8183.500000
3028, 45913384.000000, 1021.750000, 8173.000000, 8192.500000, 8183.500000
3029, 45913544.000000, 998.625000, 8176.500000, 8191.500000, 8185.500000
3030, 45913704.000000, 970.500000, 8176.500000, 8191.500000, 8185.500000
3031, 45913864.000000, 933.875000, 8175.500000, 8187.000000, 8179.500000
3032, 45914024.000000, 890.375000, 8178.000000, 8184.000000, 8178.000000
3033, 45914184.000000, 867.000000, 8176.500000, 8182.000000, 8174.000000
