1315, 47567072.000000, 1485.000000, 8197.000000, 8249.000000, 8255.000000
1316, 47567232.000000, 1409.000000, 8189.000000, 8238.000000, 8243.000000
1317, 47567392.000000, 1351.500000, 8178.000000, 8217.000000, 8215.000000
1318, 47567552.000000, 1311.000000, 8163.000000, 8201.000000, 8189.000000
1319, 47567712.000000, 1284.500000, 8154.000000, 8195.000000, 8179.000000
1320, 47567872.000000, 1264.000000, 8154.000000, 8198.000000, 8180.000000
1321, 47568032.000000, 1248.000000, 8158.000000, 8196.000000, 8179.000000
1322, 47568192.000000, 1233.000000, 8162.000000, 8195.000000, 8180.000000
1323, 47568352.000000, 1221.000000, 8163.000000, 8194.000000, 8180.000000
1324, 47568512.000000, 1208.000000, 8163.000000, 8193.000000, 8179.000000
1325, 47568672.000000, 1190.500000, 8163.000000, 8192.000000, 8178.000000
1326, 47568832.000000, 1161.000000, 8159.000000, 8190.000000, 8173.000000
1327, 47568992.000000, 1122.500000, 8158.000000, 8187.000000, 8168.000000
1328, 47569152.000000, 1111.000000, 8159.000000, 8185.000000, 8166.000000
1329, 47569312.000000, 1241.000000, 8160.000000, 8186.000000, 8168.000000
1330, 47569472.000000, 1551.000000, 8170.000000, 8201.000000, 8198.000000
1331, 47569632.000000, 2000.500000, 8178.000000, 8209.000000, 8215.000000
1332, 47569792.000000, 2434.000000, 8181.000000, 8207.000000, 8217.000000
1333, 47569952.000000, 2745.000000, 8178.000000, 8198.000000, 8202.000000
1334, 47570112.000000, 2904.000000, 8160.000000, 8183.000000, 8161.000000
1335, 47570272.000000, 2904.500000, 8153.000000, 8177.000000, 8148.000000
1336, 47570432.000000, 2797.000000, 8155.000000, 8176.000000, 8145.000000
1337, 47570592.000000, 2609.000000, 8151.000000, 8177.000000, 8143.000000
1338, 47570752.000000, 2385.000000, 8177.000000, 8206.000000, 8191.000000
1339, 47570912.000000, 2159.500000, 8470.000000, 7925.000000, 8083.000000
1340, 47571072.000000, 1969.000000, 8217.000000, 7962.000000, 7944.000000
1341, 47571232.000000, 1856.500000, 8172.000000, 8189.000000, 8173.000000
1342, 47571392.000000, 1830.000000, 8160.000000, 8216.000000, 8192.000000
1343, 47571552.000000, 1868.500000, 8161.000000, 8225.000000, 8202.000000
1344, 47571712.000000, 1928.000000, 8165.000000, 8227.000000, 8208.000000
1345, 47571872.000000, 1978.500000, 8171.000000, 8231.000000, 8216.000000
1346, 47572032.000000, 1998.000000, 8176.000000, 8235.000000, 8222.000000
1347, 47572192.000000, 1970.500000, 8186.000000, 8237.000000, 8230.000000
1348, 47572352.000000, 1906.000000, 8195.000000, 8245.000000, 8244.000000
1349, 47572512.000000, 1818.000000, 8197.000000, 8250.000000, 8250.000000
1350, 47572672.000000, 1721.000000, 8198.000000, 8252.000000, 8257.000000
1351, 47572832.000000, 1629.500000, 8192.000000, 8248.000000, 8251.000000
1352, 47572992.000000, 1550.000000, 8183.000000, 8237.000000, 8238.000000
1353, 47573152.000000, 1488.000000, 8169.000000, 8219.000000, 8211.000000
1354, 47573312.000000, 1442.000000, 8156.000000, 8205.000000, 8190.000000
1355, 47573472.000000, 1409.000000, 8151.000000, 8198.000000, 8178.000000
1356, 47573632.000000, 1382.000000, 8151.000000, 8198.000000, 8176.000000
1357, 47573792.000000, 1357.000000, 8156.000000, 8197.000000, 8178.000000
1358, 47573952.000000, 1332.000000, 8159.000000, 8196.000000, 8179.000000
1359, 47574112.000000, 1309.000000, 8161.000000, 8198.000000, 8183.000000
1360, 47574272.000000, 1289.000000, 8163.000000, 8196.000000, 8182.000000
1361, 47574432.000000, 1264.500000, 8160.000000, 8193.000000, 8177.000000
1362, 47574592.000000, 1228.000000, 8158.000000, 8188.000000, 8167.000000
1363, 47574752.000000, 1182.000000, 8160.000000, 8187.000000, 8169.000000
1364, 47574912.000000, 1183.000000, 8160.000000, 8187.000000, 8169.000000
1365, 47575072.000000, 1330.500000, 8159.000000, 8185.000000, 8166.000000
1366, 47575232.000000, 1670.000000, 8164.000000, 8189.000000, 8174.000000
1367, 47575392.000000, 2116.000000, 8179.000000, 8202.000000, 8206.000000
1368, 47575552.000000, 2527.000000, 8190.000000, 8213.000000, 8233.000000
1369, 47575712.000000, 2790.500000, 8186.000000, 8206.000000, 8221.000000
1370, 47575872.000000, 2901.000000, 8165.000000, 8187.000000, 8172.000000
1371, 47576032.000000, 2865.000000, 8158.000000, 8177.000000, 8150.000000
1372, 47576192.000000, 2732.000000, 8156.000000, 8172.000000, 8143.000000
1373, 47576352.000000, 2541.000000, 8158.000000, 8172.000000, 8143.000000
1374, 47576512.000000, 2324.000000, 8140.000000, 8211.000000, 8176.000000
1375, 47576672.000000, 2109.000000, 8372.000000, 8131.000000, 8236.000000
1376, 47576832.000000, 1930.000000, 8440.000000, 7845.000000, 7957.000000
1377, 47576992.000000, 1828.500000, 8166.000000, 8132.000000, 8108.000000
1378, 47577152.000000, 1795.000000, 8168.000000, 8210.000000, 8191.000000
1379, 47577312.000000, 1811.000000, 8164.000000, 8222.000000, 8203.000000
1380, 47577472.000000, 1841.000000, 8168.000000, 8226.000000, 8209.000000
1381, 47577632.000000, 1858.500000, 8173.000000, 8227.000000, 8212.000000
1382, 47577792.000000, 1847.000000, 8180.000000, 8231.000000, 8222.000000
1383, 47577952.000000, 1798.500000, 8187.000000, 8234.000000, 8228.000000
1384, 47578112.000000, 1723.000000, 8194.000000, 8243.000000, 8243.000000
1385, 47578272.000000, 1632.500000, 8203.000000, 8247.000000, 8253.000000
1386, 47578432.000000, 1539.000000, 8203.000000, 8248.000000, 8254.000000
1387, 47578592.000000, 1454.000000, 8197.000000, 8244.000000, 8248.000000
1388, 47578752.000000, 1379.000000, 8193.000000, 8242.000000, 8248.000000
1389, 47578912.000000, 1320.500000, 8185.000000, 8228.000000, 8232.000000
1390, 47579072.000000, 1274.000000, 8170.000000, 8211.000000, 8204.000000
1391, 47579232.000000, 1235.000000, 8159.000000, 8198.000000, 8183.000000
1392, 47579392.000000, 1203.000000, 8160.000000, 8196.000000, 8180.000000
1393, 47579552.000000, 1173.500000, 8166.000000, 8197.000000, 8183.000000
1394, 47579712.000000, 1146.000000, 8170.000000, 8200.000000, 8189.000000
1395, 47579872.000000, 1121.000000, 8172.000000, 8199.000000, 8189.000000
1396, 47580032.000000, 1097.000000, 8174.000000, 8196.000000, 8187.000000
1397, 47580192.000000, 1076.000000, 8173.000000, 8192.000000, 8181.000000
1398, 47580352.000000, 1046.000000, 8173.000000, 8191.000000, 8182.000000
1399, 47580512.000000, 1002.500000, 8171.000000, 8190.000000, 8179.000000
1400, 47580672.000000, 964.000000, 8173.000000, 8188.000000, 8177.000000
1401, 47580832.000000, 1008.500000, 8171.000000, 8185.000000, 8172.000000
1402, 47580992.000000, 1208.000000, 8179.000000, 8192.000000, 8189.000000
1403, 47581152.000000, 1562.500000, 8189.000000, 8206.000000, 8217.000000
1404, 47581312.000000, 1949.000000, 8199.000000, 8213.000000, 8237.000000
1405, 47581472.000000, 2256.500000, 8195.000000, 8206.000000, 8223.000000
1406, 47581632.000000, 2429.000000, 8173.000000, 8185.000000, 8170.000000
1407, 47581792.000000, 2462.000000, 8167.000000, 8176.000000, 8153.000000
1408, 47581952.000000, 2394.000000, 8167.000000, 8174.000000, 8151.000000
1409, 47582112.000000, 2251.000000, 8169.000000, 8176.000000, 8154.000000
1410, 47582272.000000, 2077.000000, 8160.000000, 8219.000000, 8195.000000
1411, 47582432.000000, 1889.000000, 8468.000000, 8009.000000, 8162.000000
1412, 47582592.000000, 1720.000000, 8298.000000, 7906.000000, 7930.000000
1413, 47582752.000000, 1603.000000, 8186.000000, 8168.000000, 8161.000000
1414, 47582912.000000, 1552.000000, 8179.000000, 8214.000000, 8201.000000
1415, 47583072.000000, 1556.500000, 8179.000000, 8220.000000, 8207.000000
1416, 47583232.000000, 1584.000000, 8183.000000, 8220.000000, 8209.000000
1417, 47583392.000000, 1609.500000, 8189.000000, 8222.000000, 8215.000000
1418, 47583552.000000, 1616.000000, 8198.000000, 8227.000000, 8226.000000
1419, 47583712.000000, 1592.500000, 8205.000000, 8233.000000, 8237.000000
1420, 47583872.000000, 1543.000000, 8218.000000, 8237.000000, 8247.000000
1421, 47584032.000000, 1475.500000, 8224.000000, 8238.000000, 8252.000000
1422, 47584192.000000, 1401.000000, 8223.000000, 8238.000000, 8250.000000
1423, 47584352.000000, 1329.000000, 8217.000000, 8238.000000, 8250.000000
1424, 47584512.000000, 1263.000000, 8217.000000, 8234.000000, 8248.000000
1425, 47584672.000000, 1211.500000, 8204.000000, 8217.000000, 8228.000000
1426, 47584832.000000, 1168.000000, 8189.000000, 8199.000000, 8198.000000
1427, 47584992.000000, 1130.500000, 8183.000000, 8190.000000, 8183.000000
1428, 47585152.000000, 1099.000000, 8182.000000, 8190.000000, 8183.000000
1429, 47585312.000000, 1070.500000, 8190.000000, 8194.000000, 8192.000000
1430, 47585472.000000, 1045.000000, 8193.000000, 8193.000000, 8193.000000
1431, 47585632.000000, 1021.500000, 8196.000000, 8189.000000, 8191.000000
1432, 47585792.000000, 1002.000000, 8197.000000, 8186.000000, 8188.000000
1433, 47585952.000000, 984.000000, 8196.000000, 8182.000000, 8184.000000
1434, 47586112.000000, 960.000000, 8196.000000, 8184.000000, 8186.000000
1435, 47586272.000000, 923.000000, 8192.000000, 8181.000000, 8180.000000
1436, 47586432.000000, 885.000000, 8193.000000, 8177.000000, 8175.000000
1437, 47586592.000000, 889.500000, 8191.000000, 8176.000000, 8173.000000
1438, 47586752.000000, 1008.000000, 8197.000000, 8181.000000, 8185.000000
1439, 47586912.000000, 1265.000000, 8206.000000, 8192.000000, 8208.000000
1440, 47587072.000000, 1578.000000, 8219.000000, 8203.000000, 8238.000000
1441, 47587232.000000, 1836.500000, 8216.000000, 8195.000000, 8222.000000
1442, 47587392.000000, 1995.000000, 8201.000000, 8177.000000, 8178.000000
1443, 47587552.000000, 2041.500000, 8188.000000, 8166.000000, 8155.000000
1444, 47587712.000000, 2000.000000, 8189.000000, 8167.000000, 8156.000000
1445, 47587872.000000, 1896.500000, 8188.000000, 8166.000000, 8153.000000
1446, 47588032.000000, 1756.000000, 8177.000000, 8206.000000, 8191.000000
1447, 47588192.000000, 1599.500000, 8441.000000, 8138.000000, 8269.000000
1448, 47588352.000000, 1450.000000, 8401.000000, 7915.000000, 8011.000000
1449, 47588512.000000, 1353.000000, 8178.000000, 8112.000000, 8094.000000
1450, 47588672.000000, 1316.000000, 8192.000000, 8192.000000, 8187.000000
1451, 47588832.000000, 1336.500000, 8189.000000, 8202.000000, 8193.000000
1452, 47588992.000000, 1382.000000, 8188.000000, 8205.000000, 8198.000000
1453, 47589152.000000, 1427.000000, 8197.000000, 8210.000000, 8205.000000
1454, 47589312.000000, 1453.000000, 8203.000000, 8216.000000, 8216.000000
1455, 47589472.000000, 1446.500000, 8211.000000, 8223.000000, 8227.000000
1456, 47589632.000000, 1413.000000, 8218.000000, 8225.000000, 8233.000000
1457, 47589792.000000, 1360.000000, 8226.000000, 8228.000000, 8238.000000
1458, 47589952.000000, 1304.000000, 8225.000000, 8231.000000, 8244.000000
1459, 47590112.000000, 1246.500000, 8222.000000, 8233.000000, 8246.000000
1460, 47590272.000000, 1198.000000, 8214.000000, 8228.000000, 8240.000000
1461, 47590432.000000, 1162.000000, 8203.000000, 8212.000000, 8224.000000
1462, 47590592.000000, 1135.000000, 8183.000000, 8198.000000, 8197.000000
1463, 47590752.000000, 1116.500000, 8168.000000, 8193.000000, 8184.000000
1464, 47590912.000000, 1101.000000, 8170.000000, 8192.000000, 8183.000000
1465, 47591072.000000, 1084.500000, 8170.000000, 8193.000000, 8184.000000
1466, 47591232.000000, 1071.000000, 8174.000000, 8192.000000, 8185.000000
1467, 47591392.000000, 1061.000000, 8179.000000, 8190.000000, 8185.000000
1468, 47591552.000000, 1051.000000, 8178.000000, 8189.000000, 8185.000000
1469, 47591712.000000, 1040.500000, 8177.000000, 8188.000000, 8183.000000
1470, 47591872.000000, 1024.000000, 8174.000000, 8186.000000, 8179.000000
1471, 47592032.000000, 999.500000, 8169.000000, 8182.000000, 8172.000000
1472, 47592192.000000, 968.000000, 8169.000000, 8180.000000, 8168.000000
1473, 47592352.000000, 944.000000, 8172.000000, 8183.000000, 8173.000000
1474, 47592512.000000, 977.000000, 8171.000000, 8184.000000, 8175.000000
1475, 47592672.000000, 1124.000000, 8185.000000, 8201.000000, 8211.000000
1476, 47592832.000000, 1371.000000, 8195.000000, 8210.000000, 8233.000000
1477, 47592992.000000, 1637.000000, 8194.000000, 8203.000000, 8221.000000
1478, 47593152.000000, 1842.000000, 8182.000000, 8190.000000, 8192.000000
1479, 47593312.000000, 1948.000000, 8166.000000, 8178.000000, 8160.000000
1480, 47593472.000000, 1971.000000, 8165.000000, 8175.000000, 8154.000000
1481, 47593632.000000, 1917.000000, 8165.000000, 8171.000000, 8148.000000
1482, 47593792.000000, 1815.000000, 8154.000000, 8188.000000, 8156.000000
1483, 47593952.000000, 1680.500000, 8291.000000, 8211.000000, 8268.000000
1484, 47594112.000000, 1537.000000, 8471.000000, 7912.000000, 8065.000000
1485, 47594272.000000, 1419.000000, 8144.000000, 8049.000000, 8004.000000
1486, 47594432.000000, 1358.000000, 8172.000000, 8191.000000, 8175.000000
1487, 47594592.000000, 1361.500000, 8167.000000, 8208.000000, 8187.000000
1488, 47594752.000000, 1408.000000, 8168.000000, 8214.000000, 8195.000000
1489, 47594912.000000, 1469.000000, 8171.000000, 8218.000000, 8201.000000
1490, 47595072.000000, 1516.000000, 8177.000000, 8221.000000, 8206.000000
1491, 47595232.000000, 1532.000000, 8185.000000, 8223.000000, 8212.000000
1492, 47595392.000000, 1516.000000, 8192.000000, 8229.000000, 8222.000000
1493, 47595552.000000, 1478.000000, 8205.000000, 8236.000000, 8236.000000
1494, 47595712.000000, 1426.000000, 8205.000000, 8240.000000, 8240.000000
1495, 47595872.000000, 1370.000000, 8198.000000, 8239.000000, 8238.000000
1496, 47596032.000000, 1316.000000, 8193.000000, 8234.000000, 8232.000000
1497, 47596192.000000, 1274.500000, 8188.000000, 8221.000000, 8221.000000
1498, 47596352.000000, 1243.000000, 8172.000000, 8206.000000, 8196.000000
1499, 47596512.000000, 1221.000000, 8157.000000, 8197.000000, 8179.000000
1500, 47596672.000000, 1202.000000, 8154.000000, 8193.000000, 8171.000000
1501, 47596832.000000, 1184.000000, 8159.000000, 8194.000000, 8175.000000
1502, 47596992.000000, 1165.000000, 8162.000000, 8193.000000, 8176.000000
1503, 47597152.000000, 1148.500000, 8162.000000, 8193.000000, 8176.000000
1504, 47597312.000000, 1135.000000, 8169.000000, 8193.000000, 8181.000000
1505, 47597472.000000, 1126.500000, 8170.000000, 8191.000000, 8178.000000
1506, 47597632.000000, 1114.000000, 8164.000000, 8187.000000, 8170.000000
1507, 47597792.000000, 1091.500000, 8165.000000, 8185.000000, 8170.000000
1508, 47597952.000000, 1059.000000, 8165.000000, 8186.000000, 8171.000000
1509, 47598112.000000, 1030.500000, 8164.000000, 8186.000000, 8171.000000
1510, 47598272.000000, 1050.000000, 8165.000000, 8185.000000, 8170.000000
1511, 47598432.000000, 1196.500000, 8165.000000, 8183.000000, 8168.000000
1512, 47598592.000000, 1450.000000, 8179.000000, 8199.000000, 8203.000000
1513, 47598752.000000, 1722.000000, 8192.000000, 8209.000000, 8226.000000
1514, 47598912.000000, 1930.000000, 8186.000000, 8206.000000, 8219.000000
1515, 47599072.000000, 2033.000000, 8185.000000, 8195.000000, 8201.000000
1516, 47599232.000000, 2047.000000, 8166.000000, 8179.000000, 8157.000000
1517, 47599392.000000, 1994.000000, 8163.000000, 8173.000000, 8149.000000
1518, 47599552.000000, 1897.000000, 8165.000000, 8175.000000, 8152.000000
1519, 47599712.000000, 1772.500000, 8156.000000, 8188.000000, 8159.000000
1520, 47599872.000000, 1639.000000, 8244.000000, 8210.000000, 8240.000000
1521, 47600032.000000, 1526.000000, 8482.000000, 7901.000000, 8065.000000
1522, 47600192.000000, 1459.000000, 8157.000000, 8025.000000, 7983.000000
1523, 47600352.000000, 1451.500000, 8176.000000, 8193.000000, 8180.000000
1524, 47600512.000000, 1487.000000, 8171.000000, 8217.000000, 8204.000000
1525, 47600672.000000, 1536.500000, 8171.000000, 8221.000000, 8206.000000
1526, 47600832.000000, 1579.000000, 8175.000000, 8222.000000, 8210.000000
1527, 47600992.000000, 1597.500000, 8179.000000, 8226.000000, 8215.000000
1528, 47601152.000000, 1579.000000, 8190.000000, 8232.000000, 8228.000000
1529, 47601312.000000, 1534.500000, 8199.000000, 8238.000000, 8240.000000
1530, 47601472.000000, 1478.000000, 8208.000000, 8245.000000, 8253.000000
1531, 47601632.000000, 1425.000000, 8209.000000, 8246.000000, 8254.000000
1532, 47601792.000000, 1378.000000, 8206.000000, 8248.000000, 8256.000000
1533, 47601952.000000, 1339.000000, 8202.000000, 8246.000000, 8256.000000
1534, 47602112.000000, 1305.000000, 8194.000000, 8233.000000, 8243.000000
1535, 47602272.000000, 1285.000000, 8178.000000, 8214.000000, 8214.000000
1536, 47602432.000000, 1268.000000, 8164.000000, 8200.000000, 8189.000000
1537, 47602592.000000, 1250.500000, 8160.000000, 8195.000000, 8181.000000
1538, 47602752.000000, 1238.000000, 8164.000000, 8196.000000, 8185.000000
1539, 47602912.000000, 1223.000000, 8168.000000, 8198.000000, 8189.000000
1540, 47603072.000000, 1209.000000, 8167.000000, 8196.000000, 8185.000000
1541, 47603232.000000, 1198.000000, 8168.000000, 8193.000000, 8184.000000
1542, 47603392.000000, 1182.000000, 8169.000000, 8191.000000, 8181.000000
1543, 47603552.000000, 1153.000000, 8168.000000, 8190.000000, 8181.000000
1544, 47603712.000000, 1120.000000, 8166.000000, 8189.000000, 8179.000000
1545, 47603872.000000, 1142.500000, 8164.000000, 8187.000000, 8174.000000
1546, 47604032.000000, 1288.000000, 8164.000000, 8184.000000, 8169.000000
1547, 47604192.000000, 1575.500000, 8165.000000, 8184.000000, 8171.000000
1548, 47604352.000000, 1901.000000, 8165.000000, 8185.000000, 8172.000000
1549, 47604512.000000, 2156.500000, 8166.000000, 8188.000000, 8176.000000
1550, 47604672.000000, 2304.000000, 8181.000000, 8205.000000, 8211.000000
1551, 47604832.000000, 2344.500000, 8192.000000, 8214.000000, 8235.000000
1552, 47604992.000000, 2311.000000, 8188.000000, 8205.000000, 8221.000000
1553, 47605152.000000, 2219.500000, 8172.000000, 8190.000000, 8182.000000
1554, 47605312.000000, 2098.000000, 8160.000000, 8182.000000, 8158.000000
1555, 47605472.000000, 1964.000000, 8161.000000, 8175.000000, 8150.000000
1556, 47605632.000000, 1836.000000, 8160.000000, 8174.000000, 8148.000000
1557, 47605792.000000, 1747.500000, 8144.000000, 8205.000000, 8172.000000
1558, 47605952.000000, 1715.000000, 8338.000000, 8173.000000, 8261.000000
1559, 47606112.000000, 1735.500000, 8462.000000, 7858.000000, 7991.000000
1560, 47606272.000000, 1780.000000, 8158.000000, 8107.000000, 8076.000000
1561, 47606432.000000, 1823.000000, 8169.000000, 8205.000000, 8189.000000
1562, 47606592.000000, 1849.000000, 8163.000000, 8218.000000, 8198.000000
1563, 47606752.000000, 1843.500000, 8166.000000, 8222.000000, 8204.000000
1564, 47606912.000000, 1811.000000, 8172.000000, 8227.000000, 8215.000000
1565, 47607072.000000, 1758.000000, 8177.000000, 8229.000000, 8218.000000
1566, 47607232.000000, 1697.000000, 8184.000000, 8233.000000, 8225.000000
1567, 47607392.000000, 1639.000000, 8193.000000, 8239.000000, 8237.000000
1568, 47607552.000000, 1585.000000, 8201.000000, 8247.000000, 8250.000000
1569, 47607712.000000, 1541.500000, 8204.000000, 8251.000000, 8258.000000
1570, 47607872.000000, 1503.000000, 8196.000000, 8249.000000, 8253.000000
1571, 47608032.000000, 1474.500000, 8190.000000, 8244.000000, 8248.000000
1572, 47608192.000000, 1450.000000, 8182.000000, 8230.000000, 8232.000000
1573, 47608352.000000, 1431.000000, 8167.000000, 8212.000000, 8205.000000
1574, 47608512.000000, 1413.000000, 8156.000000, 8202.000000, 8187.000000
1575, 47608672.000000, 1397.500000, 8153.000000, 8197.000000, 8178.000000
1576, 47608832.000000, 1380.000000, 8158.000000, 8196.000000, 8179.000000
1577, 47608992.000000, 1365.500000, 8162.000000, 8199.000000, 8186.000000
1578, 47609152.000000, 1354.000000, 8164.000000, 8197.000000, 8184.000000
1579, 47609312.000000, 1339.000000, 8166.000000, 8197.000000, 8187.000000
1580, 47609472.000000, 1320.000000, 8163.000000, 8195.000000, 8181.000000
1581, 47609632.000000, 1287.000000, 8163.000000, 8190.000000, 8176.000000
1582, 47609792.000000, 1259.000000, 8163.000000, 8189.000000, 8175.000000
1583, 47609952.000000, 1313.000000, 8160.000000, 8188.000000, 8172.000000
1584, 47610112.000000, 1515.000000, 8162.000000, 8188.000000, 8173.000000
1585, 47610272.000000, 1864.500000, 8162.000000, 8186.000000, 8169.000000
1586, 47610432.000000, 2220.000000, 8162.000000, 8184.000000, 8167.000000
1587, 47610592.000000, 2489.000000, 8167.000000, 8189.000000, 8176.000000
1588, 47610752.000000, 2634.000000, 8180.000000, 8206.000000, 8211.000000
1589, 47610912.000000, 2669.500000, 8194.000000, 8218.000000, 8242.000000
1590, 47611072.000000, 2624.000000, 8190.000000, 8206.000000, 8222.000000
1591, 47611232.000000, 2522.000000, 8171.000000, 8187.000000, 8176.000000
1592, 47611392.000000, 2393.000000, 8160.000000, 8177.000000, 8151.000000
1593, 47611552.000000, 2248.500000, 8161.000000, 8175.000000, 8148.000000
1594, 47611712.000000, 2116.000000, 8162.000000, 8177.000000, 8152.000000
1595, 47611872.000000, 2025.000000, 8142.000000, 8211.000000, 8177.000000
1596, 47612032.000000, 1992.000000, 8371.000000, 8133.000000, 8237.000000
1597, 47612192.000000, 2007.000000, 8440.000000, 7850.000000, 7962.000000
1598, 47612352.000000, 2044.000000, 8168.000000, 8134.000000, 8113.000000
1599, 47612512.000000, 2077.000000, 8171.000000, 8212.000000, 8197.000000
1600, 47612672.000000, 2091.000000, 8168.000000, 8222.000000, 8205.000000
1601, 47612832.000000, 2073.000000, 8168.000000, 8223.000000, 8206.000000
1602, 47612992.000000, 2029.000000, 8173.000000, 8227.000000, 8212.000000
1603, 47613152.000000, 1968.000000, 8181.000000, 8231.000000, 8221.000000
1604, 47613312.000000, 1899.000000, 8187.000000, 8237.000000, 8231.000000
1605, 47613472.000000, 1831.000000, 8197.000000, 8241.000000, 8241.000000
1606, 47613632.000000, 1767.000000, 8206.000000, 8244.000000, 8250.000000
1607, 47613792.000000, 1711.000000, 8206.000000, 8247.000000, 8255.000000
1608, 47613952.000000, 1664.000000, 8200.000000, 8248.000000, 8254.000000
1609, 47614112.000000, 1629.000000, 8198.000000, 8245.000000, 8254.000000
1610, 47614272.000000, 1598.000000, 8187.000000, 8228.000000, 8232.000000
1611, 47614432.000000, 1573.000000, 8173.000000, 8209.000000, 8204.000000
1612, 47614592.000000, 1548.000000, 8161.000000, 8197.000000, 8182.000000
1613, 47614752.000000, 1524.500000, 8162.000000, 8197.000000, 8184.000000
1614, 47614912.000000, 1501.000000, 8164.000000, 8198.000000, 8185.000000
1615, 47615072.000000, 1478.000000, 8169.000000, 8197.000000, 8187.000000
1616, 47615232.000000, 1461.000000, 8171.000000, 8196.000000, 8187.000000
1617, 47615392.000000, 1444.000000, 8172.000000, 8195.000000, 8185.000000
1618, 47615552.000000, 1420.000000, 8171.000000, 8192.000000, 8183.000000
1619, 47615712.000000, 1383.000000, 8172.000000, 8191.000000, 8181.000000
1620, 47615872.000000, 1348.000000, 8171.000000, 8187.000000, 8176.000000
1621, 47616032.000000, 1381.500000, 8171.000000, 8185.000000, 8174.000000
1622, 47616192.000000, 1567.000000, 8170.000000, 8185.000000, 8172.000000
1623, 47616352.000000, 1911.000000, 8172.000000, 8186.000000, 8176.000000
1624, 47616512.000000, 2300.000000, 8171.000000, 8186.000000, 8175.000000
1625, 47616672.000000, 2611.500000, 8174.000000, 8184.000000, 8173.000000
1626, 47616832.000000, 2808.000000, 8185.000000, 8196.000000, 8202.000000
1627, 47616992.000000, 2879.500000, 8197.000000, 8208.000000, 8226.000000
1628, 47617152.000000, 2850.000000, 8197.000000, 8207.000000, 8229.000000
1629, 47617312.000000, 2751.000000, 8194.000000, 8199.000000, 8213.000000
1630, 47617472.000000, 2611.000000, 8179.000000, 8180.000000, 8167.000000
1631, 47617632.000000, 2451.500000, 8172.000000, 8174.000000, 8154.000000
1632, 47617792.000000, 2299.000000, 8173.000000, 8172.000000, 8151.000000
1633, 47617952.000000, 2193.500000, 8171.000000, 8179.000000, 8156.000000
1634, 47618112.000000, 2147.000000, 8217.000000, 8208.000000, 8216.000000
1635, 47618272.000000, 2154.000000, 8499.000000, 7918.000000, 8088.000000
1636, 47618432.000000, 2186.000000, 8203.000000, 7984.000000, 7961.000000
1637, 47618592.000000, 2218.000000, 8196.000000, 8186.000000, 8182.000000
1638, 47618752.000000, 2234.000000, 8186.000000, 8214.000000, 8205.000000
1639, 47618912.000000, 2221.500000, 8186.000000, 8219.000000, 8212.000000
1640, 47619072.000000, 2180.000000, 8194.000000, 8222.000000, 8217.000000
1641, 47619232.000000, 2113.500000, 8198.000000, 8221.000000, 8218.000000
1642, 47619392.000000, 2037.000000, 8206.000000, 8227.000000, 8231.000000
1643, 47619552.000000, 1957.500000, 8215.000000, 8232.000000, 8242.000000
1644, 47619712.000000, 1883.000000, 8227.000000, 8238.000000, 8254.000000
1645, 47619872.000000, 1816.500000, 8229.000000, 8238.000000, 8256.000000
1646, 47620032.000000, 1757.000000, 8228.000000, 8238.000000, 8255.000000
1647, 47620192.000000, 1708.500000, 8223.000000, 8239.000000, 8257.000000
1648, 47620352.000000, 1666.000000, 8221.000000, 8232.000000, 8254.000000
1649, 47620512.000000, 1631.000000, 8205.000000, 8214.000000, 8226.000000
1650, 47620672.000000, 1599.000000, 8191.000000, 8195.000000, 8199.000000
1651, 47620832.000000, 1569.000000, 8183.000000, 8188.000000, 8185.000000
1652, 47620992.000000, 1539.000000, 8187.000000, 8188.000000, 8188.000000
1653, 47621152.000000, 1509.500000, 8192.000000, 8190.000000, 8193.000000
1654, 47621312.000000, 1484.000000, 8193.000000, 8187.000000, 8193.000000
1655, 47621472.000000, 1458.000000, 8195.000000, 8186.000000, 8189.000000
1656, 47621632.000000, 1432.000000, 8196.000000, 8181.000000, 8185.000000
1657, 47621792.000000, 1392.000000, 8198.000000, 8180.000000, 8185.000000
1658, 47621952.000000, 1339.000000, 8194.000000, 8179.000000, 8185.000000
1659, 47622112.000000, 1294.500000, 8195.000000, 8179.000000, 8182.000000
1660, 47622272.000000, 1334.000000, 8189.000000, 8175.000000, 8176.000000
1661, 47622432.000000, 1543.000000, 8194.000000, 8174.000000, 8174.000000
1662, 47622592.000000, 1912.000000, 8196.000000, 8176.000000, 8172.000000
1663, 47622752.000000, 2320.000000, 8205.000000, 8186.000000, 8202.000000
1664, 47622912.000000, 2658.000000, 8214.000000, 8197.000000, 8223.000000
1665, 47623072.000000, 2856.500000, 8216.000000, 8197.000000, 8224.000000
1666, 47623232.000000, 2933.000000, 8211.000000, 8183.000000, 8205.000000
1667, 47623392.000000, 2889.500000, 8197.000000, 8171.000000, 8168.000000
1668, 47623552.000000, 2765.000000, 8193.000000, 8167.000000, 8161.000000
1669, 47623712.000000, 2589.500000, 8189.000000, 8166.000000, 8159.000000
1670, 47623872.000000, 2393.000000, 8186.000000, 8170.000000, 8157.000000
1671, 47624032.000000, 2218.500000, 8242.000000, 8201.000000, 8225.000000
1672, 47624192.000000, 2098.000000, 8495.000000, 8009.000000, 8184.000000
1673, 47624352.000000, 2060.000000, 8196.000000, 8002.000000, 7998.000000
1674, 47624512.000000, 2082.000000, 8193.000000, 8160.000000, 8158.000000
1675, 47624672.000000, 2138.500000, 8192.000000, 8195.000000, 8190.000000
1676, 47624832.000000, 2193.000000, 8191.000000, 8199.000000, 8196.000000
1677, 47624992.000000, 2220.000000, 8195.000000, 8206.000000, 8203.000000
1678, 47625152.000000, 2205.000000, 8204.000000, 8209.000000, 8212.000000
1679, 47625312.000000, 2152.000000, 8210.000000, 8213.000000, 8222.000000
1680, 47625472.000000, 2076.000000, 8218.000000, 8218.000000, 8230.000000
1681, 47625632.000000, 1988.000000, 8229.000000, 8222.000000, 8236.000000
1682, 47625792.000000, 1899.000000, 8233.000000, 8223.000000, 8243.000000
1683, 47625952.000000, 1821.000000, 8235.000000, 8228.000000, 8250.000000
1684, 47626112.000000, 1758.000000, 8224.000000, 8229.000000, 8247.000000
1685, 47626272.000000, 1706.500000, 8215.000000, 8220.000000, 8240.000000
1686, 47626432.000000, 1664.000000, 8199.000000, 8204.000000, 8214.000000
1687, 47626592.000000, 1626.500000, 8179.000000, 8192.000000, 8192.000000
1688, 47626752.000000, 1596.000000, 8171.000000, 8189.000000, 8184.000000
1689, 47626912.000000, 1570.500000, 8167.000000, 8190.000000, 8185.000000
1690, 47627072.000000, 1550.000000, 8175.000000, 8189.000000, 8187.000000
1691, 47627232.000000, 1534.500000, 8178.000000, 8186.000000, 8182.000000
1692, 47627392.000000, 1520.000000, 8183.000000, 8185.000000, 8186.000000
1693, 47627552.000000, 1500.500000, 8184.000000, 8187.000000, 8187.000000
1694, 47627712.000000, 1469.000000, 8181.000000, 8185.000000, 8183.000000
1695, 47627872.000000, 1425.500000, 8179.000000, 8183.000000, 8178.000000
1696, 47628032.000000, 1379.000000, 8175.000000, 8180.000000, 8174.000000
1697, 47628192.000000, 1354.000000, 8175.000000, 8179.000000, 8173.000000
1698, 47628352.000000, 1418.000000, 8178.000000, 8188.000000, 8188.000000
1699, 47628512.000000, 1644.500000, 8188.000000, 8200.000000, 8212.000000
1700, 47628672.000000, 2001.000000, 8197.000000, 8206.000000, 8228.000000
1701, 47628832.000000, 2385.000000, 8198.000000, 8196.000000, 8217.000000
1702, 47628992.000000, 2697.000000, 8176.000000, 8178.000000, 8169.000000
1703, 47629152.000000, 2877.500000, 8172.000000, 8174.000000, 8158.000000
1704, 47629312.000000, 2931.000000, 8168.000000, 8170.000000, 8155.000000
1705, 47629472.000000, 2862.000000, 8172.000000, 8171.000000, 8153.000000
1706, 47629632.000000, 2715.000000, 8166.000000, 8216.000000, 8200.000000
1707, 47629792.000000, 2515.000000, 8451.000000, 8126.000000, 8266.000000
1708, 47629952.000000, 2300.000000, 8321.000000, 7968.000000, 8029.000000
1709, 47630112.000000, 2113.500000, 8157.000000, 8126.000000, 8100.000000
1710, 47630272.000000, 1998.000000, 8173.000000, 8195.000000, 8180.000000
1711, 47630432.000000, 1972.000000, 8173.000000, 8203.000000, 8188.000000
1712, 47630592.000000, 2011.000000, 8176.000000, 8207.000000, 8194.000000
1713, 47630752.000000, 2090.000000, 8183.000000, 8212.000000, 8203.000000
1714, 47630912.000000, 2166.000000, 8194.000000, 8217.000000, 8214.000000
1715, 47631072.000000, 2210.000000, 8199.000000, 8220.000000, 8218.000000
1716, 47631232.000000, 2209.000000, 8211.000000, 8223.000000, 8227.000000
1717, 47631392.000000, 2167.500000, 8222.000000, 8230.000000, 8239.000000
1718, 47631552.000000, 2093.000000, 8220.000000, 8238.000000, 8248.000000
1719, 47631712.000000, 2001.500000, 8215.000000, 8237.000000, 8247.000000
1720, 47631872.000000, 1911.000000, 8204.000000, 8231.000000, 8242.000000
1721, 47632032.000000, 1831.000000, 8190.000000, 8214.000000, 8218.000000
1722, 47632192.000000, 1762.000000, 8171.000000, 8201.000000, 8194.000000
1723, 47632352.000000, 1708.000000, 8160.000000, 8193.000000, 8181.000000
1724, 47632512.000000, 1669.000000, 8157.000000, 8194.000000, 8182.000000
1725, 47632672.000000, 1637.500000, 8162.000000, 8194.000000, 8181.000000
1726, 47632832.000000, 1613.000000, 8164.000000, 8193.000000, 8180.000000
1727, 47632992.000000, 1593.000000, 8170.000000, 8190.000000, 8181.000000
1728, 47633152.000000, 1569.000000, 8171.000000, 8190.000000, 8183.000000
1729, 47633312.000000, 1531.500000, 8171.000000, 8188.000000, 8179.000000
1730, 47633472.000000, 1486.000000, 8168.000000, 8186.000000, 8175.000000
1731, 47633632.000000, 1436.500000, 8164.000000, 8185.000000, 8172.000000
1732, 47633792.000000, 1407.000000, 8164.000000, 8184.000000, 8171.000000
1733, 47633952.000000, 1460.000000, 8166.000000, 8185.000000, 8173.000000
1734, 47634112.000000, 1669.000000, 8173.000000, 8193.000000, 8188.000000
1735, 47634272.000000, 2041.500000, 8176.000000, 8202.000000, 8204.000000
1736, 47634432.000000, 2469.000000, 8189.000000, 8210.000000, 8227.000000
1737, 47634592.000000, 2829.500000, 8188.000000, 8202.000000, 8216.000000
1738, 47634752.000000, 3064.000000, 8170.000000, 8185.000000, 8172.000000
1739, 47634912.000000, 3146.000000, 8162.000000, 8179.000000, 8158.000000
1740, 47635072.000000, 3095.000000, 8160.000000, 8173.000000, 8149.000000
1741, 47635232.000000, 2943.000000, 8161.000000, 8173.000000, 8150.000000
1742, 47635392.000000, 2729.000000, 8148.000000, 8223.000000, 8197.000000
1743, 47635552.000000, 2486.500000, 8421.000000, 8123.000000, 8245.000000
1744, 47635712.000000, 2262.000000, 8370.000000, 7932.000000, 8010.000000
1745, 47635872.000000, 2113.000000, 8158.000000, 8132.000000, 8103.000000
1746, 47636032.000000, 2051.000000, 8163.000000, 8200.000000, 8180.000000
1747, 47636192.000000, 2073.500000, 8167.000000, 8211.000000, 8194.000000
1748, 47636352.000000, 2139.000000, 8169.000000, 8218.000000, 8202.000000
1749, 47636512.000000, 2211.500000, 8177.000000, 8221.000000, 8208.000000
1750, 47636672.000000, 2260.000000, 8182.000000, 8223.000000, 8214.000000
1751, 47636832.000000, 2265.000000, 8192.000000, 8229.000000, 8224.000000
1752, 47636992.000000, 2227.000000, 8203.000000, 8236.000000, 8238.000000
1753, 47637152.000000, 2149.000000, 8211.000000, 8245.000000, 8251.000000
1754, 47637312.000000, 2051.000000, 8212.000000, 8251.000000, 8261.000000
1755, 47637472.000000, 1947.000000, 8208.000000, 8252.000000, 8260.000000
1756, 47637632.000000, 1851.000000, 8201.000000, 8240.000000, 8249.000000
1757, 47637792.000000, 1768.500000, 8188.000000, 8221.000000, 8225.000000
1758, 47637952.000000, 1703.000000, 8168.000000, 8205.000000, 8198.000000
1759, 47638112.000000, 1655.000000, 8156.000000, 8199.000000, 8182.000000
1760, 47638272.000000, 1620.000000, 8158.000000, 8196.000000, 8179.000000
1761, 47638432.000000, 1593.000000, 8159.000000, 8193.000000, 8178.000000
1762, 47638592.000000, 1568.000000, 8164.000000, 8195.000000, 8182.000000
1763, 47638752.000000, 1546.500000, 8167.000000, 8195.000000, 8182.000000
1764, 47638912.000000, 1519.000000, 8166.000000, 8194.000000, 8182.000000
1765, 47639072.000000, 1482.000000, 8164.000000, 8191.000000, 8176.000000
1766, 47639232.000000, 1430.000000, 8164.000000, 8188.000000, 8173.000000
1767, 47639392.000000, 1386.500000, 8162.000000, 8186.000000, 8171.000000
1768, 47639552.000000, 1414.000000, 8163.000000, 8187.000000, 8171.000000
1769, 47639712.000000, 1655.000000, 8161.000000, 8187.000000, 8170.000000
1770, 47639872.000000, 2108.000000, 8160.000000, 8185.000000, 8169.000000
1771, 47640032.000000, 2671.500000, 8161.000000, 8184.000000, 8167.000000
1772, 47640192.000000, 3173.000000, 8163.000000, 8184.000000, 8168.000000
1773, 47640352.000000, 3514.500000, 8176.000000, 8199.000000, 8201.000000
1774, 47640512.000000, 3663.000000, 8184.000000, 8212.000000, 8222.000000
1775, 47640672.000000, 3622.500000, 8186.000000, 8207.000000, 8220.000000
1776, 47640832.000000, 3461.000000, 8180.000000, 8196.000000, 8199.000000
1777, 47640992.000000, 3218.000000, 8163.000000, 8181.000000, 8161.000000
1778, 47641152.000000, 2950.000000, 8163.000000, 8178.000000, 8156.000000
1779, 47641312.000000, 2684.500000, 8162.000000, 8176.000000, 8153.000000
1780, 47641472.000000, 2470.000000, 8153.000000, 8186.000000, 8155.000000
1781, 47641632.000000, 2341.000000, 8204.000000, 8207.000000, 8212.000000
1782, 47641792.000000, 2297.000000, 8485.000000, 7909.000000, 8069.000000
1783, 47641952.000000, 2314.500000, 8191.000000, 8002.000000, 7975.000000
1784, 47642112.000000, 2352.000000, 8172.000000, 8189.000000, 8175.000000
1785, 47642272.000000, 2369.500000, 8162.000000, 8217.000000, 8196.000000
1786, 47642432.000000, 2359.000000, 8167.000000, 8218.000000, 8201.000000
1787, 47642592.000000, 2302.500000, 8172.000000, 8224.000000, 8210.000000
1788, 47642752.000000, 2208.000000, 8179.000000, 8229.000000, 8218.000000
1789, 47642912.000000, 2092.000000, 8184.000000, 8233.000000, 8227.000000
1790, 47643072.000000, 1963.000000, 8191.000000, 8238.000000, 8235.000000
1791, 47643232.000000, 1837.500000, 8202.000000, 8246.000000, 8250.000000
1792, 47643392.000000, 1721.000000, 8214.000000, 8254.000000, 8264.000000
1793, 47643552.000000, 1624.500000, 8211.000000, 8259.000000, 8271.000000
1794, 47643712.000000, 1548.000000, 8204.000000, 8259.000000, 8270.000000
1795, 47643872.000000, 1489.000000, 8197.000000, 8241.000000, 8251.000000
1796, 47644032.000000, 1441.000000, 8176.000000, 8215.000000, 8212.000000
1797, 47644192.000000, 1400.000000, 8160.000000, 8202.000000, 8188.000000
1798, 47644352.000000, 1361.000000, 8152.000000, 8196.000000, 8177.000000
1799, 47644512.000000, 1324.500000, 8155.000000, 8195.000000, 8174.000000
1800, 47644672.000000, 1289.000000, 8157.000000, 8195.000000, 8177.000000
1801, 47644832.000000, 1254.500000, 8161.000000, 8195.000000, 8178.000000
1802, 47644992.000000, 1224.000000, 8164.000000, 8194.000000, 8181.000000
1803, 47645152.000000, 1188.000000, 8161.000000, 8194.000000, 8179.000000
1804, 47645312.000000, 1132.000000, 8161.000000, 8195.000000, 8180.000000
1805, 47645472.000000, 1064.000000, 8161.000000, 8191.000000, 8174.000000
1806, 47645632.000000, 1057.000000, 8159.000000, 8189.000000, 8172.000000
1807, 47645792.000000, 1261.000000, 8158.000000, 8187.000000, 8168.000000
1808, 47645952.000000, 1699.000000, 8158.000000, 8187.000000, 8168.000000
1809, 47646112.000000, 2279.000000, 8159.000000, 8186.000000, 8169.000000
1810, 47646272.000000, 2810.000000, 8161.000000, 8186.000000, 8169.000000
1811, 47646432.000000, 3173.000000, 8161.000000, 8185.000000, 8166.000000
1812, 47646592.000000, 3338.000000, 8161.000000, 8185.000000, 8168.000000
1813, 47646752.000000, 3326.000000, 8160.000000, 8186.000000, 8168.000000
1814, 47646912.000000, 3194.000000, 8165.000000, 8188.000000, 8173.000000
1815, 47647072.000000, 2996.500000, 8163.000000, 8186.000000, 8170.000000
1816, 47647232.000000, 2776.000000, 8172.000000, 8192.000000, 8184.000000
1817, 47647392.000000, 2550.500000, 8179.000000, 8205.000000, 8209.000000
1818, 47647552.000000, 2340.000000, 8188.000000, 8210.000000, 8224.000000
1819, 47647712.000000, 2179.500000, 8181.000000, 8197.000000, 8199.000000
1820, 47647872.000000, 2087.000000, 8169.000000, 8186.000000, 8170.000000
1821, 47648032.000000, 2048.000000, 8161.000000, 8178.000000, 8155.000000
1822, 47648192.000000, 2038.000000, 8165.000000, 8179.000000, 8158.000000
1823, 47648352.000000, 2029.000000, 8162.000000, 8181.000000, 8160.000000
1824, 47648512.000000, 2006.000000, 8148.000000, 8224.000000, 8200.000000
1825, 47648672.000000, 1952.000000, 8447.000000, 7982.000000, 8121.000000
1826, 47648832.000000, 1871.000000, 8353.000000, 7884.000000, 7932.000000
1827, 47648992.000000, 1773.000000, 8179.000000, 8175.000000, 8166.000000
1828, 47649152.000000, 1666.000000, 8166.000000, 8223.000000, 8207.000000
1829, 47649312.000000, 1560.500000, 8163.000000, 8230.000000, 8214.000000
1830, 47649472.000000, 1464.000000, 8168.000000, 8233.000000, 8220.000000
1831, 47649632.000000, 1379.500000, 8173.000000, 8234.000000, 8223.000000
1832, 47649792.000000, 1310.000000, 8182.000000, 8240.000000, 8235.000000
1833, 47649952.000000, 1254.000000, 8189.000000, 8247.000000, 8248.000000
1834, 47650112.000000, 1209.000000, 8198.000000, 8254.000000, 8259.000000
1835, 47650272.000000, 1173.500000, 8206.000000, 8259.000000, 8271.000000
1836, 47650432.000000, 1140.000000, 8211.000000, 8263.000000, 8277.000000
1837, 47650592.000000, 1111.500000, 8208.000000, 8267.000000, 8283.000000
1838, 47650752.000000, 1082.000000, 8200.000000, 8257.000000, 8273.000000
1839, 47650912.000000, 1055.500000, 8185.000000, 8232.000000, 8238.000000
1840, 47651072.000000, 1029.000000, 8164.000000, 8209.000000, 8200.000000
1841, 47651232.000000, 1002.500000, 8151.000000, 8199.000000, 8179.000000
1842, 47651392.000000, 977.000000, 8151.000000, 8195.000000, 8175.000000
1843, 47651552.000000, 953.000000, 8154.000000, 8197.000000, 8179.000000
1844, 47651712.000000, 930.000000, 8157.000000, 8198.000000, 8182.000000
1845, 47651872.000000, 909.000000, 8162.000000, 8196.000000, 8183.000000
1846, 47652032.000000, 885.000000, 8161.000000, 8194.000000, 8179.000000
1847, 47652192.000000, 850.500000, 8162.000000, 8193.000000, 8182.000000
1848, 47652352.000000, 804.000000, 8162.000000, 8192.000000, 8179.000000
1849, 47652512.000000, 794.500000, 8161.000000, 8190.000000, 8175.000000
1850, 47652672.000000, 933.000000, 8161.000000, 8186.000000, 8171.000000
1851, 47652832.000000, 1314.000000, 8161.000000, 8185.000000, 8168.000000
1852, 47652992.000000, 1852.000000, 8162.000000, 8184.000000, 8169.000000
1853, 47653152.000000, 2375.500000, 8163.000000, 8186.000000, 8172.000000
1854, 47653312.000000, 2762.000000, 8163.000000, 8185.000000, 8169.000000
1855, 47653472.000000, 2958.500000, 8164.000000, 8183.000000, 8168.000000
1856, 47653632.000000, 3004.000000, 8163.000000, 8183.000000, 8165.000000
1857, 47653792.000000, 2922.500000, 8163.000000, 8185.000000, 8169.000000
1858, 47653952.000000, 2785.000000, 8166.000000, 8186.000000, 8172.000000
1859, 47654112.000000, 2622.000000, 8168.000000, 8186.000000, 8173.000000
1860, 47654272.000000, 2445.000000, 8168.000000, 8184.000000, 8171.000000
1861, 47654432.000000, 2270.000000, 8173.000000, 8188.000000, 8179.000000
1862, 47654592.000000, 2114.000000, 8186.000000, 8205.000000, 8214.000000
1863, 47654752.000000, 2010.500000, 8192.000000, 8208.000000, 8225.000000
1864, 47654912.000000, 1958.000000, 8188.000000, 8198.000000, 8206.000000
1865, 47655072.000000, 1940.500000, 8177.000000, 8186.000000, 8177.000000
1866, 47655232.000000, 1933.000000, 8168.000000, 8178.000000, 8159.000000
1867, 47655392.000000, 1918.000000, 8167.000000, 8177.000000, 8158.000000
1868, 47655552.000000, 1885.000000, 8167.000000, 8179.000000, 8160.000000
1869, 47655712.000000, 1830.000000, 8143.000000, 8216.000000, 8187.000000
1870, 47655872.000000, 1754.000000, 8356.000000, 8116.000000, 8216.000000
1871, 47656032.000000, 1669.500000, 8478.000000, 7815.000000, 7943.000000
1872, 47656192.000000, 1585.000000, 8179.000000, 8138.000000, 8125.000000
1873, 47656352.000000, 1504.000000, 8173.000000, 8221.000000, 8210.000000
1874, 47656512.000000, 1428.000000, 8169.000000, 8231.000000, 8219.000000
1875, 47656672.000000, 1365.000000, 8172.000000, 8232.000000, 8220.000000
1876, 47656832.000000, 1311.000000, 8176.000000, 8233.000000, 8224.000000
1877, 47656992.000000, 1268.000000, 8183.000000, 8239.000000, 8236.000000
1878, 47657152.000000, 1238.000000, 8189.000000, 8244.000000, 8245.000000
1879, 47657312.000000, 1213.000000, 8200.000000, 8250.000000, 8258.000000
1880, 47657472.000000, 1189.000000, 8209.000000, 8255.000000, 8269.000000
1881, 47657632.000000, 1167.500000, 8215.000000, 8259.000000, 8277.000000
1882, 47657792.000000, 1146.000000, 8212.000000, 8262.000000, 8280.000000
1883, 47657952.000000, 1127.500000, 8206.000000, 8260.000000, 8278.000000
1884, 47658112.000000, 1109.000000, 8192.000000, 8239.000000, 8250.000000
1885, 47658272.000000, 1094.000000, 8173.000000, 8213.000000, 8210.000000
1886, 47658432.000000, 1076.000000, 8159.000000, 8197.000000, 8184.000000
1887, 47658592.000000, 1057.500000, 8153.000000, 8194.000000, 8175.000000
1888, 47658752.000000, 1037.000000, 8155.000000, 8196.000000, 8179.000000
1889, 47658912.000000, 1017.500000, 8159.000000, 8197.000000, 8182.000000
1890, 47659072.000000, 1000.000000, 8164.000000, 8195.000000, 8182.000000
1891, 47659232.000000, 983.500000, 8167.000000, 8195.000000, 8184.000000
1892, 47659392.000000, 964.000000, 8164.000000, 8193.000000, 8180.000000
1893, 47659552.000000, 937.000000, 8167.000000, 8192.000000, 8181.000000
1894, 47659712.000000, 903.000000, 8167.000000, 8189.000000, 8176.000000
1895, 47659872.000000, 934.000000, 8166.000000, 8186.000000, 8172.000000
1896, 47660032.000000, 1115.000000, 8166.000000, 8183.000000, 8169.000000
1897, 47660192.000000, 1515.500000, 8167.000000, 8184.000000, 8169.000000
1898, 47660352.000000, 2003.000000, 8167.000000, 8185.000000, 8170.000000
1899, 47660512.000000, 2439.500000, 8168.000000, 8184.000000, 8171.000000
1900, 47660672.000000, 2730.000000, 8169.000000, 8183.000000, 8169.000000
1901, 47660832.000000, 2866.500000, 8171.000000, 8183.000000, 8170.000000
1902, 47660992.000000, 2873.000000, 8171.000000, 8184.000000, 8171.000000
1903, 47661152.000000, 2786.500000, 8172.000000, 8185.000000, 8173.000000
1904, 47661312.000000, 2656.000000, 8174.000000, 8186.000000, 8175.000000
1905, 47661472.000000, 2507.500000, 8175.000000, 8184.000000, 8172.000000
1906, 47661632.000000, 2353.000000, 8174.000000, 8184.000000, 8171.000000
1907, 47661792.000000, 2206.500000, 8176.000000, 8186.000000, 8175.000000
1908, 47661952.000000, 2095.000000, 8189.000000, 8200.000000, 8207.000000
1909, 47662112.000000, 2035.500000, 8192.000000, 8208.000000, 8221.000000
1910, 47662272.000000, 2018.000000, 8198.000000, 8204.000000, 8221.000000
1911, 47662432.000000, 2023.500000, 8193.000000, 8191.000000, 8193.000000
1912, 47662592.000000, 2031.000000, 8177.000000, 8182.000000, 8169.000000
1913, 47662752.000000, 2021.000000, 8175.000000, 8180.000000, 8164.000000
1914, 47662912.000000, 1988.000000, 8176.000000, 8179.000000, 8162.000000
1915, 47663072.000000, 1928.500000, 8171.000000, 8183.000000, 8164.000000
1916, 47663232.000000, 1854.000000, 8190.000000, 8208.000000, 8204.000000
1917, 47663392.000000, 1773.500000, 8507.000000, 7910.000000, 8087.000000
1918, 47663552.000000, 1697.000000, 8244.000000, 7972.000000, 7968.000000
1919, 47663712.000000, 1630.500000, 8190.000000, 8196.000000, 8194.000000
1920, 47663872.000000, 1572.000000, 8178.000000, 8223.000000, 8213.000000
1921, 47664032.000000, 1520.000000, 8175.000000, 8228.000000, 8216.000000
1922, 47664192.000000, 1476.000000, 8181.000000, 8233.000000, 8225.000000
1923, 47664352.000000, 1441.500000, 8185.000000, 8236.000000, 8231.000000
1924, 47664512.000000, 1412.000000, 8191.000000, 8240.000000, 8240.000000
1925, 47664672.000000, 1390.500000, 8198.000000, 8243.000000, 8244.000000
1926, 47664832.000000, 1372.000000, 8207.000000, 8249.000000, 8256.000000
1927, 47664992.000000, 1354.500000, 8217.000000, 8256.000000, 8270.000000
1928, 47665152.000000, 1342.000000, 8220.000000, 8259.000000, 8277.000000
1929, 47665312.000000, 1328.500000, 8214.000000, 8257.000000, 8273.000000
1930, 47665472.000000, 1317.000000, 8206.000000, 8248.000000, 8264.000000
1931, 47665632.000000, 1308.000000, 8189.000000, 8225.000000, 8230.000000
1932, 47665792.000000, 1297.000000, 8171.000000, 8206.000000, 8199.000000
1933, 47665952.000000, 1285.000000, 8159.000000, 8197.000000, 8182.000000
1934, 47666112.000000, 1270.000000, 8162.000000, 8196.000000, 8181.000000
1935, 47666272.000000, 1252.500000, 8163.000000, 8195.000000, 8179.000000
1936, 47666432.000000, 1237.000000, 8170.000000, 8196.000000, 8185.000000
1937, 47666592.000000, 1225.000000, 8172.000000, 8196.000000, 8186.000000
1938, 47666752.000000, 1215.000000, 8173.000000, 8195.000000, 8186.000000
1939, 47666912.000000, 1199.000000, 8174.000000, 8193.000000, 8186.000000
1940, 47667072.000000, 1173.000000, 8172.000000, 8189.000000, 8177.000000
1941, 47667232.000000, 1138.500000, 8172.000000, 8187.000000, 8175.000000
1942, 47667392.000000, 1139.000000, 8172.000000, 8184.000000, 8172.000000
1943, 47667552.000000, 1294.500000, 8173.000000, 8184.000000, 8173.000000
1944, 47667712.000000, 1631.000000, 8174.000000, 8184.000000, 8173.000000
1945, 47667872.000000, 2085.000000, 8172.000000, 8182.000000, 8168.000000
1946, 47668032.000000, 2504.000000, 8171.000000, 8182.000000, 8167.000000
1947, 47668192.000000, 2791.000000, 8175.000000, 8184.000000, 8174.000000
1948, 47668352.000000, 2928.000000, 8173.000000, 8185.000000, 8172.000000
1949, 47668512.000000, 2935.500000, 8177.000000, 8186.000000, 8175.000000
1950, 47668672.000000, 2848.000000, 8173.000000, 8184.000000, 8169.000000
1951, 47668832.000000, 2702.500000, 8176.000000, 8183.000000, 8170.000000
1952, 47668992.000000, 2541.000000, 8178.000000, 8184.000000, 8174.000000
1953, 47669152.000000, 2374.500000, 8179.000000, 8186.000000, 8175.000000
1954, 47669312.000000, 2226.000000, 8183.000000, 8188.000000, 8183.000000
1955, 47669472.000000, 2127.000000, 8194.000000, 8203.000000, 8213.000000
1956, 47669632.000000, 2085.000000, 8200.000000, 8205.000000, 8223.000000
1957, 47669792.000000, 2086.000000, 8198.000000, 8198.000000, 8211.000000
1958, 47669952.000000, 2108.000000, 8188.000000, 8187.000000, 8182.000000
1959, 47670112.000000, 2126.000000, 8177.000000, 8179.000000, 8164.000000
1960, 47670272.000000, 2126.000000, 8176.000000, 8177.000000, 8160.000000
1961, 47670432.000000, 2093.000000, 8179.000000, 8176.000000, 8159.000000
1962, 47670592.000000, 2035.000000, 8154.000000, 8208.000000, 8180.000000
1963, 47670752.000000, 1959.000000, 8359.000000, 8168.000000, 8270.000000
1964, 47670912.000000, 1877.000000, 8481.000000, 7863.000000, 8005.000000
1965, 47671072.000000, 1800.000000, 8178.000000, 8120.000000, 8102.000000
1966, 47671232.000000, 1728.000000, 8185.000000, 8212.000000, 8205.000000
1967, 47671392.000000, 1668.500000, 8179.000000, 8224.000000, 8213.000000
1968, 47671552.000000, 1618.000000, 8181.000000, 8229.000000, 8221.000000
1969, 47671712.000000, 1574.500000, 8185.000000, 8231.000000, 8224.000000
1970, 47671872.000000, 1541.000000, 8191.000000, 8232.000000, 8227.000000
1971, 47672032.000000, 1514.000000, 8199.000000, 8236.000000, 8236.000000
1972, 47672192.000000, 1490.000000, 8207.000000, 8243.000000, 8250.000000
1973, 47672352.000000, 1467.000000, 8219.000000, 8250.000000, 8265.000000
1974, 47672512.000000, 1442.000000, 8219.000000, 8253.000000, 8268.000000
1975, 47672672.000000, 1421.500000, 8221.000000, 8251.000000, 8269.000000
1976, 47672832.000000, 1405.000000, 8213.000000, 8249.000000, 8266.000000
1977, 47672992.000000, 1390.500000, 8206.000000, 8235.000000, 8249.000000
1978, 47673152.000000, 1376.000000, 8189.000000, 8215.000000, 8220.000000
1979, 47673312.000000, 1361.000000, 8175.000000, 8200.000000, 8192.000000
1980, 47673472.000000, 1344.000000, 8169.000000, 8192.000000, 8180.000000
1981, 47673632.000000, 1324.000000, 8175.000000, 8192.000000, 8184.000000
1982, 47673792.000000, 1304.000000, 8182.000000, 8194.000000, 8189.000000
1983, 47673952.000000, 1289.000000, 8184.000000, 8195.000000, 8193.000000
1984, 47674112.000000, 1273.000000, 8186.000000, 8193.000000, 8190.000000
1985, 47674272.000000, 1259.000000, 8188.000000, 8189.000000, 8186.000000
1986, 47674432.000000, 1243.000000, 8187.000000, 8186.000000, 8182.000000
1987, 47674592.000000, 1217.000000, 8185.000000, 8183.000000, 8178.000000
1988, 47674752.000000, 1181.000000, 8186.000000, 8184.000000, 8181.000000
1989, 47674912.000000, 1171.000000, 8185.000000, 8183.000000, 8176.000000
1990, 47675072.000000, 1271.000000, 8187.000000, 8179.000000, 8173.000000
1991, 47675232.000000, 1562.000000, 8189.000000, 8178.000000, 8173.000000
1992, 47675392.000000, 1980.000000, 8188.000000, 8180.000000, 8175.000000
1993, 47675552.000000, 2400.500000, 8191.000000, 8181.000000, 8176.000000
1994, 47675712.000000, 2724.000000, 8190.000000, 8179.000000, 8175.000000
1995, 47675872.000000, 2901.000000, 8191.000000, 8177.000000, 8174.000000
1996, 47676032.000000, 2941.000000, 8194.000000, 8178.000000, 8175.000000
1997, 47676192.000000, 2872.500000, 8196.000000, 8176.000000, 8174.000000
1998, 47676352.000000, 2731.000000, 8196.000000, 8179.000000, 8179.000000
1999, 47676512.000000, 2552.000000, 8200.000000, 8182.000000, 8186.000000
2000, 47676672.000000, 2362.000000, 8211.000000, 8193.000000, 8209.000000
2001, 47676832.000000, 2194.500000, 8217.000000, 8198.000000, 8226.000000
2002, 47676992.000000, 2084.000000, 8215.000000, 8189.000000, 8211.000000
2003, 47677152.000000, 2046.500000, 8205.000000, 8179.000000, 8183.000000
2004, 47677312.000000, 2065.000000, 8192.000000, 8172.000000, 8167.000000
2005, 47677472.000000, 2113.000000, 8195.000000, 8170.000000, 8165.000000
2006, 47677632.000000, 2160.000000, 8192.000000, 8168.000000, 8163.000000
2007, 47677792.000000, 2178.000000, 8178.000000, 8210.000000, 8200.000000
2008, 47677952.000000, 2162.000000, 8430.000000, 8153.000000, 8285.000000
2009, 47678112.000000, 2108.000000, 8435.000000, 7923.000000, 8044.000000
2010, 47678272.000000, 2034.000000, 8181.000000, 8110.000000, 8094.000000
2011, 47678432.000000, 1950.500000, 8200.000000, 8195.000000, 8195.000000
2012, 47678592.000000, 1867.000000, 8195.000000, 8207.000000, 8208.000000
2013, 47678752.000000, 1796.000000, 8199.000000, 8211.000000, 8213.000000
2014, 47678912.000000, 1734.000000, 8200.000000, 8214.000000, 8214.000000
2015, 47679072.000000, 1681.500000, 8205.000000, 8216.000000, 8220.000000
2016, 47679232.000000, 1637.000000, 8215.000000, 8221.000000, 8229.000000
2017, 47679392.000000, 1601.000000, 8227.000000, 8227.000000, 8243.000000
2018, 47679552.000000, 1570.000000, 8234.000000, 8233.000000, 8252.000000
2019, 47679712.000000, 1544.000000, 8236.000000, 8236.000000, 8258.000000
2020, 47679872.000000, 1521.000000, 8233.000000, 8235.000000, 8257.000000
2021, 47680032.000000, 1501.500000, 8226.000000, 8233.000000, 8253.000000
2022, 47680192.000000, 1485.000000, 8215.000000, 8219.000000, 8239.000000
2023, 47680352.000000, 1470.500000, 8190.000000, 8202.000000, 8208.000000
2024, 47680512.000000, 1456.000000, 8173.000000, 8191.000000, 8184.000000
2025, 47680672.000000, 1443.000000, 8167.000000, 8187.000000, 8176.000000
2026, 47680832.000000, 1430.000000, 8171.000000, 8187.000000, 8178.000000
2027, 47680992.000000, 1414.500000, 8174.000000, 8190.000000, 8183.000000
2028, 47681152.000000, 1399.000000, 8177.000000, 8190.000000, 8185.000000
2029, 47681312.000000, 1382.000000, 8181.000000, 8186.000000, 8184.000000
2030, 47681472.000000, 1367.000000, 8182.000000, 8184.000000, 8179.000000
2031, 47681632.000000, 1344.500000, 8180.000000, 8181.000000, 8176.000000
2032, 47681792.000000, 1314.000000, 8175.000000, 8181.000000, 8175.000000
2033, 47681952.000000, 1276.000000, 8177.000000, 8181.000000, 8176.000000
2034, 47682112.000000, 1239.000000, 8176.000000, 8182.000000, 8173.000000
2035, 47682272.000000, 1246.000000, 8175.000000, 8179.000000, 8171.000000
2036, 47682432.000000, 1380.000000, 8177.000000, 8179.000000, 8170.000000
2037, 47682592.000000, 1682.500000, 8178.000000, 8178.000000, 8172.000000
2038, 47682752.000000, 2092.000000, 8176.000000, 8180.000000, 8171.000000
2039, 47682912.000000, 2481.000000, 8178.000000, 8180.000000, 8174.000000
2040, 47683072.000000, 2818.000000, 8175.000000, 8178.000000, 8170.000000
2041, 47683232.000000, 2946.000000, 8183.000000, 8179.000000, 8172.000000
2042, 47683392.000000, 2911.000000, 8184.000000, 8180.000000, 8178.000000
2043, 47683552.000000, 2739.000000, 8193.000000, 8194.000000, 8204.000000
2044, 47683712.000000, 2543.000000, 8201.000000, 8201.000000, 8220.000000
2045, 47683872.000000, 2334.000000, 8200.000000, 8196.000000, 8212.000000
2046, 47684032.000000, 2123.000000, 8193.000000, 8185.000000, 8189.000000
2047, 47684192.000000, 2008.500000, 8182.000000, 8177.000000, 8170.000000
2048, 47684352.000000, 2024.000000, 8181.000000, 8177.000000, 8165.000000
2049, 47684512.000000, 2089.500000, 8179.000000, 8175.000000, 8162.000000
2050, 47684672.000000, 2164.000000, 8166.000000, 8193.000000, 8171.000000
2051, 47684832.000000, 2217.000000, 8308.000000, 8211.000000, 8281.000000
2052, 47684992.000000, 2232.000000, 8488.000000, 7961.000000, 8127.000000
2053, 47685152.000000, 2202.500000, 8153.000000, 8054.000000, 8021.000000
2054, 47685312.000000, 2141.000000, 8185.000000, 8187.000000, 8182.000000
2055, 47685472.000000, 2058.500000, 8183.000000, 8205.000000, 8196.000000
2056, 47685632.000000, 1971.000000, 8183.000000, 8209.000000, 8200.000000
2057, 47685792.000000, 1890.000000, 8191.000000, 8214.000000, 8211.000000
2058, 47685952.000000, 1820.000000, 8192.000000, 8219.000000, 8216.000000
2059, 47686112.000000, 1763.000000, 8202.000000, 8222.000000, 8224.000000
2060, 47686272.000000, 1718.000000, 8208.000000, 8225.000000, 8227.000000
2061, 47686432.000000, 1681.500000, 8220.000000, 8232.000000, 8244.000000
2062, 47686592.000000, 1651.000000, 8232.000000, 8240.000000, 8256.000000
2063, 47686752.000000, 1624.000000, 8224.000000, 8242.000000, 8256.000000
2064, 47686912.000000, 1601.000000, 8222.000000, 8240.000000, 8259.000000
2065, 47687072.000000, 1581.000000, 8207.000000, 8227.000000, 8242.000000
2066, 47687232.000000, 1561.000000, 8189.000000, 8207.000000, 8210.000000
2067, 47687392.000000, 1541.500000, 8169.000000, 8194.000000, 8186.000000
2068, 47687552.000000, 1525.000000, 8163.000000, 8192.000000, 8178.000000
2069, 47687712.000000, 1510.500000, 8162.000000, 8192.000000, 8179.000000
2070, 47687872.000000, 1496.000000, 8168.000000, 8192.000000, 8181.000000
2071, 47688032.000000, 1480.000000, 8170.000000, 8191.000000, 8180.000000
2072, 47688192.000000, 1461.000000, 8172.000000, 8190.000000, 8180.000000
2073, 47688352.000000, 1432.500000, 8173.000000, 8191.000000, 8180.000000
2074, 47688512.000000, 1392.000000, 8171.000000, 8186.000000, 8177.000000
2075, 47688672.000000, 1347.000000, 8172.000000, 8185.000000, 8175.000000
2076, 47688832.000000, 1313.000000, 8171.000000, 8182.000000, 8169.000000
2077, 47688992.000000, 1345.500000, 8167.000000, 8184.000000, 8171.000000
2078, 47689152.000000, 1524.000000, 8170.000000, 8184.000000, 8173.000000
2079, 47689312.000000, 1884.000000, 8170.000000, 8183.000000, 8170.000000
2080, 47689472.000000, 2331.000000, 8169.000000, 8183.000000, 8169.000000
2081, 47689632.000000, 2738.000000, 8172.000000, 8183.000000, 8171.000000
2082, 47689792.000000, 3033.000000, 8173.000000, 8183.000000, 8172.000000
2083, 47689952.000000, 3174.500000, 8175.000000, 8186.000000, 8178.000000
2084, 47690112.000000, 3166.000000, 8176.000000, 8186.000000, 8177.000000
2085, 47690272.000000, 3042.000000, 8185.000000, 8200.000000, 8204.000000
2086, 47690432.000000, 2845.000000, 8194.000000, 8206.000000, 8220.000000
2087, 47690592.000000, 2613.500000, 8193.000000, 8198.000000, 8210.000000
2088, 47690752.000000, 2381.000000, 8185.000000, 8190.000000, 8187.000000
2089, 47690912.000000, 2197.500000, 8171.000000, 8181.000000, 8166.000000
2090, 47691072.000000, 2092.000000, 8171.000000, 8177.000000, 8160.000000
2091, 47691232.000000, 2076.000000, 8170.000000, 8177.000000, 8158.000000
2092, 47691392.000000, 2122.000000, 8152.000000, 8211.000000, 8186.000000
2093, 47691552.000000, 2197.000000, 8367.000000, 8187.000000, 8289.000000
2094, 47691712.000000, 2270.000000, 8457.000000, 7918.000000, 8054.000000
2095, 47691872.000000, 2309.500000, 8154.000000, 8097.000000, 8063.000000
2096, 47692032.000000, 2307.000000, 8179.000000, 8201.000000, 8192.000000
2097, 47692192.000000, 2263.500000, 8173.000000, 8215.000000, 8202.000000
2098, 47692352.000000, 2191.000000, 8177.000000, 8220.000000, 8209.000000
2099, 47692512.000000, 2102.500000, 8181.000000, 8221.000000, 8211.000000
2100, 47692672.000000, 2009.000000, 8188.000000, 8224.000000, 8217.000000
2101, 47692832.000000, 1926.500000, 8197.000000, 8229.000000, 8226.000000
2102, 47692992.000000, 1859.000000, 8205.000000, 8236.000000, 8240.000000
2103, 47693152.000000, 1812.500000, 8217.000000, 8246.000000, 8256.000000
2104, 47693312.000000, 1780.000000, 8220.000000, 8249.000000, 8261.000000
2105, 47693472.000000, 1757.000000, 8218.000000, 8250.000000, 8264.000000
2106, 47693632.000000, 1737.000000, 8212.000000, 8247.000000, 8261.000000
2107, 47693792.000000, 1719.000000, 8200.000000, 8230.000000, 8242.000000
2108, 47693952.000000, 1704.000000, 8180.000000, 8211.000000, 8210.000000
2109, 47694112.000000, 1692.500000, 8164.000000, 8197.000000, 8186.000000
2110, 47694272.000000, 1681.000000, 8157.000000, 8193.000000, 8175.000000
2111, 47694432.000000, 1666.000000, 8160.000000, 8192.000000, 8176.000000
2112, 47694592.000000, 1648.000000, 8165.000000, 8195.000000, 8182.000000
2113, 47694752.000000, 1628.000000, 8167.000000, 8196.000000, 8183.000000
2114, 47694912.000000, 1605.000000, 8167.000000, 8193.000000, 8180.000000
2115, 47695072.000000, 1571.500000, 8169.000000, 8191.000000, 8179.000000
2116, 47695232.000000, 1529.000000, 8170.000000, 8189.000000, 8178.000000
2117, 47695392.000000, 1479.500000, 8167.000000, 8188.000000, 8173.000000
2118, 47695552.000000, 1462.000000, 8165.000000, 8188.000000, 8175.000000
2119, 47695712.000000, 1589.000000, 8166.000000, 8187.000000, 8173.000000
2120, 47695872.000000, 1910.000000, 8166.000000, 8185.000000, 8171.000000
2121, 47696032.000000, 2404.000000, 8166.000000, 8185.000000, 8169.000000
2122, 47696192.000000, 2912.000000, 8169.000000, 8185.000000, 8171.000000
2123, 47696352.000000, 3314.500000, 8166.000000, 8186.000000, 8172.000000
2124, 47696512.000000, 3561.000000, 8170.000000, 8188.000000, 8177.000000
2125, 47696672.000000, 3637.500000, 8169.000000, 8184.000000, 8170.000000
2126, 47696832.000000, 3563.000000, 8174.000000, 8188.000000, 8179.000000
2127, 47696992.000000, 3375.000000, 8185.000000, 8204.000000, 8210.000000
2128, 47697152.000000, 3131.000000, 8191.000000, 8210.000000, 8226.000000
2129, 47697312.000000, 2860.000000, 8190.000000, 8201.000000, 8213.000000
2130, 47697472.000000, 2606.000000, 8180.000000, 8189.000000, 8182.000000
2131, 47697632.000000, 2419.000000, 8170.000000, 8179.000000, 8160.000000
2132, 47697792.000000, 2324.000000, 8169.000000, 8180.000000, 8162.000000
2133, 47697952.000000, 2314.000000, 8170.000000, 8181.000000, 8164.000000
2134, 47698112.000000, 2357.000000, 8146.000000, 8215.000000, 8188.000000
2135, 47698272.000000, 2414.000000, 8373.000000, 8145.000000, 8251.000000
2136, 47698432.000000, 2453.000000, 8453.000000, 7870.000000, 7993.000000
2137, 47698592.000000, 2446.000000, 8165.000000, 8124.000000, 8101.000000
2138, 47698752.000000, 2398.000000, 8173.000000, 8212.000000, 8201.000000
2139, 47698912.000000, 2310.000000, 8168.000000, 8222.000000, 8207.000000
2140, 47699072.000000, 2199.000000, 8170.000000, 8224.000000, 8209.000000
2141, 47699232.000000, 2080.000000, 8177.000000, 8228.000000, 8217.000000
2142, 47699392.000000, 1965.000000, 8183.000000, 8231.000000, 8224.000000
2143, 47699552.000000, 1868.500000, 8190.000000, 8237.000000, 8235.000000
2144, 47699712.000000, 1790.000000, 8199.000000, 8242.000000, 8244.000000
2145, 47699872.000000, 1729.000000, 8207.000000, 8250.000000, 8257.000000
2146, 47700032.000000, 1680.000000, 8213.000000, 8256.000000, 8267.000000
2147, 47700192.000000, 1640.500000, 8211.000000, 8260.000000, 8272.000000
2148, 47700352.000000, 1607.000000, 8201.000000, 8254.000000, 8265.000000
2149, 47700512.000000, 1579.500000, 8191.000000, 8234.000000, 8242.000000
2150, 47700672.000000, 1551.000000, 8171.000000, 8210.000000, 8203.000000
2151, 47700832.000000, 1526.500000, 8159.000000, 8197.000000, 8182.000000
2152, 47700992.000000, 1503.000000, 8155.000000, 8194.000000, 8175.000000
2153, 47701152.000000, 1484.000000, 8157.000000, 8195.000000, 8177.000000
2154, 47701312.000000, 1468.000000, 8161.000000, 8195.000000, 8180.000000
2155, 47701472.000000, 1451.500000, 8161.000000, 8193.000000, 8176.000000
2156, 47701632.000000, 1431.000000, 8163.000000, 8192.000000, 8178.000000
2157, 47701792.000000, 1401.500000, 8165.000000, 8192.000000, 8179.000000
2158, 47701952.000000, 1354.000000, 8162.000000, 8191.000000, 8176.000000
2159, 47702112.000000, 1307.000000, 8158.000000, 8188.000000, 8169.000000
2160, 47702272.000000, 1324.000000, 8160.000000, 8186.000000, 8168.000000
2161, 47702432.000000, 1561.000000, 8160.000000, 8184.000000, 8166.000000
2162, 47702592.000000, 2025.000000, 8162.000000, 8185.000000, 8168.000000
2163, 47702752.000000, 2626.000000, 8161.000000, 8185.000000, 8168.000000
2164, 47702912.000000, 3182.000000, 8164.000000, 8186.000000, 8171.000000
2165, 47703072.000000, 3580.500000, 8162.000000, 8183.000000, 8166.000000
2166, 47703232.000000, 3783.000000, 8165.000000, 8185.000000, 8170.000000
2167, 47703392.000000, 3781.000000, 8172.000000, 8196.000000, 8190.000000
2168, 47703552.000000, 3643.000000, 8181.000000, 8208.000000, 8214.000000
2169, 47703712.000000, 3410.000000, 8186.000000, 8206.000000, 8219.000000
2170, 47703872.000000, 3140.000000, 8182.000000, 8195.000000, 8197.000000
2171, 47704032.000000, 2865.000000, 8167.000000, 8183.000000, 8166.000000
2172, 47704192.000000, 2625.000000, 8163.000000, 8177.000000, 8155.000000
2173, 47704352.000000, 2460.500000, 8162.000000, 8178.000000, 8155.000000
2174, 47704512.000000, 2385.000000, 8160.000000, 8183.000000, 8157.000000
2175, 47704672.000000, 2383.500000, 8172.000000, 8206.000000, 8190.000000
2176, 47704832.000000, 2417.000000, 8466.000000, 7925.000000, 8079.000000
2177, 47704992.000000, 2451.000000, 8238.000000, 7957.000000, 7951.000000
2178, 47705152.000000, 2460.000000, 8180.000000, 8192.000000, 8187.000000
2179, 47705312.000000, 2425.500000, 8169.000000, 8221.000000, 8207.000000
2180, 47705472.000000, 2347.000000, 8168.000000, 8226.000000, 8211.000000
2181, 47705632.000000, 2237.500000, 8172.000000, 8228.000000, 8216.000000
2182, 47705792.000000, 2113.000000, 8178.000000, 8232.000000, 8224.000000
2183, 47705952.000000, 1988.000000, 8184.000000, 8237.000000, 8233.000000
2184, 47706112.000000, 1874.000000, 8191.000000, 8240.000000, 8240.000000
2185, 47706272.000000, 1780.000000, 8201.000000, 8245.000000, 8250.000000
2186, 47706432.000000, 1703.000000, 8209.000000, 8252.000000, 8262.000000
2187, 47706592.000000, 1645.000000, 8211.000000, 8255.000000, 8267.000000
2188, 47706752.000000, 1598.000000, 8205.000000, 8257.000000, 8269.000000
2189, 47706912.000000, 1561.500000, 8197.000000, 8244.000000, 8256.000000
2190, 47707072.000000, 1533.000000, 8179.000000, 8221.000000, 8221.000000
2191, 47707232.000000, 1508.000000, 8163.000000, 8202.000000, 8192.000000
2192, 47707392.000000, 1482.000000, 8156.000000, 8196.000000, 8179.000000
2193, 47707552.000000, 1457.000000, 8156.000000, 8196.000000, 8181.000000
2194, 47707712.000000, 1433.000000, 8158.000000, 8196.000000, 8179.000000
2195, 47707872.000000, 1413.000000, 8163.000000, 8195.000000, 8181.000000
2196, 47708032.000000, 1395.000000, 8166.000000, 8194.000000, 8182.000000
2197, 47708192.000000, 1373.500000, 8165.000000, 8194.000000, 8183.000000
2198, 47708352.000000, 1343.000000, 8165.000000, 8192.000000, 8179.000000
2199, 47708512.000000, 1292.000000, 8166.000000, 8191.000000, 8177.000000
2200, 47708672.000000, 1245.000000, 8165.000000, 8186.000000, 8173.000000
2201, 47708832.000000, 1311.500000, 8165.000000, 8184.000000, 8169.000000
2202, 47708992.000000, 1585.000000, 8165.000000, 8186.000000, 8171.000000
2203, 47709152.000000, 2090.500000, 8167.000000, 8185.000000, 8170.000000
2204, 47709312.000000, 2680.000000, 8166.000000, 8185.000000, 8169.000000
2205, 47709472.000000, 3188.000000, 8167.000000, 8183.000000, 8168.000000
2206, 47709632.000000, 3523.000000, 8170.000000, 8184.000000, 8171.000000
2207, 47709792.000000, 3642.500000, 8183.000000, 8200.000000, 8205.000000
2208, 47709952.000000, 3592.000000, 8188.000000, 8208.000000, 8220.000000
2209, 47710112.000000, 3405.000000, 8189.000000, 8203.000000, 8216.000000
2210, 47710272.000000, 3157.000000, 8185.000000, 8191.000000, 8188.000000
2211, 47710432.000000, 2881.500000, 8171.000000, 8179.000000, 8162.000000
2212, 47710592.000000, 2614.000000, 8166.000000, 8177.000000, 8157.000000
2213, 47710752.000000, 2402.000000, 8168.000000, 8179.000000, 8160.000000
2214, 47710912.000000, 2273.000000, 8157.000000, 8190.000000, 8160.000000
2215, 47711072.000000, 2235.000000, 8253.000000, 8210.000000, 8248.000000
2216, 47711232.000000, 2251.000000, 8494.000000, 7875.000000, 8047.000000
2217, 47711392.000000, 2290.000000, 8156.000000, 8044.000000, 8005.000000
2218, 47711552.000000, 2319.000000, 8177.000000, 8205.000000, 8196.000000
2219, 47711712.000000, 2311.500000, 8172.000000, 8222.000000, 8208.000000
2220, 47711872.000000, 2262.000000, 8173.000000, 8226.000000, 8213.000000
2221, 47712032.000000, 2174.500000, 8177.000000, 8228.000000, 8217.000000
2222, 47712192.000000, 2063.000000, 8183.000000, 8232.000000, 8225.000000
2223, 47712352.000000, 1948.000000, 8189.000000, 8236.000000, 8233.000000
2224, 47712512.000000, 1839.000000, 8197.000000, 8240.000000, 8242.000000
2225, 47712672.000000, 1743.500000, 8204.000000, 8244.000000, 8249.000000
2226, 47712832.000000, 1663.000000, 8212.000000, 8249.000000, 8259.000000
2227, 47712992.000000, 1603.000000, 8213.000000, 8252.000000, 8265.000000
2228, 47713152.000000, 1553.000000, 8205.000000, 8250.000000, 8262.000000
2229, 47713312.000000, 1515.000000, 8197.000000, 8238.000000, 8248.000000
2230, 47713472.000000, 1484.000000, 8181.000000, 8214.000000, 8214.000000
2231, 47713632.000000, 1456.500000, 8164.000000, 8199.000000, 8186.000000
2232, 47713792.000000, 1432.000000, 8159.000000, 8194.000000, 8177.000000
2233, 47713952.000000, 1407.500000, 8163.000000, 8196.000000, 8182.000000
2234, 47714112.000000, 1385.000000, 8166.000000, 8196.000000, 8184.000000
2235, 47714272.000000, 1367.500000, 8169.000000, 8195.000000, 8183.000000
2236, 47714432.000000, 1351.000000, 8171.000000, 8193.000000, 8184.000000
2237, 47714592.000000, 1331.000000, 8173.000000, 8192.000000, 8183.000000
2238, 47714752.000000, 1300.000000, 8173.000000, 8191.000000, 8182.000000
2239, 47714912.000000, 1251.500000, 8170.000000, 8188.000000, 8175.000000
2240, 47715072.000000, 1202.000000, 8169.000000, 8184.000000, 8170.000000
2241, 47715232.000000, 1241.000000, 8171.000000, 8184.000000, 8173.000000
2242, 47715392.000000, 1466.000000, 8173.000000, 8184.000000, 8173.000000
2243, 47715552.000000, 1916.000000, 8172.000000, 8184.000000, 8172.000000
2244, 47715712.000000, 2464.000000, 8174.000000, 8183.000000, 8172.000000
2245, 47715872.000000, 2955.500000, 8171.000000, 8182.000000, 8169.000000
2246, 47716032.000000, 3283.000000, 8183.000000, 8194.000000, 8195.000000
2247, 47716192.000000, 3401.000000, 8189.000000, 8206.000000, 8217.000000
2248, 47716352.000000, 3354.000000, 8193.000000, 8206.000000, 8222.000000
2249, 47716512.000000, 3169.500000, 8191.000000, 8197.000000, 8205.000000
2250, 47716672.000000, 2918.000000, 8172.000000, 8180.000000, 8164.000000
2251, 47716832.000000, 2637.000000, 8168.000000, 8175.000000, 8154.000000
2252, 47716992.000000, 2372.000000, 8171.000000, 8176.000000, 8159.000000
2253, 47717152.000000, 2165.500000, 8166.000000, 8179.000000, 8155.000000
2254, 47717312.000000, 2051.000000, 8195.000000, 8209.000000, 8206.000000
2255, 47717472.000000, 2032.500000, 8487.000000, 7949.000000, 8117.000000
2256, 47717632.000000, 2070.000000, 8211.000000, 7971.000000, 7955.000000
2257, 47717792.000000, 2128.000000, 8184.000000, 8187.000000, 8181.000000
2258, 47717952.000000, 2168.000000, 8174.000000, 8217.000000, 8206.000000
2259, 47718112.000000, 2167.000000, 8174.000000, 8223.000000, 8212.000000
2260, 47718272.000000, 2120.000000, 8178.000000, 8223.000000, 8213.000000
2261, 47718432.000000, 2035.500000, 8181.000000, 8227.000000, 8219.000000
2262, 47718592.000000, 1929.000000, 8189.000000, 8231.000000, 8228.000000
2263, 47718752.000000, 1817.000000, 8199.000000, 8237.000000, 8239.000000
2264, 47718912.000000, 1714.000000, 8208.000000, 8240.000000, 8248.000000
2265, 47719072.000000, 1628.500000, 8215.000000, 8243.000000, 8255.000000
2266, 47719232.000000, 1560.000000, 8214.000000, 8243.000000, 8255.000000
2267, 47719392.000000, 1506.000000, 8212.000000, 8244.000000, 8258.000000
2268, 47719552.000000, 1465.000000, 8202.000000, 8237.000000, 8249.000000
2269, 47719712.000000, 1434.500000, 8188.000000, 8218.000000, 8224.000000
2270, 47719872.000000, 1410.000000, 8174.000000, 8201.000000, 8196.000000
2271, 47720032.000000, 1389.500000, 8167.000000, 8194.000000, 8183.000000
2272, 47720192.000000, 1372.000000, 8165.000000, 8195.000000, 8182.000000
2273, 47720352.000000, 1352.000000, 8174.000000, 8197.000000, 8190.000000
2274, 47720512.000000, 1335.000000, 8177.000000, 8196.000000, 8191.000000
2275, 47720672.000000, 1323.000000, 8178.000000, 8194.000000, 8188.000000
2276, 47720832.000000, 1310.000000, 8179.000000, 8191.000000, 8184.000000
2277, 47720992.000000, 1285.500000, 8183.000000, 8192.000000, 8189.000000
2278, 47721152.000000, 1247.000000, 8181.000000, 8189.000000, 8183.000000
2279, 47721312.000000, 1197.000000, 8180.000000, 8186.000000, 8181.000000
2280, 47721472.000000, 1161.000000, 8181.000000, 8184.000000, 8176.000000
2281, 47721632.000000, 1236.000000, 8181.000000, 8181.000000, 8175.000000
2282, 47721792.000000, 1492.000000, 8186.000000, 8183.000000, 8178.000000
2283, 47721952.000000, 1928.500000, 8186.000000, 8183.000000, 8178.000000
2284, 47722112.000000, 2413.000000, 8188.000000, 8187.000000, 8187.000000
2285, 47722272.000000, 2810.000000, 8199.000000, 8198.000000, 8210.000000
2286, 47722432.000000, 3048.000000, 8212.000000, 8205.000000, 8231.000000
2287, 47722592.000000, 3097.000000, 8207.000000, 8196.000000, 8215.000000
2288, 47722752.000000, 3006.000000, 8189.000000, 8181.000000, 8178.000000
2289, 47722912.000000, 2807.500000, 8187.000000, 8174.000000, 8162.000000
2290, 47723072.000000, 2555.000000, 8181.000000, 8170.000000, 8156.000000
2291, 47723232.000000, 2282.500000, 8183.000000, 8170.000000, 8155.000000
2292, 47723392.000000, 2040.000000, 8178.000000, 8218.000000, 8206.000000
2293, 47723552.000000, 1882.000000, 8457.000000, 8098.000000, 8240.000000
2294, 47723712.000000, 1819.000000, 8371.000000, 7902.000000, 7974.000000
2295, 47723872.000000, 1843.500000, 8187.000000, 8139.000000, 8131.000000
2296, 47724032.000000, 1907.000000, 8193.000000, 8200.000000, 8196.000000
2297, 47724192.000000, 1973.000000, 8190.000000, 8211.000000, 8205.000000
2298, 47724352.000000, 2006.000000, 8191.000000, 8213.000000, 8206.000000
2299, 47724512.000000, 1990.500000, 8198.000000, 8215.000000, 8216.000000
2300, 47724672.000000, 1931.000000, 8203.000000, 8216.000000, 8218.000000
2301, 47724832.000000, 1836.500000, 8214.000000, 8222.000000, 8230.000000
2302, 47724992.000000, 1732.000000, 8222.000000, 8229.000000, 8242.000000
2303, 47725152.000000, 1631.500000, 8234.000000, 8233.000000, 8252.000000
2304, 47725312.000000, 1547.000000, 8234.000000, 8235.000000, 8254.000000
2305, 47725472.000000, 1479.000000, 8231.000000, 8232.000000, 8251.000000
2306, 47725632.000000, 1427.000000, 8226.000000, 8226.000000, 8246.000000
2307, 47725792.000000, 1387.000000, 8211.000000, 8213.000000, 8229.000000
2308, 47725952.000000, 1357.000000, 8190.000000, 8199.000000, 8203.000000
2309, 47726112.000000, 1334.500000, 8176.000000, 8188.000000, 8183.000000
2310, 47726272.000000, 1313.000000, 8176.000000, 8184.000000, 8177.000000
2311, 47726432.000000, 1293.500000, 8183.000000, 8185.000000, 8182.000000
2312, 47726592.000000, 1277.000000, 8188.000000, 8186.000000, 8188.000000
2313, 47726752.000000, 1262.500000, 8188.000000, 8188.000000, 8190.000000
2314, 47726912.000000, 1247.000000, 8190.000000, 8184.000000, 8186.000000
2315, 47727072.000000, 1229.500000, 8190.000000, 8182.000000, 8180.000000
2316, 47727232.000000, 1199.000000, 8188.000000, 8181.000000, 8183.000000
2317, 47727392.000000, 1155.500000, 8188.000000, 8179.000000, 8179.000000
2318, 47727552.000000, 1107.000000, 8186.000000, 8180.000000, 8179.000000
2319, 47727712.000000, 1090.500000, 8182.000000, 8177.000000, 8174.000000
2320, 47727872.000000, 1166.000000, 8184.000000, 8175.000000, 8171.000000
2321, 47728032.000000, 1431.000000, 8181.000000, 8173.000000, 8167.000000
2322, 47728192.000000, 1826.000000, 8186.000000, 8176.000000, 8175.000000
2323, 47728352.000000, 2251.000000, 8197.000000, 8188.000000, 8198.000000
2324, 47728512.000000, 2584.000000, 8203.000000, 8197.000000, 8221.000000
2325, 47728672.000000, 2766.000000, 8202.000000, 8191.000000, 8213.000000
2326, 47728832.000000, 2793.000000, 8196.000000, 8180.000000, 8188.000000
2327, 47728992.000000, 2680.500000, 8185.000000, 8173.000000, 8164.000000
2328, 47729152.000000, 2487.000000, 8180.000000, 8169.000000, 8162.000000
2329, 47729312.000000, 2233.000000, 8178.000000, 8168.000000, 8156.000000
2330, 47729472.000000, 1973.000000, 8176.000000, 8181.000000, 8166.000000
2331, 47729632.000000, 1758.500000, 8274.000000, 8206.000000, 8252.000000
2332, 47729792.000000, 1635.000000, 8489.000000, 7993.000000, 8166.000000
2333, 47729952.000000, 1609.500000, 8163.000000, 8025.000000, 8007.000000
2334, 47730112.000000, 1660.000000, 8187.000000, 8168.000000, 8164.000000
2335, 47730272.000000, 1745.000000, 8183.000000, 8192.000000, 8187.000000
2336, 47730432.000000, 1826.000000, 8186.000000, 8200.000000, 8193.000000
2337, 47730592.000000, 1860.000000, 8189.000000, 8204.000000, 8203.000000
2338, 47730752.000000, 1841.000000, 8201.000000, 8209.000000, 8212.000000
2339, 47730912.000000, 1778.500000, 8206.000000, 8211.000000, 8219.000000
2340, 47731072.000000, 1684.000000, 8217.000000, 8214.000000, 8226.000000
2341, 47731232.000000, 1584.000000, 8230.000000, 8219.000000, 8237.000000
2342, 47731392.000000, 1489.000000, 8239.000000, 8228.000000, 8250.000000
2343, 47731552.000000, 1406.500000, 8236.000000, 8230.000000, 8254.000000
2344, 47731712.000000, 1339.000000, 8232.000000, 8226.000000, 8250.000000
2345, 47731872.000000, 1289.000000, 8220.000000, 8220.000000, 8240.000000
2346, 47732032.000000, 1250.000000, 8197.000000, 8203.000000, 8215.000000
2347, 47732192.000000, 1222.500000, 8179.000000, 8191.000000, 8193.000000
2348, 47732352.000000, 1201.000000, 8167.000000, 8189.000000, 8184.000000
2349, 47732512.000000, 1182.500000, 8170.000000, 8185.000000, 8180.000000
2350, 47732672.000000, 1167.000000, 8173.000000, 8188.000000, 8183.000000
2351, 47732832.000000, 1152.000000, 8184.000000, 8189.000000, 8187.000000
2352, 47732992.000000, 1136.000000, 8184.000000, 8188.000000, 8190.000000
2353, 47733152.000000, 1115.500000, 8183.000000, 8182.000000, 8183.000000
2354, 47733312.000000, 1085.000000, 8181.000000, 8183.000000, 8183.000000
2355, 47733472.000000, 1042.500000, 8183.000000, 8178.000000, 8179.000000
2356, 47733632.000000, 993.000000, 8177.000000, 8182.000000, 8181.000000
2357, 47733792.000000, 950.500000, 8181.000000, 8184.000000, 8186.000000
2358, 47733952.000000, 950.000000, 8187.000000, 8194.000000, 8204.000000
2359, 47734112.000000, 1080.500000, 8203.000000, 8207.000000, 8239.000000
2360, 47734272.000000, 1354.000000, 8200.000000, 8198.000000, 8224.000000
2361, 47734432.000000, 1728.000000, 8189.000000, 8182.000000, 8185.000000
2362, 47734592.000000, 2081.000000, 8175.000000, 8174.000000, 8164.000000
2363, 47734752.000000, 2331.000000, 8178.000000, 8175.000000, 8159.000000
2364, 47734912.000000, 2448.000000, 8174.000000, 8173.000000, 8160.000000
2365, 47735072.000000, 2435.000000, 8166.000000, 8191.000000, 8171.000000
2366, 47735232.000000, 2322.000000, 8322.000000, 8201.000000, 8271.000000
2367, 47735392.000000, 2139.000000, 8474.000000, 7976.000000, 8135.000000
2368, 47735552.000000, 1923.000000, 8148.000000, 8050.000000, 8018.000000
2369, 47735712.000000, 1705.000000, 8178.000000, 8175.000000, 8169.000000
2370, 47735872.000000, 1531.000000, 8174.000000, 8201.000000, 8188.000000
2371, 47736032.000000, 1434.500000, 8178.000000, 8206.000000, 8196.000000
2372, 47736192.000000, 1420.000000, 8184.000000, 8209.000000, 8203.000000
2373, 47736352.000000, 1468.500000, 8189.000000, 8214.000000, 8213.000000
2374, 47736512.000000, 1541.000000, 8205.000000, 8216.000000, 8220.000000
2375, 47736672.000000, 1603.000000, 8218.000000, 8219.000000, 8227.000000
2376, 47736832.000000, 1634.000000, 8224.000000, 8224.000000, 8238.000000
2377, 47736992.000000, 1617.500000, 8246.000000, 8231.000000, 8250.000000
2378, 47737152.000000, 1566.000000, 8237.000000, 8237.000000, 8256.000000
2379, 47737312.000000, 1489.000000, 8231.000000, 8236.000000, 8255.000000
2380, 47737472.000000, 1402.000000, 8206.000000, 8226.000000, 8240.000000
2381, 47737632.000000, 1316.000000, 8180.000000, 8208.000000, 8207.000000
2382, 47737792.000000, 1241.000000, 8167.000000, 8196.000000, 8193.000000
2383, 47737952.000000, 1183.000000, 8166.000000, 8200.000000, 8186.000000
2384, 47738112.000000, 1140.000000, 8161.000000, 8195.000000, 8182.000000
2385, 47738272.000000, 1110.500000, 8169.000000, 8196.000000, 8190.000000
2386, 47738432.000000, 1092.000000, 8176.000000, 8197.000000, 8186.000000
2387, 47738592.000000, 1077.000000, 8173.000000, 8193.000000, 8188.000000
2388, 47738752.000000, 1057.000000, 8182.000000, 8191.000000, 8188.000000
2389, 47738912.000000, 1028.500000, 8177.000000, 8191.000000, 8186.000000
2390, 47739072.000000, 994.000000, 8170.000000, 8190.000000, 8183.000000
2391, 47739232.000000, 961.000000, 8172.000000, 8187.000000, 8179.000000
2392, 47739392.000000, 933.000000, 8173.000000, 8193.000000, 8186.000000
2393, 47739552.000000, 946.000000, 8180.000000, 8202.000000, 8209.000000
2394, 47739712.000000, 1053.000000, 8199.000000, 8213.000000, 8235.000000
2395, 47739872.000000, 1297.500000, 8187.000000, 8205.000000, 8223.000000
2396, 47740032.000000, 1620.000000, 8177.000000, 8191.000000, 8190.000000
2397, 47740192.000000, 1927.500000, 8171.000000, 8181.000000, 8170.000000
2398, 47740352.000000, 2154.000000, 8165.000000, 8183.000000, 8168.000000
2399, 47740512.000000, 2262.000000, 8175.000000, 8179.000000, 8163.000000
2400, 47740672.000000, 2267.000000, 8163.000000, 8188.000000, 8166.000000
2401, 47740832.000000, 2178.000000, 8246.000000, 8218.000000, 8247.000000
2402, 47740992.000000, 2031.000000, 8484.000000, 7997.000000, 8159.000000
2403, 47741152.000000, 1848.000000, 8166.000000, 8029.000000, 8013.000000
2404, 47741312.000000, 1660.000000, 8175.000000, 8177.000000, 8163.000000
2405, 47741472.000000, 1507.500000, 8175.000000, 8207.000000, 8193.000000
2406, 47741632.000000, 1419.000000, 8174.000000, 8212.000000, 8201.000000
2407, 47741792.000000, 1409.500000, 8177.000000, 8219.000000, 8210.000000
2408, 47741952.000000, 1454.000000, 8191.000000, 8220.000000, 8217.000000
2409, 47742112.000000, 1529.500000, 8197.000000, 8224.000000, 8226.000000
2410, 47742272.000000, 1597.000000, 8203.000000, 8225.000000, 8229.000000
2411, 47742432.000000, 1635.500000, 8221.000000, 8237.000000, 8247.000000
2412, 47742592.000000, 1635.000000, 8228.000000, 8242.000000, 8259.000000
2413, 47742752.000000, 1598.500000, 8228.000000, 8249.000000, 8270.000000
2414, 47742912.000000, 1538.000000, 8223.000000, 8247.000000, 8267.000000
2415, 47743072.000000, 1466.500000, 8205.000000, 8230.000000, 8244.000000
2416, 47743232.000000, 1398.000000, 8178.000000, 8210.000000, 8212.000000
2417, 47743392.000000, 1338.000000, 8162.000000, 8200.000000, 8193.000000
2418, 47743552.000000, 1289.000000, 8153.000000, 8196.000000, 8183.000000
2419, 47743712.000000, 1254.000000, 8153.000000, 8197.000000, 8182.000000
2420, 47743872.000000, 1232.000000, 8161.000000, 8196.000000, 8183.000000
2421, 47744032.000000, 1217.500000, 8161.000000, 8195.000000, 8182.000000
2422, 47744192.000000, 1206.000000, 8169.000000, 8198.000000, 8188.000000
2423, 47744352.000000, 1189.000000, 8167.000000, 8195.000000, 8186.000000
2424, 47744512.000000, 1165.000000, 8168.000000, 8191.000000, 8184.000000
2425, 47744672.000000, 1132.000000, 8168.000000, 8192.000000, 8181.000000
2426, 47744832.000000, 1101.000000, 8167.000000, 8188.000000, 8177.000000
2427, 47744992.000000, 1100.000000, 8166.000000, 8190.000000, 8182.000000
2428, 47745152.000000, 1208.000000, 8165.000000, 8193.000000, 8184.000000
2429, 47745312.000000, 1472.000000, 8178.000000, 8205.000000, 8207.000000
2430, 47745472.000000, 1848.000000, 8190.000000, 8213.000000, 8233.000000
2431, 47745632.000000, 2221.500000, 8189.000000, 8206.000000, 8221.000000
2432, 47745792.000000, 2514.000000, 8174.000000, 8190.000000, 8189.000000
2433, 47745952.000000, 2672.500000, 8166.000000, 8182.000000, 8166.000000
2434, 47746112.000000, 2713.000000, 8162.000000, 8179.000000, 8160.000000
2435, 47746272.000000, 2648.500000, 8162.000000, 8175.000000, 8154.000000
2436, 47746432.000000, 2516.000000, 8156.000000, 8192.000000, 8165.000000
2437, 47746592.000000, 2345.500000, 8228.000000, 8216.000000, 8243.000000
2438, 47746752.000000, 2162.000000, 8487.000000, 7942.000000, 8102.000000
2439, 47746912.000000, 1992.500000, 8168.000000, 8021.000000, 7994.000000
2440, 47747072.000000, 1865.000000, 8169.000000, 8180.000000, 8166.000000
2441, 47747232.000000, 1805.500000, 8167.000000, 8214.000000, 8197.000000
2442, 47747392.000000, 1803.000000, 8168.000000, 8219.000000, 8204.000000
2443, 47747552.000000, 1838.000000, 8173.000000, 8225.000000, 8212.000000
2444, 47747712.000000, 1882.000000, 8180.000000, 8226.000000, 8219.000000
2445, 47747872.000000, 1911.500000, 8188.000000, 8229.000000, 8224.000000
2446, 47748032.000000, 1916.000000, 8198.000000, 8235.000000, 8236.000000
2447, 47748192.000000, 1885.000000, 8214.000000, 8246.000000, 8254.000000
2448, 47748352.000000, 1830.000000, 8227.000000, 8253.000000, 8269.000000
2449, 47748512.000000, 1751.500000, 8227.000000, 8255.000000, 8273.000000
2450, 47748672.000000, 1668.000000, 8219.000000, 8251.000000, 8268.000000
2451, 47748832.000000, 1587.000000, 8202.000000, 8233.000000, 8245.000000
2452, 47748992.000000, 1518.000000, 8173.000000, 8212.000000, 8212.000000
2453, 47749152.000000, 1464.500000, 8159.000000, 8198.000000, 8183.000000
2454, 47749312.000000, 1429.000000, 8152.000000, 8195.000000, 8178.000000
2455, 47749472.000000, 1407.500000, 8158.000000, 8194.000000, 8177.000000
2456, 47749632.000000, 1392.000000, 8156.000000, 8194.000000, 8177.000000
2457, 47749792.000000, 1379.000000, 8159.000000, 8194.000000, 8181.000000
2458, 47749952.000000, 1363.000000, 8164.000000, 8196.000000, 8183.000000
2459, 47750112.000000, 1342.500000, 8161.000000, 8193.000000, 8178.000000
2460, 47750272.000000, 1312.000000, 8160.000000, 8192.000000, 8176.000000
2461, 47750432.000000, 1271.500000, 8162.000000, 8190.000000, 8175.000000
2462, 47750592.000000, 1242.000000, 8160.000000, 8190.000000, 8176.000000
2463, 47750752.000000, 1305.500000, 8163.000000, 8190.000000, 8174.000000
2464, 47750912.000000, 1525.000000, 8163.000000, 8189.000000, 8173.000000
2465, 47751072.000000, 1920.000000, 8160.000000, 8186.000000, 8170.000000
2466, 47751232.000000, 2365.000000, 8163.000000, 8186.000000, 8170.000000
2467, 47751392.000000, 2752.000000, 8161.000000, 8187.000000, 8170.000000
2468, 47751552.000000, 3014.000000, 8162.000000, 8188.000000, 8173.000000
2469, 47751712.000000, 3134.500000, 8164.000000, 8188.000000, 8171.000000
2470, 47751872.000000, 3131.000000, 8163.000000, 8185.000000, 8167.000000
2471, 47752032.000000, 3040.500000, 8166.000000, 8187.000000, 8173.000000
2472, 47752192.000000, 2907.000000, 8165.000000, 8188.000000, 8173.000000
2473, 47752352.000000, 2743.000000, 8168.000000, 8190.000000, 8177.000000
2474, 47752512.000000, 2568.000000, 8168.000000, 8188.000000, 8173.000000
2475, 47752672.000000, 2402.000000, 8169.000000, 8187.000000, 8173.000000
2476, 47752832.000000, 2281.000000, 8176.000000, 8194.000000, 8189.000000
2477, 47752992.000000, 2218.000000, 8184.000000, 8208.000000, 8212.000000
2478, 47753152.000000, 2195.000000, 8190.000000, 8208.000000, 8222.000000
2479, 47753312.000000, 2193.500000, 8185.000000, 8196.000000, 8196.000000
2480, 47753472.000000, 2192.000000, 8170.000000, 8185.000000, 8172.000000
2481, 47753632.000000, 2176.500000, 8167.000000, 8181.000000, 8162.000000
2482, 47753792.000000, 2139.000000, 8167.000000, 8183.000000, 8164.000000
2483, 47753952.000000, 2080.500000, 8167.000000, 8186.000000, 8167.000000
2484, 47754112.000000, 2004.000000, 8148.000000, 8232.000000, 8210.000000
2485, 47754272.000000, 1912.500000, 8460.000000, 8005.000000, 8147.000000
2486, 47754432.000000, 1819.000000, 8386.000000, 7873.000000, 7937.000000
2487, 47754592.000000, 1730.000000, 8176.000000, 8169.000000, 8158.000000
2488, 47754752.000000, 1653.000000, 8167.000000, 8225.000000, 8212.000000
2489, 47754912.000000, 1592.000000, 8164.000000, 8232.000000, 8219.000000
2490, 47755072.000000, 1544.000000, 8165.000000, 8234.000000, 8219.000000
2491, 47755232.000000, 1507.000000, 8173.000000, 8238.000000, 8227.000000
2492, 47755392.000000, 1479.000000, 8181.000000, 8244.000000, 8240.000000
2493, 47755552.000000, 1455.500000, 8187.000000, 8251.000000, 8251.000000
2494, 47755712.000000, 1432.000000, 8199.000000, 8259.000000, 8263.000000
2495, 47755872.000000, 1408.500000, 8213.000000, 8267.000000, 8280.000000
2496, 47756032.000000, 1384.000000, 8221.000000, 8274.000000, 8292.000000
2497, 47756192.000000, 1361.000000, 8223.000000, 8278.000000, 8300.000000
2498, 47756352.000000, 1340.000000, 8213.000000, 8264.000000, 8285.000000
2499, 47756512.000000, 1317.000000, 8192.000000, 8234.000000, 8241.000000
2500, 47756672.000000, 1296.000000, 8165.000000, 8209.000000, 8198.000000
2501, 47756832.000000, 1272.500000, 8151.000000, 8197.000000, 8175.000000
2502, 47756992.000000, 1249.000000, 8147.000000, 8195.000000, 8170.000000
2503, 47757152.000000, 1229.000000, 8149.000000, 8196.000000, 8171.000000
2504, 47757312.000000, 1207.000000, 8151.000000, 8196.000000, 8174.000000
2505, 47757472.000000, 1188.000000, 8156.000000, 8195.000000, 8174.000000
2506, 47757632.000000, 1171.000000, 8157.000000, 8194.000000, 8176.000000
2507, 47757792.000000, 1149.500000, 8162.000000, 8196.000000, 8179.000000
2508, 47757952.000000, 1115.000000, 8161.000000, 8195.000000, 8178.000000
2509, 47758112.000000, 1102.000000, 8164.000000, 8192.000000, 8175.000000
2510, 47758272.000000, 1210.000000, 8159.000000, 8188.000000, 8169.000000
2511, 47758432.000000, 1558.500000, 8162.000000, 8188.000000, 8171.000000
2512, 47758592.000000, 2087.000000, 8162.000000, 8188.000000, 8171.000000
2513, 47758752.000000, 2660.000000, 8163.000000, 8188.000000, 8172.000000
2514, 47758912.000000, 3149.000000, 8161.000000, 8186.000000, 8167.000000
2515, 47759072.000000, 3487.500000, 8160.000000, 8185.000000, 8165.000000
2516, 47759232.000000, 3669.000000, 8163.000000, 8185.000000, 8167.000000
2517, 47759392.000000, 3711.500000, 8165.000000, 8186.000000, 8169.000000
2518, 47759552.000000, 3660.000000, 8164.000000, 8187.000000, 8170.000000
2519, 47759712.000000, 3557.500000, 8164.000000, 8187.000000, 8168.000000
2520, 47759872.000000, 3427.000000, 8167.000000, 8185.000000, 8168.000000
2521, 47760032.000000, 3260.500000, 8168.000000, 8185.000000, 8170.000000
2522, 47760192.000000, 3072.000000, 8170.000000, 8187.000000, 8172.000000
2523, 47760352.000000, 2890.500000, 8179.000000, 8198.000000, 8195.000000
2524, 47760512.000000, 2749.000000, 8182.000000, 8207.000000, 8211.000000
2525, 47760672.000000, 2654.500000, 8192.000000, 8206.000000, 8221.000000
2526, 47760832.000000, 2595.000000, 8189.000000, 8194.000000, 8195.000000
2527, 47760992.000000, 2551.500000, 8174.000000, 8184.000000, 8171.000000
2528, 47761152.000000, 2508.000000, 8169.000000, 8180.000000, 8162.000000
2529, 47761312.000000, 2446.500000, 8168.000000, 8180.000000, 8161.000000
2530, 47761472.000000, 2370.000000, 8169.000000, 8179.000000, 8161.000000
2531, 47761632.000000, 2275.500000, 8144.000000, 8226.000000, 8199.000000
2532, 47761792.000000, 2170.000000, 8396.000000, 8056.000000, 8177.000000
2533, 47761952.000000, 2060.000000, 8471.000000, 7804.000000, 7915.000000
2534, 47762112.000000, 1951.000000, 8181.000000, 8154.000000, 8144.000000
2535, 47762272.000000, 1851.000000, 8171.000000, 8223.000000, 8212.000000
2536, 47762432.000000, 1762.000000, 8169.000000, 8233.000000, 8221.000000
2537, 47762592.000000, 1690.000000, 8170.000000, 8240.000000, 8229.000000
2538, 47762752.000000, 1632.000000, 8174.000000, 8241.000000, 8232.000000
2539, 47762912.000000, 1585.500000, 8180.000000, 8243.000000, 8238.000000
2540, 47763072.000000, 1548.000000, 8187.000000, 8246.000000, 8246.000000
2541, 47763232.000000, 1513.000000, 8199.000000, 8254.000000, 8260.000000
2542, 47763392.000000, 1478.000000, 8214.000000, 8264.000000, 8280.000000
2543, 47763552.000000, 1441.500000, 8226.000000, 8269.000000, 8293.000000
2544, 47763712.000000, 1405.000000, 8228.000000, 8269.000000, 8296.000000
2545, 47763872.000000, 1370.500000, 8220.000000, 8260.000000, 8284.000000
2546, 47764032.000000, 1339.000000, 8200.000000, 8237.000000, 8251.000000
2547, 47764192.000000, 1309.500000, 8170.000000, 8215.000000, 8210.000000
2548, 47764352.000000, 1280.000000, 8153.000000, 8199.000000, 8182.000000
2549, 47764512.000000, 1252.000000, 8148.000000, 8193.000000, 8171.000000
2550, 47764672.000000, 1220.000000, 8147.000000, 8194.000000, 8171.000000
2551, 47764832.000000, 1189.500000, 8150.000000, 8193.000000, 8172.000000
2552, 47764992.000000, 1163.000000, 8156.000000, 8195.000000, 8178.000000
2553, 47765152.000000, 1138.500000, 8156.000000, 8195.000000, 8178.000000
2554, 47765312.000000, 1116.000000, 8159.000000, 8194.000000, 8181.000000
2555, 47765472.000000, 1084.500000, 8160.000000, 8190.000000, 8174.000000
2556, 47765632.000000, 1046.000000, 8161.000000, 8188.000000, 8173.000000
2557, 47765792.000000, 1076.500000, 8164.000000, 8186.000000, 8173.000000
2558, 47765952.000000, 1428.000000, 8161.000000, 8186.000000, 8171.000000
2559, 47766112.000000, 2042.500000, 8161.000000, 8184.000000, 8167.000000
2560, 47766272.000000, 2694.000000, 8162.000000, 8182.000000, 8165.000000
2561, 47766432.000000, 3182.000000, 8160.000000, 8183.000000, 8165.000000
2562, 47766592.000000, 3410.000000, 8163.000000, 8185.000000, 8169.000000
2563, 47766752.000000, 3470.000000, 8164.000000, 8184.000000, 8169.000000
2564, 47766912.000000, 3405.000000, 8162.000000, 8183.000000, 8166.000000
2565, 47767072.000000, 3265.000000, 8163.000000, 8182.000000, 8166.000000
2566, 47767232.000000, 3123.000000, 8166.000000, 8184.000000, 8170.000000
2567, 47767392.000000, 2958.500000, 8168.000000, 8184.000000, 8171.000000
2568, 47767552.000000, 2777.000000, 8167.000000, 8186.000000, 8171.000000
2569, 47767712.000000, 2601.500000, 8166.000000, 8185.000000, 8171.000000
2570, 47767872.000000, 2460.000000, 8168.000000, 8183.000000, 8170.000000
2571, 47768032.000000, 2361.500000, 8171.000000, 8185.000000, 8174.000000
2572, 47768192.000000, 2300.000000, 8183.000000, 8202.000000, 8207.000000
2573, 47768352.000000, 2256.500000, 8188.000000, 8207.000000, 8219.000000
2574, 47768512.000000, 2212.000000, 8189.000000, 8202.000000, 8215.000000
2575, 47768672.000000, 2159.500000, 8187.000000, 8190.000000, 8190.000000
2576, 47768832.000000, 2089.000000, 8172.000000, 8181.000000, 8167.000000
2577, 47768992.000000, 2000.500000, 8168.000000, 8177.000000, 8158.000000
2578, 47769152.000000, 1901.000000, 8168.000000, 8178.000000, 8159.000000
2579, 47769312.000000, 1799.000000, 8168.000000, 8180.000000, 8161.000000
2580, 47769472.000000, 1698.000000, 8153.000000, 8220.000000, 8199.000000
2581, 47769632.000000, 1603.000000, 8464.000000, 7948.000000, 8100.000000
2582, 47769792.000000, 1519.000000, 8356.000000, 7883.000000, 7931.000000
2583, 47769952.000000, 1450.500000, 8184.000000, 8186.000000, 8182.000000
2584, 47770112.000000, 1396.000000, 8169.000000, 8226.000000, 8214.000000
2585, 47770272.000000, 1353.500000, 8165.000000, 8230.000000, 8215.000000
2586, 47770432.000000, 1319.000000, 8172.000000, 8235.000000, 8225.000000
2587, 47770592.000000, 1289.000000, 8175.000000, 8238.000000, 8230.000000
2588, 47770752.000000, 1259.000000, 8183.000000, 8242.000000, 8239.000000
2589, 47770912.000000, 1232.000000, 8188.000000, 8246.000000, 8246.000000
2590, 47771072.000000, 1206.000000, 8197.000000, 8251.000000, 8257.000000
2591, 47771232.000000, 1178.500000, 8214.000000, 8259.000000, 8275.000000
2592, 47771392.000000, 1154.000000, 8226.000000, 8265.000000, 8289.000000
2593, 47771552.000000, 1130.000000, 8226.000000, 8267.000000, 8293.000000
2594, 47771712.000000, 1112.000000, 8216.000000, 8257.000000, 8280.000000
2595, 47771872.000000, 1094.000000, 8192.000000, 8230.000000, 8241.000000
2596, 47772032.000000, 1076.000000, 8166.000000, 8208.000000, 8202.000000
2597, 47772192.000000, 1057.500000, 8151.000000, 8198.000000, 8180.000000
2598, 47772352.000000, 1037.000000, 8149.000000, 8195.000000, 8174.000000
2599, 47772512.000000, 1018.500000, 8150.000000, 8193.000000, 8174.000000
2600, 47772672.000000, 1003.000000, 8153.000000, 8192.000000, 8173.000000
2601, 47772832.000000, 986.500000, 8157.000000, 8194.000000, 8178.000000
2602, 47772992.000000, 970.000000, 8162.000000, 8195.000000, 8184.000000
2603, 47773152.000000, 942.500000, 8160.000000, 8193.000000, 8179.000000
2604, 47773312.000000, 915.000000, 8161.000000, 8190.000000, 8175.000000
2605, 47773472.000000, 955.500000, 8164.000000, 8188.000000, 8177.000000
2606, 47773632.000000, 1161.000000, 8164.000000, 8187.000000, 8174.000000
2607, 47773792.000000, 1579.000000, 8164.000000, 8186.000000, 8173.000000
2608, 47773952.000000, 2100.000000, 8162.000000, 8185.000000, 8170.000000
2609, 47774112.000000, 2583.000000, 8161.000000, 8184.000000, 8167.000000
2610, 47774272.000000, 2940.000000, 8163.000000, 8183.000000, 8169.000000
2611, 47774432.000000, 3129.000000, 8164.000000, 8183.000000, 8168.000000
2612, 47774592.000000, 3168.000000, 8163.000000, 8186.000000, 8170.000000
2613, 47774752.000000, 3098.500000, 8166.000000, 8186.000000, 8172.000000
2614, 47774912.000000, 2972.000000, 8167.000000, 8184.000000, 8169.000000
2615, 47775072.000000, 2818.000000, 8168.000000, 8183.000000, 8170.000000
2616, 47775232.000000, 2651.000000, 8169.000000, 8184.000000, 8172.000000
2617, 47775392.000000, 2478.000000, 8169.000000, 8186.000000, 8174.000000
2618, 47775552.000000, 2323.000000, 8173.000000, 8188.000000, 8179.000000
2619, 47775712.000000, 2213.500000, 8172.000000, 8186.000000, 8176.000000
2620, 47775872.000000, 2146.000000, 8176.000000, 8186.000000, 8177.000000
2621, 47776032.000000, 2112.500000, 8185.000000, 8199.000000, 8205.000000
2622, 47776192.000000, 2091.000000, 8189.000000, 8207.000000, 8220.000000
2623, 47776352.000000, 2065.500000, 8195.000000, 8206.000000, 8225.000000
2624, 47776512.000000, 2024.000000, 8191.000000, 8193.000000, 8199.000000
2625, 47776672.000000, 1962.000000, 8174.000000, 8182.000000, 8171.000000
2626, 47776832.000000, 1884.000000, 8171.000000, 8176.000000, 8161.000000
2627, 47776992.000000, 1792.500000, 8173.000000, 8177.000000, 8162.000000
2628, 47777152.000000, 1697.000000, 8172.000000, 8181.000000, 8165.000000
2629, 47777312.000000, 1605.500000, 8156.000000, 8220.000000, 8201.000000
2630, 47777472.000000, 1522.000000, 8467.000000, 7984.000000, 8140.000000
2631, 47777632.000000, 1451.000000, 8340.000000, 7898.000000, 7942.000000
2632, 47777792.000000, 1391.000000, 8185.000000, 8181.000000, 8176.000000
2633, 47777952.000000, 1346.000000, 8172.000000, 8223.000000, 8213.000000
2634, 47778112.000000, 1311.000000, 8173.000000, 8229.000000, 8220.000000
2635, 47778272.000000, 1284.000000, 8175.000000, 8229.000000, 8219.000000
2636, 47778432.000000, 1259.000000, 8181.000000, 8233.000000, 8229.000000
2637, 47778592.000000, 1234.000000, 8186.000000, 8237.000000, 8236.000000
2638, 47778752.000000, 1209.000000, 8195.000000, 8243.000000, 8248.000000
2639, 47778912.000000, 1185.500000, 8205.000000, 8247.000000, 8257.000000
2640, 47779072.000000, 1162.000000, 8218.000000, 8252.000000, 8270.000000
2641, 47779232.000000, 1139.500000, 8227.000000, 8257.000000, 8281.000000
2642, 47779392.000000, 1118.000000, 8226.000000, 8259.000000, 8285.000000
2643, 47779552.000000, 1096.500000, 8216.000000, 8253.000000, 8276.000000
2644, 47779712.000000, 1073.000000, 8195.000000, 8230.000000, 8243.000000
2645, 47779872.000000, 1052.500000, 8170.000000, 8205.000000, 8200.000000
2646, 47780032.000000, 1029.000000, 8155.000000, 8194.000000, 8177.000000
2647, 47780192.000000, 1005.500000, 8153.000000, 8192.000000, 8173.000000
2648, 47780352.000000, 985.000000, 8157.000000, 8193.000000, 8177.000000
2649, 47780512.000000, 968.000000, 8159.000000, 8192.000000, 8177.000000
2650, 47780672.000000, 954.000000, 8165.000000, 8191.000000, 8180.000000
2651, 47780832.000000, 936.000000, 8167.000000, 8191.000000, 8180.000000
2652, 47780992.000000, 913.000000, 8167.000000, 8191.000000, 8180.000000
2653, 47781152.000000, 882.000000, 8167.000000, 8188.000000, 8177.000000
2654, 47781312.000000, 863.000000, 8167.000000, 8186.000000, 8175.000000
2655, 47781472.000000, 949.000000, 8168.000000, 8182.000000, 8171.000000
2656, 47781632.000000, 1203.000000, 8165.000000, 8180.000000, 8165.000000
2657, 47781792.000000, 1652.000000, 8167.000000, 8182.000000, 8169.000000
2658, 47781952.000000, 2154.000000, 8168.000000, 8182.000000, 8169.000000
2659, 47782112.000000, 2585.000000, 8168.000000, 8182.000000, 8169.000000
2660, 47782272.000000, 2869.000000, 8169.000000, 8180.000000, 8166.000000
2661, 47782432.000000, 2986.500000, 8169.000000, 8180.000000, 8166.000000
2662, 47782592.000000, 2961.000000, 8170.000000, 8183.000000, 8170.000000
2663, 47782752.000000, 2833.000000, 8173.000000, 8184.000000, 8173.000000
2664, 47782912.000000, 2658.000000, 8174.000000, 8183.000000, 8174.000000
2665, 47783072.000000, 2463.500000, 8173.000000, 8182.000000, 8169.000000
2666, 47783232.000000, 2270.000000, 8175.000000, 8182.000000, 8172.000000
2667, 47783392.000000, 2105.500000, 8176.000000, 8185.000000, 8176.000000
2668, 47783552.000000, 1999.000000, 8178.000000, 8187.000000, 8181.000000
2669, 47783712.000000, 1951.500000, 8190.000000, 8200.000000, 8210.000000
2670, 47783872.000000, 1947.000000, 8197.000000, 8204.000000, 8222.000000
2671, 47784032.000000, 1961.000000, 8197.000000, 8201.000000, 8217.000000
2672, 47784192.000000, 1972.000000, 8190.000000, 8189.000000, 8189.000000
2673, 47784352.000000, 1960.500000, 8176.000000, 8182.000000, 8169.000000
2674, 47784512.000000, 1919.000000, 8174.000000, 8178.000000, 8163.000000
2675, 47784672.000000, 1851.000000, 8174.000000, 8176.000000, 8161.000000
2676, 47784832.000000, 1763.000000, 8167.000000, 8185.000000, 8162.000000
2677, 47784992.000000, 1669.500000, 8236.000000, 8208.000000, 8238.000000
2678, 47785152.000000, 1580.000000, 8514.000000, 7899.000000, 8087.000000
2679, 47785312.000000, 1501.000000, 8182.000000, 8026.000000, 7999.000000
2680, 47785472.000000, 1436.000000, 8185.000000, 8199.000000, 8196.000000
2681, 47785632.000000, 1386.000000, 8179.000000, 8220.000000, 8211.000000
2682, 47785792.000000, 1346.000000, 8177.000000, 8227.000000, 8218.000000
2683, 47785952.000000, 1313.000000, 8181.000000, 8228.000000, 8222.000000
2684, 47786112.000000, 1284.000000, 8184.000000, 8230.000000, 8226.000000
2685, 47786272.000000, 1258.500000, 8193.000000, 8232.000000, 8232.000000
2686, 47786432.000000, 1237.000000, 8203.000000, 8237.000000, 8243.000000
2687, 47786592.000000, 1220.000000, 8213.000000, 8245.000000, 8256.000000
2688, 47786752.000000, 1205.000000, 8223.000000, 8250.000000, 8268.000000
2689, 47786912.000000, 1190.500000, 8224.000000, 8251.000000, 8273.000000
2690, 47787072.000000, 1175.000000, 8220.000000, 8249.000000, 8267.000000
2691, 47787232.000000, 1161.000000, 8213.000000, 8239.000000, 8258.000000
2692, 47787392.000000, 1146.000000, 8193.000000, 8219.000000, 8227.000000
2693, 47787552.000000, 1128.000000, 8173.000000, 8201.000000, 8194.000000
2694, 47787712.000000, 1108.000000, 8164.000000, 8191.000000, 8178.000000
2695, 47787872.000000, 1088.000000, 8163.000000, 8188.000000, 8172.000000
2696, 47788032.000000, 1069.000000, 8169.000000, 8191.000000, 8179.000000
2697, 47788192.000000, 1052.500000, 8175.000000, 8192.000000, 8184.000000
2698, 47788352.000000, 1038.000000, 8178.000000, 8191.000000, 8185.000000
2699, 47788512.000000, 1020.000000, 8178.000000, 8187.000000, 8179.000000
2700, 47788672.000000, 997.000000, 8183.000000, 8185.000000, 8180.000000
2701, 47788832.000000, 965.000000, 8182.000000, 8184.000000, 8177.000000
2702, 47788992.000000, 933.000000, 8181.000000, 8182.000000, 8174.000000
2703, 47789152.000000, 962.000000, 8179.000000, 8182.000000, 8175.000000
2704, 47789312.000000, 1121.000000, 8182.000000, 8180.000000, 8173.000000
2705, 47789472.000000, 1476.500000, 8183.000000, 8176.000000, 8169.000000
2706, 47789632.000000, 1926.000000, 8182.000000, 8178.000000, 8169.000000
2707, 47789792.000000, 2350.500000, 8182.000000, 8180.000000, 8173.000000
2708, 47789952.000000, 2656.000000, 8185.000000, 8180.000000, 8171.000000
2709, 47790112.000000, 2805.500000, 8186.000000, 8178.000000, 8171.000000
2710, 47790272.000000, 2814.000000, 8188.000000, 8177.000000, 8170.000000
2711, 47790432.000000, 2704.500000, 8187.000000, 8178.000000, 8172.000000
2712, 47790592.000000, 2530.000000, 8193.000000, 8180.000000, 8176.000000
2713, 47790752.000000, 2322.000000, 8196.000000, 8180.000000, 8180.000000
2714, 47790912.000000, 2108.000000, 8202.000000, 8191.000000, 8203.000000
2715, 47791072.000000, 1927.000000, 8214.000000, 8195.000000, 8219.000000
2716, 47791232.000000, 1813.000000, 8213.000000, 8192.000000, 8217.000000
2717, 47791392.000000, 1775.000000, 8208.000000, 8183.000000, 8191.000000
2718, 47791552.000000, 1791.000000, 8195.000000, 8173.000000, 8170.000000
2719, 47791712.000000, 1832.500000, 8190.000000, 8169.000000, 8163.000000
2720, 47791872.000000, 1871.000000, 8193.000000, 8169.000000, 8161.000000
2721, 47792032.000000, 1881.000000, 8183.000000, 8187.000000, 8174.000000
2722, 47792192.000000, 1856.000000, 8306.000000, 8209.000000, 8278.000000
2723, 47792352.000000, 1795.500000, 8514.000000, 7929.000000, 8107.000000
2724, 47792512.000000, 1715.000000, 8170.000000, 8042.000000, 8013.000000
2725, 47792672.000000, 1625.500000, 8198.000000, 8182.000000, 8183.000000
2726, 47792832.000000, 1540.000000, 8198.000000, 8204.000000, 8203.000000
2727, 47792992.000000, 1464.500000, 8197.000000, 8210.000000, 8212.000000
2728, 47793152.000000, 1402.000000, 8203.000000, 8210.000000, 8214.000000
2729, 47793312.000000, 1350.500000, 8206.000000, 8213.000000, 8217.000000
2730, 47793472.000000, 1308.000000, 8215.000000, 8217.000000, 8225.000000
2731, 47793632.000000, 1275.500000, 8225.000000, 8223.000000, 8236.000000
2732, 47793792.000000, 1250.000000, 8239.000000, 8228.000000, 8248.000000
2733, 47793952.000000, 1229.000000, 8247.000000, 8232.000000, 8256.000000
2734, 47794112.000000, 1212.000000, 8244.000000, 8232.000000, 8258.000000
2735, 47794272.000000, 1197.500000, 8242.000000, 8230.000000, 8256.000000
2736, 47794432.000000, 1187.000000, 8228.000000, 8222.000000, 8247.000000
2737, 47794592.000000, 1177.000000, 8205.000000, 8204.000000, 8216.000000
2738, 47794752.000000, 1167.000000, 8184.000000, 8192.000000, 8192.000000
2739, 47794912.000000, 1157.000000, 8174.000000, 8184.000000, 8177.000000
2740, 47795072.000000, 1144.000000, 8175.000000, 8184.000000, 8176.000000
2741, 47795232.000000, 1133.000000, 8181.000000, 8186.000000, 8182.000000
2742, 47795392.000000, 1122.000000, 8184.000000, 8186.000000, 8184.000000
2743, 47795552.000000, 1108.500000, 8183.000000, 8186.000000, 8183.000000
2744, 47795712.000000, 1092.000000, 8188.000000, 8182.000000, 8182.000000
2745, 47795872.000000, 1065.500000, 8185.000000, 8178.000000, 8175.000000
2746, 47796032.000000, 1030.000000, 8185.000000, 8178.000000, 8175.000000
2747, 47796192.000000, 990.500000, 8186.000000, 8178.000000, 8177.000000
2748, 47796352.000000, 965.000000, 8180.000000, 8178.000000, 8177.000000
2749, 47796512.000000, 1002.500000, 8180.000000, 8177.000000, 8172.000000
2750, 47796672.000000, 1172.000000, 8182.000000, 8176.000000, 8171.000000
2751, 47796832.000000, 1501.000000, 8183.000000, 8175.000000, 8170.000000
2752, 47796992.000000, 1901.000000, 8183.000000, 8179.000000, 8174.000000
2753, 47797152.000000, 2262.000000, 8185.000000, 8177.000000, 8174.000000
2754, 47797312.000000, 2518.000000, 8182.000000, 8174.000000, 8169.000000
2755, 47797472.000000, 2635.500000, 8187.000000, 8179.000000, 8175.000000
2756, 47797632.000000, 2624.000000, 8197.000000, 8192.000000, 8206.000000
2757, 47797792.000000, 2512.500000, 8204.000000, 8199.000000, 8222.000000
2758, 47797952.000000, 2334.000000, 8200.000000, 8190.000000, 8204.000000
2759, 47798112.000000, 2117.500000, 8190.000000, 8178.000000, 8176.000000
2760, 47798272.000000, 1903.000000, 8177.000000, 8168.000000, 8157.000000
2761, 47798432.000000, 1739.500000, 8180.000000, 8170.000000, 8159.000000
2762, 47798592.000000, 1652.000000, 8178.000000, 8171.000000, 8159.000000
2763, 47798752.000000, 1646.000000, 8164.000000, 8209.000000, 8192.000000
2764, 47798912.000000, 1701.000000, 8422.000000, 8167.000000, 8295.000000
2765, 47799072.000000, 1782.500000, 8408.000000, 7956.000000, 8071.000000
2766, 47799232.000000, 1849.000000, 8161.000000, 8099.000000, 8070.000000
2767, 47799392.000000, 1878.500000, 8185.000000, 8192.000000, 8187.000000
2768, 47799552.000000, 1868.000000, 8181.000000, 8204.000000, 8198.000000
2769, 47799712.000000, 1817.500000, 8183.000000, 8209.000000, 8200.000000
2770, 47799872.000000, 1746.000000, 8187.000000, 8209.000000, 8203.000000
2771, 47800032.000000, 1665.000000, 8198.000000, 8212.000000, 8211.000000
2772, 47800192.000000, 1586.000000, 8205.000000, 8220.000000, 8224.000000
2773, 47800352.000000, 1518.500000, 8220.000000, 8225.000000, 8235.000000
2774, 47800512.000000, 1461.000000, 8227.000000, 8228.000000, 8240.000000
2775, 47800672.000000, 1420.000000, 8235.000000, 8232.000000, 8248.000000
2776, 47800832.000000, 1388.000000, 8236.000000, 8236.000000, 8256.000000
2777, 47800992.000000, 1367.000000, 8230.000000, 8236.000000, 8258.000000
2778, 47801152.000000, 1353.000000, 8208.000000, 8222.000000, 8236.000000
2779, 47801312.000000, 1344.000000, 8183.000000, 8203.000000, 8204.000000
2780, 47801472.000000, 1337.000000, 8165.000000, 8193.000000, 8182.000000
2781, 47801632.000000, 1328.000000, 8161.000000, 8189.000000, 8174.000000
2782, 47801792.000000, 1318.000000, 8163.000000, 8192.000000, 8180.000000
2783, 47801952.000000, 1308.000000, 8168.000000, 8195.000000, 8184.000000
2784, 47802112.000000, 1298.000000, 8169.000000, 8191.000000, 8181.000000
2785, 47802272.000000, 1288.000000, 8174.000000, 8187.000000, 8178.000000
2786, 47802432.000000, 1274.000000, 8178.000000, 8188.000000, 8180.000000
2787, 47802592.000000, 1249.000000, 8173.000000, 8187.000000, 8178.000000
2788, 47802752.000000, 1216.000000, 8172.000000, 8186.000000, 8178.000000
2789, 47802912.000000, 1183.500000, 8169.000000, 8187.000000, 8175.000000
2790, 47803072.000000, 1161.000000, 8172.000000, 8183.000000, 8171.000000
2791, 47803232.000000, 1200.000000, 8171.000000, 8184.000000, 8171.000000
2792, 47803392.000000, 1352.000000, 8172.000000, 8183.000000, 8173.000000
2793, 47803552.000000, 1658.000000, 8172.000000, 8186.000000, 8176.000000
2794, 47803712.000000, 2029.000000, 8172.000000, 8185.000000, 8175.000000
2795, 47803872.000000, 2374.000000, 8182.000000, 8197.000000, 8199.000000
2796, 47804032.000000, 2618.000000, 8192.000000, 8207.000000, 8220.000000
2797, 47804192.000000, 2735.000000, 8194.000000, 8200.000000, 8214.000000
2798, 47804352.000000, 2727.000000, 8184.000000, 8189.000000, 8185.000000
2799, 47804512.000000, 2612.500000, 8172.000000, 8179.000000, 8163.000000
2800, 47804672.000000, 2434.000000, 8169.000000, 8175.000000, 8157.000000
2801, 47804832.000000, 2217.500000, 8172.000000, 8176.000000, 8158.000000
2802, 47804992.000000, 2007.000000, 8163.000000, 8196.000000, 8174.000000
2803, 47805152.000000, 1844.000000, 8290.000000, 8215.000000, 8275.000000
2804, 47805312.000000, 1755.000000, 8485.000000, 7955.000000, 8117.000000
2805, 47805472.000000, 1746.000000, 8148.000000, 8046.000000, 8008.000000
2806, 47805632.000000, 1793.000000, 8183.000000, 8186.000000, 8177.000000
2807, 47805792.000000, 1862.500000, 8175.000000, 8210.000000, 8196.000000
2808, 47805952.000000, 1926.000000, 8177.000000, 8214.000000, 8201.000000
2809, 47806112.000000, 1956.500000, 8184.000000, 8216.000000, 8206.000000
2810, 47806272.000000, 1951.000000, 8186.000000, 8217.000000, 8208.000000
2811, 47806432.000000, 1905.500000, 8199.000000, 8223.000000, 8223.000000
2812, 47806592.000000, 1834.000000, 8208.000000, 8230.000000, 8234.000000
2813, 47806752.000000, 1747.500000, 8220.000000, 8235.000000, 8245.000000
2814, 47806912.000000, 1662.000000, 8228.000000, 8238.000000, 8251.000000
2815, 47807072.000000, 1585.500000, 8230.000000, 8243.000000, 8259.000000
2816, 47807232.000000, 1526.000000, 8224.000000, 8243.000000, 8259.000000
2817, 47807392.000000, 1482.000000, 8210.000000, 8232.000000, 8245.000000
2818, 47807552.000000, 1448.000000, 8184.000000, 8210.000000, 8212.000000
2819, 47807712.000000, 1423.000000, 8167.000000, 8199.000000, 8186.000000
2820, 47807872.000000, 1403.000000, 8161.000000, 8190.000000, 8173.000000
2821, 47808032.000000, 1389.500000, 8160.000000, 8193.000000, 8177.000000
2822, 47808192.000000, 1379.000000, 8165.000000, 8195.000000, 8182.000000
2823, 47808352.000000, 1369.000000, 8165.000000, 8195.000000, 8178.000000
2824, 47808512.000000, 1361.000000, 8167.000000, 8191.000000, 8178.000000
2825, 47808672.000000, 1347.500000, 8172.000000, 8188.000000, 8176.000000
2826, 47808832.000000, 1324.000000, 8172.000000, 8190.000000, 8180.000000
2827, 47808992.000000, 1292.500000, 8170.000000, 8189.000000, 8178.000000
2828, 47809152.000000, 1257.000000, 8168.000000, 8186.000000, 8175.000000
2829, 47809312.000000, 1241.000000, 8167.000000, 8186.000000, 8171.000000
2830, 47809472.000000, 1300.000000, 8169.000000, 8184.000000, 8172.000000
2831, 47809632.000000, 1521.000000, 8168.000000, 8183.000000, 8172.000000
2832, 47809792.000000, 1883.000000, 8173.000000, 8187.000000, 8178.000000
2833, 47809952.000000, 2306.500000, 8180.000000, 8201.000000, 8202.000000
2834, 47810112.000000, 2677.000000, 8187.000000, 8206.000000, 8216.000000
2835, 47810272.000000, 2926.000000, 8188.000000, 8197.000000, 8207.000000
2836, 47810432.000000, 3031.000000, 8183.000000, 8188.000000, 8185.000000
2837, 47810592.000000, 3001.000000, 8171.000000, 8181.000000, 8166.000000
2838, 47810752.000000, 2869.000000, 8165.000000, 8177.000000, 8156.000000
2839, 47810912.000000, 2672.000000, 8163.000000, 8175.000000, 8153.000000
2840, 47811072.000000, 2449.000000, 8157.000000, 8187.000000, 8159.000000
2841, 47811232.000000, 2234.000000, 8239.000000, 8213.000000, 8241.000000
2842, 47811392.000000, 2062.000000, 8485.000000, 7941.000000, 8107.000000
2843, 47811552.000000, 1968.500000, 8165.000000, 8024.000000, 7993.000000
2844, 47811712.000000, 1949.000000, 8176.000000, 8185.000000, 8174.000000
2845, 47811872.000000, 1983.500000, 8171.000000, 8211.000000, 8196.000000
2846, 47812032.000000, 2041.000000, 8172.000000, 8216.000000, 8202.000000
2847, 47812192.000000, 2091.000000, 8179.000000, 8220.000000, 8211.000000
2848, 47812352.000000, 2116.000000, 8183.000000, 8223.000000, 8216.000000
2849, 47812512.000000, 2096.500000, 8190.000000, 8227.000000, 8221.000000
2850, 47812672.000000, 2042.000000, 8200.000000, 8232.000000, 8234.000000
2851, 47812832.000000, 1956.500000, 8212.000000, 8239.000000, 8245.000000
2852, 47812992.000000, 1859.000000, 8221.000000, 8248.000000, 8262.000000
2853, 47813152.000000, 1759.000000, 8223.000000, 8252.000000, 8266.000000
2854, 47813312.000000, 1673.000000, 8219.000000, 8251.000000, 8268.000000
2855, 47813472.000000, 1605.500000, 8204.000000, 8234.000000, 8245.000000
2856, 47813632.000000, 1552.000000, 8180.000000, 8214.000000, 8213.000000
2857, 47813792.000000, 1514.500000, 8162.000000, 8200.000000, 8187.000000
2858, 47813952.000000, 1486.000000, 8153.000000, 8195.000000, 8176.000000
2859, 47814112.000000, 1465.500000, 8153.000000, 8193.000000, 8174.000000
2860, 47814272.000000, 1449.000000, 8158.000000, 8192.000000, 8175.000000
2861, 47814432.000000, 1435.000000, 8161.000000, 8194.000000, 8177.000000
2862, 47814592.000000, 1423.000000, 8163.000000, 8193.000000, 8179.000000
2863, 47814752.000000, 1409.000000, 8163.000000, 8193.000000, 8179.000000
2864, 47814912.000000, 1385.000000, 8163.000000, 8190.000000, 8174.000000
2865, 47815072.000000, 1348.000000, 8162.000000, 8187.000000, 8172.000000
2866, 47815232.000000, 1311.000000, 8163.000000, 8187.000000, 8171.000000
2867, 47815392.000000, 1315.500000, 8161.000000, 8185.000000, 8170.000000
2868, 47815552.000000, 1452.000000, 8163.000000, 8186.000000, 8170.000000
2869, 47815712.000000, 1774.000000, 8160.000000, 8184.000000, 8166.000000
2870, 47815872.000000, 2231.000000, 8161.000000, 8182.000000, 8165.000000
2871, 47816032.000000, 2699.500000, 8167.000000, 8183.000000, 8170.000000
2872, 47816192.000000, 3075.000000, 8175.000000, 8198.000000, 8196.000000
2873, 47816352.000000, 3284.500000, 8180.000000, 8207.000000, 8214.000000
2874, 47816512.000000, 3339.000000, 8182.000000, 8200.000000, 8208.000000
2875, 47816672.000000, 3249.500000, 8180.000000, 8189.000000, 8184.000000
2876, 47816832.000000, 3069.000000, 8164.000000, 8180.000000, 8161.000000
2877, 47816992.000000, 2843.000000, 8164.000000, 8178.000000, 8157.000000
2878, 47817152.000000, 2599.000000, 8162.000000, 8178.000000, 8155.000000
2879, 47817312.000000, 2376.000000, 8155.000000, 8186.000000, 8155.000000
2880, 47817472.000000, 2209.000000, 8200.000000, 8204.000000, 8208.000000
2881, 47817632.000000, 2127.000000, 8484.000000, 7917.000000, 8077.000000
2882, 47817792.000000, 2111.000000, 8201.000000, 7990.000000, 7969.000000
2883, 47817952.000000, 2141.500000, 8174.000000, 8188.000000, 8177.000000
2884, 47818112.000000, 2184.000000, 8164.000000, 8217.000000, 8198.000000
2885, 47818272.000000, 2214.000000, 8166.000000, 8222.000000, 8206.000000
2886, 47818432.000000, 2210.000000, 8171.000000, 8226.000000, 8213.000000
2887, 47818592.000000, 2160.500000, 8176.000000, 8230.000000, 8219.000000
2888, 47818752.000000, 2080.000000, 8183.000000, 8234.000000, 8227.000000
2889, 47818912.000000, 1976.500000, 8189.000000, 8238.000000, 8235.000000
2890, 47819072.000000, 1867.000000, 8200.000000, 8244.000000, 8246.000000
2891, 47819232.000000, 1762.000000, 8215.000000, 8254.000000, 8266.000000
2892, 47819392.000000, 1671.000000, 8216.000000, 8259.000000, 8272.000000
2893, 47819552.000000, 1599.500000, 8209.000000, 8257.000000, 8271.000000
2894, 47819712.000000, 1545.000000, 8198.000000, 8241.000000, 8252.000000
2895, 47819872.000000, 1505.000000, 8177.000000, 8216.000000, 8215.000000
2896, 47820032.000000, 1474.000000, 8157.000000, 8201.000000, 8185.000000
2897, 47820192.000000, 1446.500000, 8150.000000, 8195.000000, 8176.000000
2898, 47820352.000000, 1423.000000, 8153.000000, 8193.000000, 8176.000000
2899, 47820512.000000, 1404.500000, 8154.000000, 8193.000000, 8175.000000
2900, 47820672.000000, 1389.000000, 8157.000000, 8192.000000, 8174.000000
2901, 47820832.000000, 1377.000000, 8162.000000, 8192.000000, 8177.000000
2902, 47820992.000000, 1363.000000, 8162.000000, 8193.000000, 8180.000000
2903, 47821152.000000, 1337.000000, 8163.000000, 8191.000000, 8177.000000
2904, 47821312.000000, 1296.000000, 8162.000000, 8188.000000, 8173.000000
2905, 47821472.000000, 1252.500000, 8161.000000, 8186.000000, 8169.000000
2906, 47821632.000000, 1272.000000, 8160.000000, 8185.000000, 8169.000000
2907, 47821792.000000, 1465.500000, 8162.000000, 8186.000000, 8171.000000
2908, 47821952.000000, 1875.000000, 8162.000000, 8185.000000, 8170.000000
2909, 47822112.000000, 2407.000000, 8162.000000, 8183.000000, 8168.000000
2910, 47822272.000000, 2918.000000, 8162.000000, 8184.000000, 8165.000000
2911, 47822432.000000, 3283.000000, 8162.000000, 8183.000000, 8166.000000
2912, 47822592.000000, 3481.000000, 8165.000000, 8186.000000, 8171.000000
2913, 47822752.000000, 3491.500000, 8165.000000, 8186.000000, 8171.000000
2914, 47822912.000000, 3380.000000, 8175.000000, 8194.000000, 8190.000000
