1775, 67721480.000000, 2485.250000, 8187.500000, 8185.500000, 8159.000000
1776, 67721640.000000, 2446.375000, 8180.500000, 8181.000000, 8152.500000
1777, 67721800.000000, 2394.000000, 8175.500000, 8174.000000, 8137.500000
1778, 67721960.000000, 2328.875000, 8168.000000, 8184.000000, 8143.000000
1779, 67722120.000000, 2251.875000, 8184.500000, 8217.000000, 8189.500000
1780, 67722280.000000, 2168.750000, 8611.000000, 7920.500000, 8097.000000
1781, 67722440.000000, 2083.750000, 8315.500000, 7927.500000, 7930.000000
1782, 67722600.000000, 2001.000000, 8163.000000, 8174.500000, 8131.500000
1783, 67722760.000000, 1922.250000, 8152.500000, 8213.500000, 8169.500000
1784, 67722920.000000, 1848.875000, 8154.500000, 8226.000000, 8184.500000
1785, 67723080.000000, 1775.625000, 8159.000000, 8224.500000, 8182.000000
1786, 67723240.000000, 1710.375000, 8168.000000, 8229.000000, 8198.500000
1787, 67723400.000000, 1650.125000, 8180.000000, 8230.000000, 8201.000000
1788, 67723560.000000, 1592.625000, 8187.000000, 8234.500000, 8208.500000
1789, 67723720.000000, 1536.125000, 8208.500000, 8240.000000, 8224.000000
1790, 67723880.000000, 1480.500000, 8230.500000, 8244.500000, 8239.500000
1791, 67724040.000000, 1435.875000, 8246.000000, 8250.500000, 8253.500000
1792, 67724200.000000, 1397.250000, 8245.000000, 8248.500000, 8254.000000
1793, 67724360.000000, 1365.500000, 8224.500000, 8244.000000, 8243.000000
1794, 67724520.000000, 1334.875000, 8194.500000, 8226.000000, 8213.000000
1795, 67724680.000000, 1302.500000, 8159.000000, 8203.000000, 8170.500000
1796, 67724840.000000, 1273.125000, 8146.000000, 8201.000000, 8167.000000
1797, 67725000.000000, 1244.500000, 8138.000000, 8196.500000, 8153.500000
1798, 67725160.000000, 1214.500000, 8138.500000, 8193.000000, 8150.500000
1799, 67725320.000000, 1187.750000, 8140.500000, 8195.500000, 8154.500000
1800, 67725480.000000, 1165.000000, 8143.000000, 8201.500000, 8167.500000
1801, 67725640.000000, 1145.875000, 8147.500000, 8199.000000, 8165.500000
1802, 67725800.000000, 1118.875000, 8151.500000, 8196.000000, 8165.500000
1803, 67725960.000000, 1086.000000, 8147.000000, 8191.500000, 8157.500000
1804, 67726120.000000, 1095.375000, 8147.500000, 8190.000000, 8152.500000
1805, 67726280.000000, 1226.125000, 8150.000000, 8190.500000, 8159.500000
1806, 67726440.000000, 1535.625000, 8152.500000, 8193.500000, 8165.500000
1807, 67726600.000000, 1970.250000, 8150.000000, 8188.500000, 8157.500000
1808, 67726760.000000, 2425.375000, 8148.000000, 8188.000000, 8156.000000
1809, 67726920.000000, 2807.250000, 8149.000000, 8189.000000, 8158.000000
1810, 67727080.000000, 3071.500000, 8148.500000, 8188.000000, 8156.500000
1811, 67727240.000000, 3215.125000, 8154.500000, 8188.000000, 8162.500000
1812, 67727400.000000, 3266.375000, 8163.000000, 8189.500000, 8169.500000
1813, 67727560.000000, 3258.500000, 8162.000000, 8185.500000, 8162.000000
1814, 67727720.000000, 3217.875000, 8162.500000, 8185.000000, 8164.500000
1815, 67727880.000000, 3155.125000, 8165.000000, 8187.500000, 8166.500000
1816, 67728040.000000, 3070.500000, 8161.000000, 8191.000000, 8173.000000
1817, 67728200.000000, 2969.375000, 8164.500000, 8204.000000, 8192.000000
1818, 67728360.000000, 2855.875000, 8157.000000, 8208.000000, 8200.000000
1819, 67728520.000000, 2753.500000, 8146.000000, 8207.500000, 8191.000000
1820, 67728680.000000, 2677.000000, 8129.500000, 8199.000000, 8164.500000
1821, 67728840.000000, 2629.375000, 8107.500000, 8200.500000, 8158.500000
1822, 67729000.000000, 2597.500000, 8093.500000, 8199.500000, 8151.000000
1823, 67729160.000000, 2564.875000, 8085.000000, 8198.000000, 8142.000000
1824, 67729320.000000, 2516.250000, 8060.500000, 8229.000000, 8162.500000
1825, 67729480.000000, 2449.250000, 8230.500000, 8225.500000, 8256.500000
1826, 67729640.000000, 2366.875000, 8513.000000, 7857.500000, 8004.500000
1827, 67729800.000000, 2271.000000, 8070.000000, 8054.500000, 7966.500000
1828, 67729960.000000, 2169.375000, 8072.500000, 8212.000000, 8148.500000
1829, 67730120.000000, 2069.250000, 8064.500000, 8231.500000, 8164.000000
1830, 67730280.000000, 1977.125000, 8064.000000, 8239.000000, 8177.000000
1831, 67730440.000000, 1891.000000, 8068.500000, 8242.000000, 8181.000000
1832, 67730600.000000, 1814.875000, 8072.000000, 8241.500000, 8182.500000
1833, 67730760.000000, 1740.500000, 8081.500000, 8247.000000, 8191.000000
1834, 67730920.000000, 1672.125000, 8091.000000, 8254.500000, 8205.500000
1835, 67731080.000000, 1596.000000, 8106.000000, 8260.500000, 8217.500000
1836, 67731240.000000, 1516.625000, 8125.000000, 8266.500000, 8235.000000
1837, 67731400.000000, 1442.625000, 8127.000000, 8270.000000, 8241.000000
1838, 67731560.000000, 1382.875000, 8118.500000, 8264.500000, 8238.000000
1839, 67731720.000000, 1337.375000, 8091.000000, 8258.000000, 8219.000000
1840, 67731880.000000, 1310.000000, 8049.000000, 8238.500000, 8181.500000
1841, 67732040.000000, 1295.500000, 8026.500000, 8226.000000, 8158.000000
1842, 67732200.000000, 1289.375000, 8012.500000, 8214.000000, 8131.000000
1843, 67732360.000000, 1284.375000, 8018.000000, 8224.000000, 8149.500000
1844, 67732520.000000, 1260.625000, 8024.000000, 8230.500000, 8159.000000
1845, 67732680.000000, 1209.750000, 8042.000000, 8238.500000, 8176.500000
1846, 67732840.000000, 1140.875000, 8058.500000, 8238.500000, 8177.000000
1847, 67733000.000000, 1068.750000, 8062.500000, 8233.500000, 8181.500000
1848, 67733160.000000, 1011.125000, 8071.500000, 8232.000000, 8195.000000
1849, 67733320.000000, 980.125000, 8069.500000, 8230.500000, 8199.000000
1850, 67733480.000000, 1016.875000, 8071.500000, 8222.000000, 8192.000000
1851, 67733640.000000, 1193.375000, 8075.500000, 8215.500000, 8188.000000
1852, 67733800.000000, 1510.500000, 8082.500000, 8215.000000, 8191.500000
1853, 67733960.000000, 1906.125000, 8089.000000, 8216.500000, 8203.500000
1854, 67734120.000000, 2292.250000, 8092.500000, 8223.000000, 8217.000000
1855, 67734280.000000, 2615.250000, 8101.000000, 8218.500000, 8213.500000
1856, 67734440.000000, 2853.875000, 8105.000000, 8216.500000, 8213.000000
1857, 67734600.000000, 3027.125000, 8102.000000, 8208.500000, 8202.000000
1858, 67734760.000000, 3165.125000, 8113.500000, 8209.000000, 8207.000000
1859, 67734920.000000, 3304.625000, 8118.000000, 8211.000000, 8213.000000
1860, 67735080.000000, 3466.125000, 8125.000000, 8220.500000, 8234.000000
1861, 67735240.000000, 3635.125000, 8133.000000, 8223.500000, 8244.000000
1862, 67735400.000000, 3752.875000, 8137.500000, 8223.500000, 8250.000000
1863, 67735560.000000, 3802.250000, 8143.500000, 8220.000000, 8257.500000
1864, 67735720.000000, 3793.375000, 8143.000000, 8217.000000, 8249.000000
1865, 67735880.000000, 3752.125000, 8130.000000, 8210.000000, 8233.000000
1866, 67736040.000000, 3685.625000, 8119.500000, 8200.500000, 8214.000000
1867, 67736200.000000, 3593.875000, 8127.000000, 8200.000000, 8225.500000
1868, 67736360.000000, 3481.375000, 8114.000000, 8201.500000, 8218.500000
1869, 67736520.000000, 3356.500000, 8160.500000, 8241.500000, 8288.500000
1870, 67736680.000000, 3224.250000, 8580.500000, 8016.000000, 8261.000000
1871, 67736840.000000, 3085.875000, 8236.000000, 8017.500000, 8077.500000
1872, 67737000.000000, 2941.750000, 8132.000000, 8190.500000, 8206.500000
1873, 67737160.000000, 2794.500000, 8134.500000, 8236.000000, 8256.000000
1874, 67737320.000000, 2645.125000, 8134.500000, 8232.500000, 8238.000000
1875, 67737480.000000, 2511.375000, 8146.000000, 8239.000000, 8251.500000
1876, 67737640.000000, 2407.250000, 8162.000000, 8239.500000, 8256.500000
1877, 67737800.000000, 2312.125000, 8178.500000, 8238.000000, 8259.000000
1878, 67737960.000000, 2209.125000, 8195.500000, 8237.000000, 8261.000000
1879, 67738120.000000, 2106.375000, 8215.000000, 8237.000000, 8266.500000
1880, 67738280.000000, 2019.000000, 8245.000000, 8235.000000, 8272.500000
1881, 67738440.000000, 1945.500000, 8260.500000, 8238.500000, 8289.000000
1882, 67738600.000000, 1875.875000, 8253.000000, 8244.000000, 8290.500000
1883, 67738760.000000, 1801.250000, 8236.000000, 8249.500000, 8290.000000
1884, 67738920.000000, 1724.625000, 8190.000000, 8242.500000, 8264.500000
1885, 67739080.000000, 1651.500000, 8147.500000, 8242.500000, 8244.000000
1886, 67739240.000000, 1583.125000, 8126.000000, 8238.000000, 8229.500000
1887, 67739400.000000, 1522.500000, 8125.500000, 8228.000000, 8212.000000
1888, 67739560.000000, 1477.625000, 8159.000000, 8224.500000, 8224.500000
1889, 67739720.000000, 1449.000000, 8198.000000, 8219.000000, 8228.000000
1890, 67739880.000000, 1430.625000, 8246.500000, 8201.000000, 8223.500000
1891, 67740040.000000, 1414.125000, 8305.500000, 8167.500000, 8207.000000
1892, 67740200.000000, 1395.000000, 8354.500000, 8148.000000, 8202.000000
1893, 67740360.000000, 1374.375000, 8392.500000, 8142.000000, 8211.000000
1894, 67740520.000000, 1377.875000, 8417.000000, 8131.500000, 8205.500000
1895, 67740680.000000, 1455.375000, 8435.500000, 8120.000000, 8194.500000
1896, 67740840.000000, 1667.625000, 8448.000000, 8108.000000, 8182.000000
1897, 67741000.000000, 1988.500000, 8448.500000, 8101.000000, 8173.000000
1898, 67741160.000000, 2359.875000, 8451.000000, 8101.000000, 8174.500000
1899, 67741320.000000, 2688.500000, 8440.500000, 8100.000000, 8167.000000
1900, 67741480.000000, 2909.375000, 8420.000000, 8104.000000, 8162.000000
1901, 67741640.000000, 3008.500000, 8401.500000, 8104.000000, 8152.500000
1902, 67741800.000000, 3005.000000, 8394.000000, 8112.000000, 8156.000000
1903, 67741960.000000, 2934.875000, 8383.000000, 8118.000000, 8160.000000
1904, 67742120.000000, 2821.750000, 8375.000000, 8120.500000, 8160.500000
1905, 67742280.000000, 2679.000000, 8353.000000, 8116.500000, 8136.500000
1906, 67742440.000000, 2512.250000, 8325.000000, 8104.500000, 8100.500000
1907, 67742600.000000, 2332.125000, 8309.500000, 8106.500000, 8096.500000
1908, 67742760.000000, 2167.375000, 8300.500000, 8110.000000, 8101.500000
1909, 67742920.000000, 2055.625000, 8302.000000, 8116.000000, 8103.500000
1910, 67743080.000000, 2007.750000, 8288.000000, 8163.000000, 8147.500000
1911, 67743240.000000, 2004.375000, 8546.000000, 8116.500000, 8237.500000
1912, 67743400.000000, 2048.250000, 8455.000000, 7943.000000, 8020.500000
1913, 67743560.000000, 2153.500000, 8082.500000, 8125.500000, 8042.500000
1914, 67743720.000000, 2316.375000, 8079.500000, 8216.000000, 8139.500000
1915, 67743880.000000, 2491.625000, 8067.000000, 8226.500000, 8142.500000
1916, 67744040.000000, 2609.500000, 8076.000000, 8224.000000, 8146.000000
1917, 67744200.000000, 2631.000000, 8096.000000, 8232.500000, 8173.000000
1918, 67744360.000000, 2558.125000, 8113.500000, 8227.000000, 8173.000000
1919, 67744520.000000, 2424.875000, 8133.500000, 8224.500000, 8180.500000
1920, 67744680.000000, 2253.625000, 8158.500000, 8219.500000, 8179.500000
1921, 67744840.000000, 2069.875000, 8198.000000, 8216.500000, 8199.000000
1922, 67745000.000000, 1890.875000, 8228.000000, 8216.500000, 8208.000000
1923, 67745160.000000, 1729.500000, 8241.500000, 8225.000000, 8221.500000
1924, 67745320.000000, 1589.125000, 8229.500000, 8228.500000, 8224.500000
1925, 67745480.000000, 1477.750000, 8196.000000, 8220.000000, 8208.000000
1926, 67745640.000000, 1414.625000, 8153.000000, 8208.500000, 8185.000000
1927, 67745800.000000, 1414.875000, 8121.500000, 8199.000000, 8169.500000
1928, 67745960.000000, 1492.375000, 8107.000000, 8194.500000, 8158.500000
1929, 67746120.000000, 1600.000000, 8102.000000, 8199.000000, 8168.000000
1930, 67746280.000000, 1685.625000, 8102.500000, 8198.500000, 8168.000000
1931, 67746440.000000, 1716.125000, 8102.500000, 8199.500000, 8170.000000
1932, 67746600.000000, 1709.000000, 8105.000000, 8197.500000, 8176.500000
1933, 67746760.000000, 1681.875000, 8119.000000, 8201.000000, 8180.000000
1934, 67746920.000000, 1625.875000, 8122.500000, 8194.000000, 8174.000000
1935, 67747080.000000, 1536.750000, 8127.000000, 8193.500000, 8180.500000
1936, 67747240.000000, 1438.375000, 8133.000000, 8187.000000, 8173.000000
1937, 67747400.000000, 1405.000000, 8121.000000, 8186.000000, 8162.000000
1938, 67747560.000000, 1486.750000, 8110.000000, 8200.000000, 8174.500000
1939, 67747720.000000, 1675.625000, 8092.000000, 8205.500000, 8171.000000
1940, 67747880.000000, 1917.250000, 8105.500000, 8216.000000, 8197.500000
1941, 67748040.000000, 2155.625000, 8103.000000, 8224.000000, 8207.000000
1942, 67748200.000000, 2337.875000, 8115.500000, 8213.500000, 8197.000000
1943, 67748360.000000, 2445.625000, 8131.500000, 8205.500000, 8184.500000
1944, 67748520.000000, 2478.125000, 8135.000000, 8187.500000, 8161.500000
1945, 67748680.000000, 2474.125000, 8183.500000, 8171.000000, 8164.500000
1946, 67748840.000000, 2452.750000, 8212.500000, 8151.500000, 8150.500000
1947, 67749000.000000, 2415.500000, 8254.000000, 8144.000000, 8157.000000
1948, 67749160.000000, 2352.000000, 8273.500000, 8184.000000, 8207.000000
1949, 67749320.000000, 2259.875000, 8692.000000, 8017.000000, 8241.000000
1950, 67749480.000000, 2151.875000, 8483.500000, 7894.500000, 7997.500000
1951, 67749640.000000, 2042.750000, 8265.000000, 8099.500000, 8113.000000
1952, 67749800.000000, 1941.625000, 8266.000000, 8156.500000, 8170.500000
1953, 67749960.000000, 1846.125000, 8255.000000, 8163.000000, 8171.000000
1954, 67750120.000000, 1749.875000, 8261.500000, 8169.500000, 8181.000000
1955, 67750280.000000, 1659.750000, 8265.500000, 8178.000000, 8192.000000
1956, 67750440.000000, 1573.500000, 8267.000000, 8176.000000, 8193.000000
1957, 67750600.000000, 1473.250000, 8278.500000, 8183.500000, 8202.500000
1958, 67750760.000000, 1345.375000, 8289.500000, 8183.000000, 8201.000000
1959, 67750920.000000, 1193.000000, 8314.000000, 8193.500000, 8230.000000
1960, 67751080.000000, 1038.750000, 8219.500000, 8224.500000, 8227.000000
1961, 67751240.000000, 913.250000, 8154.000000, 8254.500000, 8237.500000
1962, 67751400.000000, 838.500000, 8130.000000, 8268.500000, 8256.500000
1963, 67751560.000000, 811.875000, 8073.000000, 8261.000000, 8223.000000
1964, 67751720.000000, 814.875000, 8040.000000, 8247.000000, 8189.000000
1965, 67751880.000000, 830.000000, 8045.000000, 8237.500000, 8186.500000
1966, 67752040.000000, 852.250000, 8051.000000, 8231.000000, 8178.500000
1967, 67752200.000000, 887.250000, 8065.000000, 8227.500000, 8179.000000
1968, 67752360.000000, 935.500000, 8085.000000, 8227.000000, 8191.000000
1969, 67752520.000000, 992.000000, 8104.000000, 8224.500000, 8195.500000
1970, 67752680.000000, 1052.000000, 8118.500000, 8212.500000, 8184.000000
1971, 67752840.000000, 1115.375000, 8144.000000, 8208.500000, 8190.000000
1972, 67753000.000000, 1184.500000, 8157.000000, 8200.000000, 8189.000000
1973, 67753160.000000, 1258.625000, 8166.500000, 8189.500000, 8186.500000
1974, 67753320.000000, 1380.375000, 8172.500000, 8185.500000, 8188.500000
1975, 67753480.000000, 1606.125000, 8169.500000, 8183.000000, 8187.000000
1976, 67753640.000000, 1996.625000, 8160.500000, 8180.500000, 8183.500000
1977, 67753800.000000, 2476.125000, 8145.000000, 8187.000000, 8182.000000
1978, 67753960.000000, 2928.000000, 8141.500000, 8190.500000, 8184.000000
1979, 67754120.000000, 3240.000000, 8145.500000, 8206.000000, 8208.000000
1980, 67754280.000000, 3404.375000, 8160.500000, 8211.500000, 8221.500000
1981, 67754440.000000, 3444.875000, 8181.500000, 8190.500000, 8203.500000
1982, 67754600.000000, 3397.875000, 8194.000000, 8191.500000, 8201.000000
1983, 67754760.000000, 3310.750000, 8127.500000, 8181.000000, 8173.000000
1984, 67754920.000000, 3199.625000, 8143.000000, 8198.500000, 8173.000000
1985, 67755080.000000, 3067.375000, 8158.000000, 8192.000000, 8167.500000
1986, 67755240.000000, 2901.375000, 8120.500000, 8206.000000, 8174.500000
1987, 67755400.000000, 2694.625000, 8186.500000, 8232.500000, 8234.000000
1988, 67755560.000000, 2466.125000, 8629.500000, 7959.000000, 8161.500000
1989, 67755720.000000, 2250.500000, 8337.500000, 7949.500000, 7984.500000
1990, 67755880.000000, 2082.375000, 8244.000000, 8150.500000, 8157.000000
1991, 67756040.000000, 1967.000000, 8253.000000, 8181.000000, 8191.500000
1992, 67756200.000000, 1897.625000, 8262.000000, 8181.500000, 8194.500000
1993, 67756360.000000, 1853.125000, 8286.500000, 8176.500000, 8205.500000
1994, 67756520.000000, 1814.000000, 8305.000000, 8183.000000, 8215.500000
1995, 67756680.000000, 1770.500000, 8310.500000, 8182.000000, 8224.000000
1996, 67756840.000000, 1718.875000, 8322.500000, 8188.500000, 8234.500000
1997, 67757000.000000, 1669.875000, 8327.000000, 8186.500000, 8229.500000
1998, 67757160.000000, 1632.250000, 8364.000000, 8200.000000, 8264.000000
1999, 67757320.000000, 1594.250000, 8366.000000, 8207.000000, 8273.000000
2000, 67757480.000000, 1529.625000, 8352.500000, 8212.500000, 8275.500000
2001, 67757640.000000, 1425.125000, 8327.500000, 8211.000000, 8270.500000
2002, 67757800.000000, 1277.375000, 8285.500000, 8199.500000, 8239.000000
2003, 67757960.000000, 1107.625000, 8252.000000, 8189.000000, 8205.000000
2004, 67758120.000000, 952.000000, 8225.500000, 8192.500000, 8207.500000
2005, 67758280.000000, 835.875000, 8149.000000, 8213.500000, 8197.000000
2006, 67758440.000000, 771.750000, 8093.500000, 8232.000000, 8201.500000
2007, 67758600.000000, 741.375000, 8067.500000, 8240.000000, 8198.500000
2008, 67758760.000000, 736.000000, 8062.500000, 8244.500000, 8204.500000
2009, 67758920.000000, 742.500000, 8065.000000, 8242.500000, 8206.500000
2010, 67759080.000000, 752.500000, 8068.500000, 8240.000000, 8205.000000
2011, 67759240.000000, 767.375000, 8079.500000, 8235.000000, 8208.000000
2012, 67759400.000000, 825.625000, 8088.500000, 8230.000000, 8203.500000
2013, 67759560.000000, 987.125000, 8101.000000, 8229.000000, 8211.500000
2014, 67759720.000000, 1267.625000, 8115.000000, 8227.000000, 8210.000000
2015, 67759880.000000, 1608.250000, 8129.500000, 8216.500000, 8202.000000
2016, 67760040.000000, 1940.750000, 8143.000000, 8210.500000, 8204.500000
2017, 67760200.000000, 2230.750000, 8165.000000, 8199.500000, 8207.500000
2018, 67760360.000000, 2468.750000, 8168.000000, 8202.000000, 8211.000000
2019, 67760520.000000, 2649.375000, 8166.000000, 8198.500000, 8212.500000
2020, 67760680.000000, 2779.875000, 8185.500000, 8199.000000, 8224.500000
2021, 67760840.000000, 2866.125000, 8193.000000, 8204.500000, 8240.000000
2022, 67761000.000000, 2909.625000, 8228.000000, 8210.000000, 8259.000000
2023, 67761160.000000, 2912.500000, 8243.000000, 8196.000000, 8245.000000
2024, 67761320.000000, 2868.000000, 8240.500000, 8185.000000, 8222.500000
2025, 67761480.000000, 2783.500000, 8218.000000, 8184.500000, 8205.500000
2026, 67761640.000000, 2664.500000, 8176.000000, 8196.000000, 8199.500000
2027, 67761800.000000, 2529.000000, 8150.500000, 8211.000000, 8208.000000
2028, 67761960.000000, 2392.500000, 8113.000000, 8256.500000, 8243.500000
2029, 67762120.000000, 2269.375000, 8376.500000, 8217.500000, 8339.500000
2030, 67762280.000000, 2161.375000, 8586.000000, 7895.500000, 8080.000000
2031, 67762440.000000, 2063.250000, 8135.000000, 8122.000000, 8097.000000
2032, 67762600.000000, 1968.250000, 8148.000000, 8232.500000, 8225.500000
2033, 67762760.000000, 1869.875000, 8180.000000, 8234.500000, 8239.500000
2034, 67762920.000000, 1765.750000, 8222.000000, 8221.500000, 8237.500000
2035, 67763080.000000, 1660.875000, 8269.000000, 8209.000000, 8245.500000
2036, 67763240.000000, 1562.250000, 8293.500000, 8201.500000, 8247.000000
2037, 67763400.000000, 1478.250000, 8324.500000, 8200.000000, 8257.500000
2038, 67763560.000000, 1408.375000, 8344.000000, 8205.000000, 8273.000000
2039, 67763720.000000, 1350.250000, 8360.000000, 8212.000000, 8289.000000
2040, 67763880.000000, 1295.250000, 8374.000000, 8212.500000, 8288.500000
2041, 67764040.000000, 1237.000000, 8384.000000, 8213.000000, 8297.000000
2042, 67764200.000000, 1174.750000, 8366.000000, 8217.000000, 8296.000000
2043, 67764360.000000, 1098.375000, 8329.000000, 8207.500000, 8271.500000
2044, 67764520.000000, 995.875000, 8298.500000, 8198.000000, 8244.000000
2045, 67764680.000000, 878.125000, 8271.000000, 8183.500000, 8218.000000
2046, 67764840.000000, 767.375000, 8260.000000, 8178.000000, 8203.000000
2047, 67765000.000000, 675.125000, 8263.000000, 8178.000000, 8198.500000
2048, 67765160.000000, 604.375000, 8229.500000, 8187.500000, 8199.500000
2049, 67765320.000000, 554.125000, 8171.000000, 8212.000000, 8209.500000
2050, 67765480.000000, 523.375000, 8108.500000, 8226.500000, 8195.500000
2051, 67765640.000000, 508.750000, 8073.500000, 8234.500000, 8192.500000
2052, 67765800.000000, 508.875000, 8057.000000, 8238.500000, 8191.500000
2053, 67765960.000000, 533.250000, 8050.500000, 8237.000000, 8184.000000
2054, 67766120.000000, 642.625000, 8048.000000, 8227.000000, 8166.000000
2055, 67766280.000000, 869.750000, 8060.000000, 8225.500000, 8174.000000
2056, 67766440.000000, 1214.750000, 8067.000000, 8217.000000, 8166.000000
2057, 67766600.000000, 1594.000000, 8096.000000, 8218.500000, 8174.000000
2058, 67766760.000000, 1931.875000, 8105.500000, 8210.500000, 8176.000000
2059, 67766920.000000, 2189.375000, 8110.500000, 8209.000000, 8171.000000
2060, 67767080.000000, 2367.625000, 8108.000000, 8200.000000, 8159.000000
2061, 67767240.000000, 2480.750000, 8109.500000, 8201.000000, 8160.000000
2062, 67767400.000000, 2539.625000, 8121.000000, 8197.000000, 8162.000000
2063, 67767560.000000, 2565.375000, 8114.500000, 8196.500000, 8160.000000
2064, 67767720.000000, 2565.125000, 8123.500000, 8189.000000, 8155.500000
2065, 67767880.000000, 2539.750000, 8139.500000, 8188.000000, 8155.500000
2066, 67768040.000000, 2482.250000, 8139.000000, 8196.500000, 8167.500000
2067, 67768200.000000, 2384.000000, 8137.500000, 8200.500000, 8178.500000
2068, 67768360.000000, 2255.625000, 8127.000000, 8199.500000, 8164.500000
2069, 67768520.000000, 2121.625000, 8102.500000, 8194.500000, 8140.500000
2070, 67768680.000000, 2004.125000, 8089.000000, 8193.000000, 8131.000000
2071, 67768840.000000, 1909.250000, 8096.000000, 8193.000000, 8134.500000
2072, 67769000.000000, 1839.750000, 8107.000000, 8185.500000, 8128.500000
2073, 67769160.000000, 1781.500000, 8107.500000, 8230.000000, 8174.000000
2074, 67769320.000000, 1734.750000, 8428.500000, 8130.000000, 8233.500000
2075, 67769480.000000, 1687.375000, 8533.000000, 7838.500000, 7955.000000
2076, 67769640.000000, 1632.000000, 8086.500000, 8114.500000, 8034.500000
2077, 67769800.000000, 1568.625000, 8086.000000, 8219.000000, 8154.000000
2078, 67769960.000000, 1500.500000, 8101.000000, 8224.000000, 8166.000000
2079, 67770120.000000, 1430.375000, 8146.500000, 8214.000000, 8175.000000
2080, 67770280.000000, 1357.250000, 8186.000000, 8205.000000, 8177.500000
2081, 67770440.000000, 1278.875000, 8220.500000, 8197.500000, 8188.500000
2082, 67770600.000000, 1194.125000, 8241.500000, 8199.500000, 8200.500000
2083, 67770760.000000, 1110.000000, 8262.500000, 8200.000000, 8214.000000
2084, 67770920.000000, 1036.125000, 8278.500000, 8204.500000, 8225.000000
2085, 67771080.000000, 971.000000, 8300.500000, 8205.500000, 8229.000000
2086, 67771240.000000, 912.625000, 8308.000000, 8213.500000, 8243.500000
2087, 67771400.000000, 852.875000, 8299.500000, 8213.500000, 8244.000000
2088, 67771560.000000, 794.875000, 8269.500000, 8201.000000, 8214.500000
2089, 67771720.000000, 751.625000, 8234.500000, 8187.000000, 8183.000000
2090, 67771880.000000, 727.625000, 8216.000000, 8170.000000, 8156.500000
2091, 67772040.000000, 712.375000, 8222.000000, 8166.000000, 8155.000000
2092, 67772200.000000, 699.875000, 8216.000000, 8162.000000, 8144.500000
2093, 67772360.000000, 683.000000, 8216.000000, 8167.500000, 8153.500000
2094, 67772520.000000, 661.375000, 8207.000000, 8169.500000, 8151.000000
2095, 67772680.000000, 636.625000, 8189.500000, 8173.000000, 8148.500000
2096, 67772840.000000, 609.125000, 8151.500000, 8186.500000, 8151.500000
2097, 67773000.000000, 585.500000, 8121.000000, 8191.000000, 8144.000000
2098, 67773160.000000, 588.875000, 8098.000000, 8205.000000, 8155.500000
2099, 67773320.000000, 676.875000, 8075.000000, 8206.500000, 8148.000000
2100, 67773480.000000, 888.375000, 8061.500000, 8209.000000, 8143.500000
2101, 67773640.000000, 1209.000000, 8065.000000, 8211.000000, 8147.000000
2102, 67773800.000000, 1569.375000, 8069.500000, 8204.000000, 8145.000000
2103, 67773960.000000, 1905.500000, 8092.000000, 8206.000000, 8155.000000
2104, 67774120.000000, 2169.125000, 8102.500000, 8195.500000, 8146.500000
2105, 67774280.000000, 2354.625000, 8123.500000, 8195.000000, 8156.500000
2106, 67774440.000000, 2470.125000, 8131.000000, 8187.500000, 8150.000000
2107, 67774600.000000, 2539.375000, 8136.000000, 8185.500000, 8153.500000
2108, 67774760.000000, 2576.250000, 8144.000000, 8181.500000, 8156.500000
2109, 67774920.000000, 2590.875000, 8156.500000, 8191.500000, 8174.000000
2110, 67775080.000000, 2578.375000, 8166.000000, 8193.500000, 8188.500000
2111, 67775240.000000, 2543.000000, 8181.000000, 8191.000000, 8195.000000
2112, 67775400.000000, 2470.750000, 8180.500000, 8184.500000, 8173.000000
2113, 67775560.000000, 2373.750000, 8171.000000, 8181.500000, 8162.500000
2114, 67775720.000000, 2266.500000, 8153.500000, 8180.000000, 8152.000000
2115, 67775880.000000, 2162.375000, 8140.000000, 8184.500000, 8151.500000
2116, 67776040.000000, 2075.000000, 8130.500000, 8191.000000, 8159.500000
2117, 67776200.000000, 2002.875000, 8095.000000, 8254.500000, 8214.500000
2118, 67776360.000000, 1944.250000, 8474.500000, 8090.500000, 8230.000000
2119, 67776520.000000, 1893.625000, 8467.000000, 7871.500000, 7973.000000
2120, 67776680.000000, 1845.500000, 8110.000000, 8145.500000, 8099.000000
2121, 67776840.000000, 1790.750000, 8105.500000, 8226.000000, 8183.500000
2122, 67777000.000000, 1720.625000, 8106.500000, 8238.000000, 8195.500000
2123, 67777160.000000, 1636.625000, 8095.500000, 8239.000000, 8195.000000
2124, 67777320.000000, 1549.750000, 8087.500000, 8243.500000, 8203.000000
2125, 67777480.000000, 1466.000000, 8103.000000, 8239.500000, 8203.500000
2126, 67777640.000000, 1389.875000, 8130.500000, 8241.000000, 8217.000000
2127, 67777800.000000, 1322.875000, 8155.000000, 8236.500000, 8226.000000
2128, 67777960.000000, 1264.250000, 8216.000000, 8229.000000, 8237.000000
2129, 67778120.000000, 1213.625000, 8279.000000, 8218.500000, 8255.500000
2130, 67778280.000000, 1166.125000, 8302.500000, 8210.500000, 8263.000000
2131, 67778440.000000, 1121.000000, 8320.500000, 8212.500000, 8267.000000
2132, 67778600.000000, 1082.625000, 8284.500000, 8195.500000, 8238.000000
2133, 67778760.000000, 1053.875000, 8245.500000, 8181.000000, 8209.500000
2134, 67778920.000000, 1032.625000, 8229.000000, 8169.000000, 8188.500000
2135, 67779080.000000, 1018.500000, 8218.000000, 8168.500000, 8182.500000
2136, 67779240.000000, 1007.875000, 8227.000000, 8169.500000, 8189.000000
2137, 67779400.000000, 990.875000, 8238.000000, 8167.500000, 8189.000000
2138, 67779560.000000, 968.375000, 8224.000000, 8175.500000, 8190.000000
2139, 67779720.000000, 944.750000, 8219.500000, 8177.500000, 8193.000000
2140, 67779880.000000, 917.500000, 8208.500000, 8181.500000, 8190.500000
2141, 67780040.000000, 884.250000, 8187.000000, 8185.000000, 8184.000000
2142, 67780200.000000, 857.250000, 8180.000000, 8191.500000, 8193.500000
2143, 67780360.000000, 871.750000, 8172.000000, 8196.000000, 8192.000000
2144, 67780520.000000, 982.125000, 8160.500000, 8190.500000, 8179.000000
2145, 67780680.000000, 1193.125000, 8150.000000, 8191.000000, 8178.000000
2146, 67780840.000000, 1468.875000, 8135.500000, 8203.000000, 8183.500000
2147, 67781000.000000, 1742.500000, 8116.500000, 8206.500000, 8179.500000
2148, 67781160.000000, 1969.375000, 8103.500000, 8213.500000, 8183.000000
2149, 67781320.000000, 2133.375000, 8094.500000, 8213.500000, 8179.000000
2150, 67781480.000000, 2242.500000, 8089.000000, 8215.500000, 8181.500000
2151, 67781640.000000, 2323.500000, 8094.500000, 8215.000000, 8185.500000
2152, 67781800.000000, 2389.000000, 8101.000000, 8211.000000, 8176.500000
2153, 67781960.000000, 2441.125000, 8110.500000, 8211.500000, 8184.500000
2154, 67782120.000000, 2476.250000, 8112.500000, 8205.500000, 8177.000000
2155, 67782280.000000, 2485.500000, 8128.500000, 8211.000000, 8190.000000
2156, 67782440.000000, 2465.500000, 8141.500000, 8216.500000, 8214.000000
2157, 67782600.000000, 2428.875000, 8162.500000, 8216.000000, 8226.500000
2158, 67782760.000000, 2387.000000, 8159.000000, 8206.500000, 8202.000000
2159, 67782920.000000, 2343.750000, 8153.500000, 8197.000000, 8185.000000
2160, 67783080.000000, 2297.750000, 8156.000000, 8196.000000, 8178.000000
2161, 67783240.000000, 2251.625000, 8154.500000, 8192.500000, 8176.000000
2162, 67783400.000000, 2205.750000, 8157.500000, 8191.000000, 8176.500000
2163, 67783560.000000, 2156.375000, 8132.500000, 8248.000000, 8231.500000
2164, 67783720.000000, 2099.375000, 8498.000000, 8102.500000, 8258.500000
2165, 67783880.000000, 2029.250000, 8545.500000, 7862.000000, 8003.500000
2166, 67784040.000000, 1952.625000, 8159.500000, 8140.500000, 8118.500000
2167, 67784200.000000, 1876.000000, 8161.000000, 8221.500000, 8209.000000
2168, 67784360.000000, 1798.250000, 8153.000000, 8234.000000, 8221.000000
2169, 67784520.000000, 1724.375000, 8153.000000, 8235.000000, 8220.000000
2170, 67784680.000000, 1656.375000, 8151.500000, 8236.500000, 8221.000000
2171, 67784840.000000, 1601.375000, 8157.500000, 8244.500000, 8236.000000
2172, 67785000.000000, 1551.500000, 8170.000000, 8250.000000, 8243.000000
2173, 67785160.000000, 1500.500000, 8184.500000, 8254.500000, 8255.500000
2174, 67785320.000000, 1450.500000, 8217.500000, 8250.000000, 8263.000000
2175, 67785480.000000, 1403.875000, 8245.500000, 8253.500000, 8282.500000
2176, 67785640.000000, 1363.625000, 8241.500000, 8257.500000, 8286.500000
2177, 67785800.000000, 1328.250000, 8227.000000, 8258.500000, 8288.000000
2178, 67785960.000000, 1294.875000, 8193.000000, 8246.000000, 8264.500000
2179, 67786120.000000, 1264.625000, 8154.000000, 8229.000000, 8229.500000
2180, 67786280.000000, 1243.250000, 8131.000000, 8218.000000, 8202.500000
2181, 67786440.000000, 1230.500000, 8118.500000, 8211.000000, 8190.500000
2182, 67786600.000000, 1219.875000, 8130.000000, 8216.500000, 8204.500000
2183, 67786760.000000, 1201.750000, 8146.500000, 8207.000000, 8199.000000
2184, 67786920.000000, 1174.500000, 8164.500000, 8200.500000, 8206.500000
2185, 67787080.000000, 1148.875000, 8216.500000, 8195.000000, 8212.500000
2186, 67787240.000000, 1128.000000, 8232.000000, 8182.000000, 8211.500000
2187, 67787400.000000, 1103.750000, 8247.500000, 8184.000000, 8221.000000
2188, 67787560.000000, 1082.250000, 8259.000000, 8180.000000, 8217.500000
2189, 67787720.000000, 1089.750000, 8253.000000, 8178.500000, 8215.500000
2190, 67787880.000000, 1181.125000, 8247.000000, 8173.000000, 8204.000000
2191, 67788040.000000, 1359.250000, 8245.500000, 8178.000000, 8211.500000
2192, 67788200.000000, 1596.250000, 8243.000000, 8180.000000, 8213.000000
2193, 67788360.000000, 1827.125000, 8247.000000, 8179.000000, 8212.500000
2194, 67788520.000000, 2007.125000, 8245.000000, 8175.500000, 8206.000000
2195, 67788680.000000, 2123.000000, 8243.500000, 8175.500000, 8204.000000
2196, 67788840.000000, 2187.250000, 8243.500000, 8180.000000, 8208.500000
2197, 67789000.000000, 2221.250000, 8236.000000, 8183.500000, 8213.500000
2198, 67789160.000000, 2244.625000, 8216.500000, 8196.000000, 8216.000000
2199, 67789320.000000, 2261.500000, 8188.500000, 8198.500000, 8209.000000
2200, 67789480.000000, 2267.000000, 8177.500000, 8205.000000, 8211.000000
2201, 67789640.000000, 2254.750000, 8160.000000, 8210.500000, 8209.500000
2202, 67789800.000000, 2226.875000, 8161.500000, 8217.000000, 8219.500000
2203, 67789960.000000, 2193.625000, 8158.500000, 8220.000000, 8226.500000
2204, 67790120.000000, 2168.375000, 8160.500000, 8228.500000, 8242.500000
2205, 67790280.000000, 2150.625000, 8161.500000, 8226.000000, 8237.500000
2206, 67790440.000000, 2145.375000, 8148.000000, 8222.000000, 8219.000000
2207, 67790600.000000, 2148.375000, 8128.500000, 8216.000000, 8198.000000
2208, 67790760.000000, 2156.875000, 8123.000000, 8212.000000, 8192.000000
2209, 67790920.000000, 2159.875000, 8115.000000, 8211.000000, 8187.000000
2210, 67791080.000000, 2152.875000, 8107.000000, 8218.000000, 8187.000000
2211, 67791240.000000, 2141.125000, 8129.500000, 8262.000000, 8259.500000
2212, 67791400.000000, 2123.000000, 8553.000000, 7975.000000, 8169.500000
2213, 67791560.000000, 2100.750000, 8250.500000, 7988.500000, 8002.500000
2214, 67791720.000000, 2071.875000, 8098.000000, 8215.500000, 8186.000000
2215, 67791880.000000, 2037.125000, 8083.500000, 8246.500000, 8207.500000
2216, 67792040.000000, 2000.875000, 8086.000000, 8252.000000, 8215.000000
2217, 67792200.000000, 1966.375000, 8098.500000, 8259.000000, 8229.000000
2218, 67792360.000000, 1931.000000, 8107.000000, 8255.500000, 8226.500000
2219, 67792520.000000, 1891.000000, 8114.000000, 8252.500000, 8231.000000
2220, 67792680.000000, 1851.000000, 8133.000000, 8260.000000, 8243.000000
2221, 67792840.000000, 1813.125000, 8144.000000, 8262.500000, 8256.000000
2222, 67793000.000000, 1771.750000, 8172.000000, 8269.500000, 8273.000000
2223, 67793160.000000, 1722.250000, 8191.000000, 8272.500000, 8287.500000
2224, 67793320.000000, 1665.000000, 8187.500000, 8274.500000, 8287.500000
2225, 67793480.000000, 1609.500000, 8173.500000, 8268.000000, 8278.500000
2226, 67793640.000000, 1563.375000, 8148.000000, 8255.000000, 8252.000000
2227, 67793800.000000, 1524.125000, 8115.500000, 8240.500000, 8224.000000
2228, 67793960.000000, 1488.250000, 8095.000000, 8232.500000, 8202.000000
2229, 67794120.000000, 1456.500000, 8098.000000, 8227.000000, 8198.500000
2230, 67794280.000000, 1429.375000, 8097.500000, 8227.500000, 8197.500000
2231, 67794440.000000, 1405.250000, 8101.000000, 8228.500000, 8201.000000
2232, 67794600.000000, 1389.625000, 8112.000000, 8227.000000, 8201.000000
2233, 67794760.000000, 1374.000000, 8113.000000, 8229.000000, 8209.500000
2234, 67794920.000000, 1348.875000, 8120.500000, 8224.500000, 8205.000000
2235, 67795080.000000, 1309.000000, 8125.000000, 8219.000000, 8205.500000
2236, 67795240.000000, 1278.625000, 8135.500000, 8217.000000, 8203.500000
2237, 67795400.000000, 1313.000000, 8134.500000, 8211.500000, 8190.500000
2238, 67795560.000000, 1494.500000, 8145.000000, 8209.000000, 8201.000000
2239, 67795720.000000, 1749.500000, 8157.500000, 8200.000000, 8188.500000
2240, 67795880.000000, 2014.750000, 8154.500000, 8202.000000, 8193.500000
2241, 67796040.000000, 2203.625000, 8146.500000, 8202.000000, 8195.000000
2242, 67796200.000000, 2338.125000, 8144.000000, 8208.000000, 8198.000000
2243, 67796360.000000, 2433.375000, 8141.000000, 8205.500000, 8194.500000
2244, 67796520.000000, 2475.375000, 8146.000000, 8204.500000, 8196.000000
2245, 67796680.000000, 2483.875000, 8176.500000, 8193.000000, 8194.000000
2246, 67796840.000000, 2476.250000, 8254.500000, 8168.500000, 8203.000000
2247, 67797000.000000, 2453.125000, 8320.500000, 8151.000000, 8207.000000
2248, 67797160.000000, 2407.875000, 8369.000000, 8136.500000, 8217.500000
2249, 67797320.000000, 2345.625000, 8403.500000, 8127.000000, 8217.000000
2250, 67797480.000000, 2276.500000, 8435.500000, 8119.000000, 8226.000000
2251, 67797640.000000, 2212.375000, 8459.000000, 8123.000000, 8245.000000
2252, 67797800.000000, 2162.750000, 8459.500000, 8130.500000, 8261.000000
2253, 67797960.000000, 2124.625000, 8465.000000, 8147.000000, 8287.000000
2254, 67798120.000000, 2100.375000, 8459.000000, 8153.000000, 8304.000000
2255, 67798280.000000, 2082.125000, 8448.000000, 8153.000000, 8292.000000
2256, 67798440.000000, 2062.375000, 8427.500000, 8155.000000, 8280.000000
2257, 67798600.000000, 2032.000000, 8400.500000, 8151.000000, 8261.000000
2258, 67798760.000000, 1987.500000, 8388.500000, 8152.000000, 8248.000000
2259, 67798920.000000, 1925.500000, 8377.500000, 8160.500000, 8259.500000
2260, 67799080.000000, 1851.000000, 8336.000000, 8193.000000, 8269.000000
2261, 67799240.000000, 1769.000000, 8536.500000, 8188.000000, 8378.500000
2262, 67799400.000000, 1690.625000, 8800.500000, 7865.500000, 8150.000000
2263, 67799560.000000, 1617.625000, 8322.500000, 8070.500000, 8117.500000
2264, 67799720.000000, 1551.375000, 8297.500000, 8188.000000, 8241.000000
2265, 67799880.000000, 1492.500000, 8285.500000, 8208.000000, 8253.500000
2266, 67800040.000000, 1445.375000, 8267.500000, 8216.500000, 8251.500000
2267, 67800200.000000, 1411.750000, 8245.500000, 8226.000000, 8257.500000
2268, 67800360.000000, 1393.500000, 8221.500000, 8235.500000, 8257.500000
2269, 67800520.000000, 1395.875000, 8215.000000, 8237.500000, 8251.500000
2270, 67800680.000000, 1416.250000, 8209.500000, 8243.000000, 8253.500000
2271, 67800840.000000, 1438.875000, 8212.000000, 8254.000000, 8271.000000
2272, 67801000.000000, 1455.125000, 8218.000000, 8262.000000, 8287.500000
2273, 67801160.000000, 1463.125000, 8210.500000, 8266.000000, 8282.500000
2274, 67801320.000000, 1464.625000, 8192.000000, 8266.000000, 8279.000000
2275, 67801480.000000, 1468.125000, 8169.000000, 8261.000000, 8265.000000
2276, 67801640.000000, 1471.000000, 8134.000000, 8243.000000, 8231.500000
2277, 67801800.000000, 1465.500000, 8098.500000, 8227.000000, 8196.000000
2278, 67801960.000000, 1453.250000, 8084.500000, 8218.500000, 8177.000000
2279, 67802120.000000, 1439.375000, 8084.000000, 8215.000000, 8171.500000
2280, 67802280.000000, 1429.125000, 8084.000000, 8215.500000, 8178.500000
2281, 67802440.000000, 1426.375000, 8093.500000, 8215.000000, 8174.500000
2282, 67802600.000000, 1439.375000, 8094.000000, 8214.500000, 8178.500000
2283, 67802760.000000, 1459.250000, 8093.500000, 8207.500000, 8167.000000
2284, 67802920.000000, 1484.250000, 8104.500000, 8207.500000, 8168.500000
2285, 67803080.000000, 1520.125000, 8108.500000, 8205.000000, 8172.500000
2286, 67803240.000000, 1612.500000, 8108.000000, 8203.000000, 8169.500000
2287, 67803400.000000, 1789.625000, 8104.500000, 8202.000000, 8165.000000
2288, 67803560.000000, 2043.750000, 8095.500000, 8196.500000, 8147.500000
2289, 67803720.000000, 2317.000000, 8095.000000, 8195.500000, 8145.500000
2290, 67803880.000000, 2560.000000, 8091.000000, 8192.500000, 8145.500000
2291, 67804040.000000, 2737.750000, 8084.000000, 8194.000000, 8147.500000
2292, 67804200.000000, 2845.125000, 8086.000000, 8196.500000, 8139.000000
2293, 67804360.000000, 2884.250000, 8082.500000, 8196.000000, 8136.500000
2294, 67804520.000000, 2874.750000, 8074.000000, 8186.500000, 8121.500000
2295, 67804680.000000, 2841.000000, 8080.000000, 8187.000000, 8123.000000
2296, 67804840.000000, 2798.750000, 8079.500000, 8190.000000, 8122.500000
2297, 67805000.000000, 2745.875000, 8074.000000, 8184.000000, 8109.000000
2298, 67805160.000000, 2676.625000, 8070.500000, 8179.500000, 8101.000000
2299, 67805320.000000, 2587.375000, 8085.500000, 8177.500000, 8101.500000
2300, 67805480.000000, 2496.500000, 8092.500000, 8174.500000, 8097.500000
2301, 67805640.000000, 2412.375000, 8086.000000, 8187.000000, 8115.000000
2302, 67805800.000000, 2348.250000, 8075.500000, 8203.500000, 8138.500000
2303, 67805960.000000, 2303.125000, 8074.500000, 8203.000000, 8143.000000
2304, 67806120.000000, 2266.250000, 8076.000000, 8188.500000, 8114.500000
2305, 67806280.000000, 2232.250000, 8079.500000, 8181.000000, 8104.000000
2306, 67806440.000000, 2196.000000, 8092.500000, 8174.000000, 8097.000000
2307, 67806600.000000, 2150.625000, 8108.500000, 8166.500000, 8098.500000
2308, 67806760.000000, 2099.250000, 8135.000000, 8159.500000, 8100.500000
2309, 67806920.000000, 2042.250000, 8135.000000, 8207.500000, 8157.500000
2310, 67807080.000000, 1983.375000, 8544.000000, 8030.500000, 8170.000000
2311, 67807240.000000, 1917.625000, 8490.500000, 7839.500000, 7923.500000
2312, 67807400.000000, 1846.250000, 8252.500000, 8077.500000, 8059.000000
2313, 67807560.000000, 1772.375000, 8281.500000, 8130.000000, 8125.000000
2314, 67807720.000000, 1700.500000, 8314.000000, 8130.500000, 8138.000000
2315, 67807880.000000, 1638.125000, 8337.500000, 8122.000000, 8139.000000
2316, 67808040.000000, 1582.875000, 8351.500000, 8117.500000, 8130.500000
2317, 67808200.000000, 1531.125000, 8372.500000, 8124.500000, 8152.000000
2318, 67808360.000000, 1473.000000, 8376.000000, 8123.500000, 8153.500000
2319, 67808520.000000, 1412.875000, 8387.000000, 8132.000000, 8170.000000
2320, 67808680.000000, 1350.375000, 8398.500000, 8140.000000, 8180.500000
2321, 67808840.000000, 1292.250000, 8406.500000, 8146.000000, 8194.000000
2322, 67809000.000000, 1239.500000, 8389.500000, 8152.500000, 8193.500000
2323, 67809160.000000, 1194.000000, 8368.500000, 8159.000000, 8185.500000
2324, 67809320.000000, 1156.875000, 8321.000000, 8146.000000, 8160.000000
2325, 67809480.000000, 1126.750000, 8273.500000, 8138.500000, 8127.000000
2326, 67809640.000000, 1104.625000, 8250.000000, 8132.000000, 8107.000000
2327, 67809800.000000, 1094.875000, 8236.500000, 8134.500000, 8104.500000
2328, 67809960.000000, 1094.625000, 8226.000000, 8137.500000, 8103.500000
2329, 67810120.000000, 1099.250000, 8230.000000, 8139.500000, 8106.500000
2330, 67810280.000000, 1105.250000, 8235.000000, 8137.500000, 8110.500000
2331, 67810440.000000, 1109.250000, 8238.500000, 8141.500000, 8120.500000
2332, 67810600.000000, 1109.750000, 8230.000000, 8148.500000, 8125.000000
2333, 67810760.000000, 1101.875000, 8225.500000, 8145.000000, 8120.500000
2334, 67810920.000000, 1119.625000, 8219.500000, 8145.000000, 8114.000000
2335, 67811080.000000, 1212.875000, 8214.000000, 8146.500000, 8120.500000
2336, 67811240.000000, 1430.000000, 8197.000000, 8147.500000, 8113.500000
2337, 67811400.000000, 1731.500000, 8184.500000, 8156.000000, 8126.500000
2338, 67811560.000000, 2056.750000, 8167.500000, 8162.000000, 8129.000000
2339, 67811720.000000, 2346.000000, 8153.500000, 8163.000000, 8126.500000
2340, 67811880.000000, 2580.000000, 8134.500000, 8164.000000, 8121.000000
2341, 67812040.000000, 2745.250000, 8122.000000, 8175.500000, 8133.500000
2342, 67812200.000000, 2849.000000, 8105.500000, 8186.000000, 8140.000000
2343, 67812360.000000, 2912.125000, 8087.000000, 8185.500000, 8135.000000
2344, 67812520.000000, 2948.500000, 8082.000000, 8192.000000, 8135.000000
2345, 67812680.000000, 2970.375000, 8079.500000, 8200.000000, 8148.500000
2346, 67812840.000000, 2970.500000, 8087.500000, 8214.500000, 8178.500000
2347, 67813000.000000, 2948.375000, 8092.500000, 8217.500000, 8189.500000
2348, 67813160.000000, 2910.750000, 8094.500000, 8208.000000, 8174.500000
2349, 67813320.000000, 2865.750000, 8100.500000, 8203.500000, 8161.500000
2350, 67813480.000000, 2823.000000, 8091.500000, 8196.000000, 8147.500000
2351, 67813640.000000, 2778.625000, 8094.500000, 8190.500000, 8140.000000
2352, 67813800.000000, 2727.875000, 8088.500000, 8187.000000, 8141.500000
2353, 67813960.000000, 2675.375000, 8079.500000, 8208.000000, 8157.500000
2354, 67814120.000000, 2624.875000, 8171.000000, 8222.000000, 8230.000000
2355, 67814280.000000, 2570.125000, 8520.500000, 7889.000000, 8049.000000
2356, 67814440.000000, 2504.875000, 8113.000000, 8015.500000, 7969.500000
2357, 67814600.000000, 2423.750000, 8089.500000, 8205.500000, 8161.500000
2358, 67814760.000000, 2338.125000, 8074.500000, 8225.500000, 8178.500000
2359, 67814920.000000, 2255.000000, 8083.000000, 8239.500000, 8192.000000
2360, 67815080.000000, 2173.375000, 8087.500000, 8238.500000, 8196.000000
2361, 67815240.000000, 2093.125000, 8091.500000, 8239.000000, 8191.500000
2362, 67815400.000000, 2015.625000, 8102.500000, 8246.500000, 8209.000000
2363, 67815560.000000, 1940.375000, 8109.000000, 8245.500000, 8213.500000
2364, 67815720.000000, 1871.125000, 8123.000000, 8255.000000, 8228.500000
2365, 67815880.000000, 1808.000000, 8147.500000, 8266.500000, 8250.500000
2366, 67816040.000000, 1749.000000, 8158.000000, 8273.500000, 8266.000000
2367, 67816200.000000, 1692.250000, 8147.500000, 8277.500000, 8267.000000
2368, 67816360.000000, 1639.500000, 8124.500000, 8264.000000, 8249.500000
2369, 67816520.000000, 1594.000000, 8101.000000, 8243.000000, 8215.500000
2370, 67816680.000000, 1556.875000, 8080.500000, 8230.500000, 8192.500000
2371, 67816840.000000, 1523.625000, 8068.500000, 8220.000000, 8174.000000
2372, 67817000.000000, 1494.500000, 8061.000000, 8215.000000, 8161.000000
2373, 67817160.000000, 1467.625000, 8065.000000, 8216.500000, 8162.000000
2374, 67817320.000000, 1439.125000, 8066.500000, 8213.000000, 8160.500000
2375, 67817480.000000, 1414.750000, 8074.000000, 8216.000000, 8167.000000
2376, 67817640.000000, 1391.375000, 8079.000000, 8210.000000, 8161.000000
2377, 67817800.000000, 1360.000000, 8084.000000, 8206.000000, 8162.500000
2378, 67817960.000000, 1321.875000, 8098.500000, 8199.000000, 8159.000000
2379, 67818120.000000, 1313.375000, 8119.000000, 8191.500000, 8159.000000
2380, 67818280.000000, 1380.375000, 8157.500000, 8180.000000, 8160.500000
2381, 67818440.000000, 1542.750000, 8195.500000, 8168.000000, 8157.000000
2382, 67818600.000000, 1780.000000, 8215.500000, 8158.500000, 8153.500000
2383, 67818760.000000, 2043.875000, 8240.000000, 8150.000000, 8162.000000
2384, 67818920.000000, 2288.875000, 8250.500000, 8154.000000, 8163.000000
2385, 67819080.000000, 2476.625000, 8248.000000, 8147.500000, 8159.500000
2386, 67819240.000000, 2584.750000, 8252.500000, 8154.000000, 8168.000000
2387, 67819400.000000, 2627.750000, 8246.500000, 8153.000000, 8169.500000
2388, 67819560.000000, 2631.500000, 8243.500000, 8151.500000, 8163.000000
2389, 67819720.000000, 2614.875000, 8240.500000, 8157.500000, 8168.000000
2390, 67819880.000000, 2585.625000, 8243.500000, 8166.500000, 8185.000000
2391, 67820040.000000, 2541.125000, 8251.500000, 8176.000000, 8206.500000
2392, 67820200.000000, 2481.375000, 8259.000000, 8178.500000, 8217.000000
2393, 67820360.000000, 2416.000000, 8256.500000, 8171.000000, 8196.000000
2394, 67820520.000000, 2362.750000, 8242.500000, 8163.000000, 8176.500000
2395, 67820680.000000, 2337.875000, 8238.000000, 8160.000000, 8168.000000
2396, 67820840.000000, 2347.625000, 8223.000000, 8167.500000, 8169.000000
2397, 67821000.000000, 2379.625000, 8191.000000, 8177.000000, 8170.000000
2398, 67821160.000000, 2405.375000, 8152.000000, 8240.000000, 8223.500000
2399, 67821320.000000, 2411.500000, 8514.500000, 8072.500000, 8227.500000
2400, 67821480.000000, 2397.000000, 8487.500000, 7864.500000, 7980.500000
2401, 67821640.000000, 2370.375000, 8150.000000, 8145.500000, 8119.000000
2402, 67821800.000000, 2335.000000, 8144.500000, 8223.000000, 8200.000000
2403, 67821960.000000, 2287.000000, 8141.000000, 8230.000000, 8208.000000
2404, 67822120.000000, 2223.750000, 8152.500000, 8234.000000, 8216.000000
2405, 67822280.000000, 2158.875000, 8152.000000, 8236.500000, 8219.500000
2406, 67822440.000000, 2100.250000, 8160.500000, 8236.500000, 8221.000000
2407, 67822600.000000, 2052.000000, 8174.000000, 8243.500000, 8240.500000
2408, 67822760.000000, 2015.875000, 8189.000000, 8247.000000, 8249.000000
2409, 67822920.000000, 1985.500000, 8212.000000, 8256.000000, 8272.500000
2410, 67823080.000000, 1953.250000, 8226.500000, 8264.000000, 8286.000000
2411, 67823240.000000, 1921.500000, 8231.500000, 8270.000000, 8297.500000
2412, 67823400.000000, 1893.750000, 8212.000000, 8265.000000, 8285.500000
2413, 67823560.000000, 1874.250000, 8181.500000, 8245.000000, 8259.000000
2414, 67823720.000000, 1860.875000, 8144.000000, 8226.000000, 8219.500000
2415, 67823880.000000, 1847.250000, 8126.500000, 8214.000000, 8195.500000
2416, 67824040.000000, 1832.250000, 8122.500000, 8209.500000, 8189.500000
2417, 67824200.000000, 1815.000000, 8130.500000, 8207.500000, 8193.500000
2418, 67824360.000000, 1792.125000, 8135.000000, 8204.500000, 8194.500000
2419, 67824520.000000, 1760.250000, 8141.000000, 8197.500000, 8196.500000
2420, 67824680.000000, 1724.000000, 8156.500000, 8199.500000, 8197.000000
2421, 67824840.000000, 1681.500000, 8168.000000, 8193.000000, 8199.000000
2422, 67825000.000000, 1626.625000, 8174.000000, 8191.000000, 8200.000000
2423, 67825160.000000, 1577.250000, 8169.500000, 8186.500000, 8192.500000
2424, 67825320.000000, 1590.500000, 8165.000000, 8189.000000, 8198.000000
2425, 67825480.000000, 1711.875000, 8155.500000, 8193.000000, 8193.500000
2426, 67825640.000000, 1942.500000, 8148.000000, 8189.500000, 8191.000000
2427, 67825800.000000, 2232.750000, 8145.000000, 8191.500000, 8188.500000
2428, 67825960.000000, 2518.500000, 8142.000000, 8194.000000, 8187.000000
2429, 67826120.000000, 2757.875000, 8145.500000, 8196.000000, 8192.500000
2430, 67826280.000000, 2924.500000, 8141.000000, 8195.000000, 8188.500000
2431, 67826440.000000, 3019.625000, 8139.000000, 8199.500000, 8193.500000
2432, 67826600.000000, 3054.375000, 8139.000000, 8200.000000, 8192.000000
2433, 67826760.000000, 3056.250000, 8142.500000, 8203.000000, 8199.500000
2434, 67826920.000000, 3035.500000, 8139.000000, 8206.500000, 8200.500000
2435, 67827080.000000, 2987.750000, 8140.000000, 8211.000000, 8202.500000
2436, 67827240.000000, 2909.875000, 8136.500000, 8206.000000, 8198.500000
2437, 67827400.000000, 2807.750000, 8147.500000, 8214.500000, 8216.000000
2438, 67827560.000000, 2703.375000, 8149.500000, 8218.000000, 8225.000000
2439, 67827720.000000, 2610.125000, 8154.000000, 8217.000000, 8227.000000
2440, 67827880.000000, 2541.000000, 8154.500000, 8212.000000, 8214.000000
2441, 67828040.000000, 2496.250000, 8139.500000, 8198.500000, 8187.000000
2442, 67828200.000000, 2467.375000, 8143.000000, 8193.500000, 8180.500000
2443, 67828360.000000, 2441.750000, 8156.000000, 8196.500000, 8190.000000
2444, 67828520.000000, 2411.000000, 8170.500000, 8191.000000, 8187.000000
2445, 67828680.000000, 2358.625000, 8234.500000, 8221.500000, 8253.000000
2446, 67828840.000000, 2285.000000, 8683.500000, 7911.500000, 8151.000000
2447, 67829000.000000, 2198.375000, 8398.000000, 7914.000000, 7981.500000
2448, 67829160.000000, 2104.250000, 8263.000000, 8150.000000, 8179.000000
2449, 67829320.000000, 2008.375000, 8267.000000, 8195.500000, 8229.500000
2450, 67829480.000000, 1914.250000, 8266.500000, 8198.000000, 8234.500000
2451, 67829640.000000, 1826.000000, 8279.500000, 8205.000000, 8246.000000
2452, 67829800.000000, 1750.500000, 8274.000000, 8205.500000, 8249.500000
2453, 67829960.000000, 1689.125000, 8280.500000, 8208.000000, 8259.000000
2454, 67830120.000000, 1632.625000, 8293.500000, 8215.500000, 8270.000000
2455, 67830280.000000, 1576.125000, 8313.000000, 8221.500000, 8282.500000
2456, 67830440.000000, 1519.875000, 8333.500000, 8234.500000, 8309.500000
2457, 67830600.000000, 1472.000000, 8355.000000, 8237.000000, 8317.000000
2458, 67830760.000000, 1435.875000, 8352.000000, 8236.500000, 8318.500000
2459, 67830920.000000, 1402.125000, 8332.500000, 8235.000000, 8312.500000
2460, 67831080.000000, 1364.000000, 8294.000000, 8217.500000, 8277.500000
2461, 67831240.000000, 1323.000000, 8253.000000, 8205.500000, 8246.000000
2462, 67831400.000000, 1283.625000, 8215.500000, 8201.000000, 8224.000000
2463, 67831560.000000, 1248.250000, 8191.000000, 8212.500000, 8224.000000
2464, 67831720.000000, 1218.375000, 8183.000000, 8210.000000, 8219.000000
2465, 67831880.000000, 1203.500000, 8188.500000, 8217.000000, 8231.500000
2466, 67832040.000000, 1200.250000, 8186.500000, 8217.000000, 8228.500000
2467, 67832200.000000, 1207.500000, 8179.000000, 8212.500000, 8222.500000
2468, 67832360.000000, 1215.875000, 8170.500000, 8216.500000, 8221.500000
2469, 67832520.000000, 1227.250000, 8158.500000, 8221.000000, 8224.500000
2470, 67832680.000000, 1279.875000, 8144.000000, 8228.000000, 8230.000000
2471, 67832840.000000, 1429.500000, 8135.000000, 8226.000000, 8223.500000
2472, 67833000.000000, 1720.125000, 8131.500000, 8224.000000, 8220.000000
2473, 67833160.000000, 2089.500000, 8128.500000, 8226.000000, 8220.000000
2474, 67833320.000000, 2467.375000, 8124.000000, 8225.500000, 8218.500000
2475, 67833480.000000, 2782.375000, 8124.000000, 8224.500000, 8219.500000
2476, 67833640.000000, 3016.750000, 8124.500000, 8222.000000, 8216.500000
2477, 67833800.000000, 3178.000000, 8124.000000, 8219.500000, 8212.500000
2478, 67833960.000000, 3278.000000, 8127.500000, 8222.000000, 8218.500000
2479, 67834120.000000, 3342.125000, 8132.000000, 8222.500000, 8223.500000
2480, 67834280.000000, 3377.250000, 8129.500000, 8220.500000, 8218.000000
2481, 67834440.000000, 3389.625000, 8133.000000, 8223.500000, 8222.500000
2482, 67834600.000000, 3373.500000, 8132.500000, 8220.500000, 8223.000000
2483, 67834760.000000, 3319.125000, 8130.500000, 8219.500000, 8216.000000
2484, 67834920.000000, 3231.625000, 8133.000000, 8218.500000, 8219.000000
2485, 67835080.000000, 3130.750000, 8136.500000, 8222.000000, 8224.000000
2486, 67835240.000000, 3033.125000, 8141.500000, 8220.500000, 8228.000000
2487, 67835400.000000, 2950.250000, 8150.500000, 8231.500000, 8247.000000
2488, 67835560.000000, 2879.750000, 8160.500000, 8228.000000, 8256.000000
2489, 67835720.000000, 2813.750000, 8164.500000, 8219.500000, 8235.500000
2490, 67835880.000000, 2747.500000, 8155.000000, 8212.000000, 8218.500000
2491, 67836040.000000, 2665.375000, 8146.500000, 8205.000000, 8202.000000
2492, 67836200.000000, 2567.125000, 8150.000000, 8200.000000, 8200.000000
2493, 67836360.000000, 2457.500000, 8150.000000, 8201.500000, 8201.500000
2494, 67836520.000000, 2348.125000, 8124.000000, 8258.000000, 8252.000000
2495, 67836680.000000, 2248.625000, 8502.000000, 8103.000000, 8280.500000
2496, 67836840.000000, 2166.250000, 8486.500000, 7904.500000, 8037.500000
2497, 67837000.000000, 2103.125000, 8146.500000, 8167.500000, 8160.500000
2498, 67837160.000000, 2045.000000, 8135.500000, 8230.500000, 8223.000000
2499, 67837320.000000, 1983.750000, 8127.500000, 8240.500000, 8223.000000
2500, 67837480.000000, 1918.750000, 8136.500000, 8238.000000, 8223.500000
2501, 67837640.000000, 1848.250000, 8152.000000, 8245.000000, 8245.000000
2502, 67837800.000000, 1773.875000, 8160.500000, 8242.500000, 8242.500000
2503, 67837960.000000, 1705.875000, 8164.500000, 8250.500000, 8253.000000
2504, 67838120.000000, 1647.875000, 8179.000000, 8251.500000, 8259.000000
2505, 67838280.000000, 1596.500000, 8195.500000, 8260.500000, 8278.000000
2506, 67838440.000000, 1547.125000, 8206.000000, 8263.000000, 8285.500000
2507, 67838600.000000, 1503.125000, 8204.000000, 8267.500000, 8292.500000
2508, 67838760.000000, 1467.875000, 8190.000000, 8268.500000, 8292.500000
2509, 67838920.000000, 1438.500000, 8167.000000, 8255.000000, 8266.000000
2510, 67839080.000000, 1405.250000, 8134.500000, 8233.000000, 8230.000000
2511, 67839240.000000, 1369.250000, 8116.000000, 8219.000000, 8203.500000
2512, 67839400.000000, 1335.875000, 8119.500000, 8205.000000, 8187.000000
2513, 67839560.000000, 1312.250000, 8138.500000, 8201.000000, 8188.000000
2514, 67839720.000000, 1301.125000, 8177.500000, 8189.000000, 8189.500000
2515, 67839880.000000, 1295.750000, 8209.000000, 8184.000000, 8199.500000
2516, 67840040.000000, 1289.500000, 8233.000000, 8173.000000, 8191.500000
2517, 67840200.000000, 1272.625000, 8244.000000, 8165.500000, 8185.500000
2518, 67840360.000000, 1240.000000, 8251.000000, 8166.000000, 8192.500000
2519, 67840520.000000, 1210.125000, 8251.500000, 8162.500000, 8187.000000
2520, 67840680.000000, 1242.500000, 8246.000000, 8161.500000, 8182.500000
2521, 67840840.000000, 1386.625000, 8243.000000, 8156.000000, 8173.000000
2522, 67841000.000000, 1654.125000, 8243.500000, 8157.000000, 8175.500000
2523, 67841160.000000, 1997.875000, 8241.500000, 8156.500000, 8173.500000
2524, 67841320.000000, 2339.750000, 8243.500000, 8156.000000, 8171.500000
2525, 67841480.000000, 2612.375000, 8240.500000, 8157.500000, 8166.000000
2526, 67841640.000000, 2784.125000, 8245.000000, 8159.000000, 8170.000000
2527, 67841800.000000, 2880.875000, 8243.500000, 8156.500000, 8161.000000
2528, 67841960.000000, 2923.875000, 8249.000000, 8154.000000, 8162.000000
2529, 67842120.000000, 2940.250000, 8260.000000, 8154.500000, 8164.500000
2530, 67842280.000000, 2943.000000, 8266.000000, 8157.000000, 8167.000000
2531, 67842440.000000, 2930.625000, 8262.000000, 8155.000000, 8164.500000
2532, 67842600.000000, 2893.500000, 8261.500000, 8153.500000, 8157.000000
2533, 67842760.000000, 2832.375000, 8254.000000, 8157.500000, 8158.500000
2534, 67842920.000000, 2758.875000, 8247.500000, 8162.500000, 8162.500000
2535, 67843080.000000, 2691.125000, 8246.500000, 8163.000000, 8160.500000
2536, 67843240.000000, 2641.375000, 8238.500000, 8180.500000, 8185.500000
2537, 67843400.000000, 2607.750000, 8222.500000, 8183.000000, 8183.500000
2538, 67843560.000000, 2582.750000, 8209.500000, 8187.000000, 8190.000000
2539, 67843720.000000, 2559.750000, 8186.000000, 8185.000000, 8165.500000
2540, 67843880.000000, 2532.500000, 8158.000000, 8179.500000, 8146.000000
2541, 67844040.000000, 2500.000000, 8153.000000, 8184.000000, 8152.000000
2542, 67844200.000000, 2456.750000, 8148.000000, 8183.000000, 8149.000000
2543, 67844360.000000, 2408.125000, 8128.500000, 8204.500000, 8160.500000
2544, 67844520.000000, 2345.750000, 8217.500000, 8222.500000, 8233.500000
2545, 67844680.000000, 2274.250000, 8587.000000, 7852.000000, 8027.000000
2546, 67844840.000000, 2199.875000, 8177.500000, 8007.500000, 7967.000000
2547, 67845000.000000, 2136.250000, 8147.500000, 8202.500000, 8171.000000
2548, 67845160.000000, 2083.500000, 8131.500000, 8230.000000, 8186.000000
2549, 67845320.000000, 2037.625000, 8147.500000, 8237.000000, 8197.500000
2550, 67845480.000000, 1989.500000, 8155.500000, 8234.000000, 8196.000000
2551, 67845640.000000, 1940.750000, 8158.500000, 8230.500000, 8189.500000
2552, 67845800.000000, 1893.500000, 8172.000000, 8232.500000, 8202.500000
2553, 67845960.000000, 1842.250000, 8174.500000, 8236.000000, 8214.500000
2554, 67846120.000000, 1782.750000, 8187.000000, 8237.000000, 8226.000000
2555, 67846280.000000, 1717.750000, 8203.000000, 8239.500000, 8242.000000
2556, 67846440.000000, 1657.250000, 8209.500000, 8239.000000, 8247.500000
2557, 67846600.000000, 1604.500000, 8204.500000, 8237.500000, 8249.000000
2558, 67846760.000000, 1554.500000, 8184.000000, 8233.500000, 8243.000000
2559, 67846920.000000, 1509.250000, 8145.000000, 8213.000000, 8200.000000
2560, 67847080.000000, 1476.500000, 8117.500000, 8204.000000, 8182.000000
2561, 67847240.000000, 1454.875000, 8100.500000, 8195.500000, 8162.000000
2562, 67847400.000000, 1434.000000, 8098.000000, 8197.000000, 8164.000000
2563, 67847560.000000, 1410.000000, 8100.500000, 8196.000000, 8159.500000
2564, 67847720.000000, 1391.000000, 8098.500000, 8196.500000, 8159.500000
2565, 67847880.000000, 1372.375000, 8105.500000, 8203.000000, 8171.500000
2566, 67848040.000000, 1357.625000, 8109.500000, 8204.500000, 8173.000000
2567, 67848200.000000, 1331.125000, 8107.000000, 8200.500000, 8163.500000
2568, 67848360.000000, 1288.125000, 8110.000000, 8198.000000, 8165.000000
2569, 67848520.000000, 1252.625000, 8111.500000, 8197.000000, 8161.500000
2570, 67848680.000000, 1276.125000, 8110.500000, 8195.000000, 8156.000000
2571, 67848840.000000, 1428.625000, 8108.500000, 8193.000000, 8152.500000
2572, 67849000.000000, 1702.625000, 8111.000000, 8191.500000, 8151.000000
2573, 67849160.000000, 2050.000000, 8115.500000, 8187.000000, 8147.500000
2574, 67849320.000000, 2399.125000, 8114.500000, 8188.500000, 8148.000000
2575, 67849480.000000, 2696.875000, 8118.500000, 8188.500000, 8151.000000
2576, 67849640.000000, 2904.125000, 8125.500000, 8185.000000, 8148.000000
2577, 67849800.000000, 3025.375000, 8135.500000, 8181.000000, 8148.500000
2578, 67849960.000000, 3075.875000, 8148.500000, 8177.000000, 8146.500000
2579, 67850120.000000, 3081.125000, 8168.500000, 8176.000000, 8154.000000
2580, 67850280.000000, 3054.625000, 8206.500000, 8165.500000, 8161.500000
2581, 67850440.000000, 3007.875000, 8250.500000, 8164.000000, 8184.000000
2582, 67850600.000000, 2932.500000, 8288.000000, 8153.000000, 8196.000000
2583, 67850760.000000, 2827.250000, 8316.000000, 8137.500000, 8178.000000
2584, 67850920.000000, 2711.250000, 8330.000000, 8126.000000, 8166.000000
2585, 67851080.000000, 2607.500000, 8331.500000, 8119.500000, 8154.500000
2586, 67851240.000000, 2527.125000, 8330.500000, 8113.000000, 8146.500000
2587, 67851400.000000, 2477.250000, 8328.500000, 8117.000000, 8150.000000
2588, 67851560.000000, 2448.375000, 8303.000000, 8158.500000, 8183.500000
2589, 67851720.000000, 2426.500000, 8526.000000, 8141.500000, 8286.000000
2590, 67851880.000000, 2387.500000, 8741.500000, 7802.000000, 8036.000000
2591, 67852040.000000, 2328.625000, 8290.500000, 8014.000000, 8017.500000
2592, 67852200.000000, 2260.500000, 8289.500000, 8156.500000, 8178.500000
2593, 67852360.000000, 2194.875000, 8275.500000, 8172.500000, 8185.500000
2594, 67852520.000000, 2135.625000, 8275.000000, 8184.500000, 8199.000000
2595, 67852680.000000, 2078.250000, 8277.500000, 8189.000000, 8208.000000
2596, 67852840.000000, 2020.375000, 8273.500000, 8192.500000, 8210.000000
2597, 67853000.000000, 1956.750000, 8290.000000, 8196.000000, 8215.000000
2598, 67853160.000000, 1893.375000, 8293.500000, 8196.500000, 8227.000000
2599, 67853320.000000, 1828.625000, 8317.000000, 8208.000000, 8241.000000
2600, 67853480.000000, 1760.500000, 8335.000000, 8216.500000, 8260.500000
2601, 67853640.000000, 1693.625000, 8340.000000, 8221.500000, 8265.000000
2602, 67853800.000000, 1626.750000, 8326.000000, 8225.000000, 8265.500000
2603, 67853960.000000, 1556.500000, 8297.500000, 8216.500000, 8252.000000
2604, 67854120.000000, 1491.000000, 8249.500000, 8202.000000, 8220.000000
2605, 67854280.000000, 1442.250000, 8206.000000, 8191.500000, 8188.000000
2606, 67854440.000000, 1416.250000, 8185.500000, 8189.000000, 8179.000000
2607, 67854600.000000, 1411.375000, 8173.000000, 8190.000000, 8171.000000
2608, 67854760.000000, 1421.125000, 8167.500000, 8196.500000, 8181.500000
2609, 67854920.000000, 1441.125000, 8160.000000, 8200.500000, 8183.500000
2610, 67855080.000000, 1466.250000, 8151.500000, 8201.500000, 8183.000000
2611, 67855240.000000, 1491.000000, 8147.500000, 8201.000000, 8180.500000
2612, 67855400.000000, 1505.875000, 8147.500000, 8200.000000, 8178.000000
2613, 67855560.000000, 1505.875000, 8144.000000, 8199.000000, 8176.000000
2614, 67855720.000000, 1515.250000, 8143.000000, 8200.000000, 8176.500000
2615, 67855880.000000, 1580.250000, 8139.500000, 8201.000000, 8175.500000
2616, 67856040.000000, 1766.750000, 8152.500000, 8192.500000, 8170.500000
2617, 67856200.000000, 2064.875000, 8128.500000, 8198.500000, 8172.500000
2618, 67856360.000000, 2427.250000, 8132.000000, 8195.500000, 8174.000000
2619, 67856520.000000, 2772.375000, 8133.000000, 8194.500000, 8170.500000
2620, 67856680.000000, 3039.125000, 8130.500000, 8193.500000, 8177.000000
2621, 67856840.000000, 3195.125000, 8123.500000, 8193.000000, 8171.500000
2622, 67857000.000000, 3240.875000, 8126.000000, 8190.000000, 8173.000000
2623, 67857160.000000, 3220.875000, 8125.000000, 8191.500000, 8177.500000
2624, 67857320.000000, 3171.250000, 8122.500000, 8195.000000, 8179.000000
2625, 67857480.000000, 3108.375000, 8124.500000, 8197.000000, 8181.500000
2626, 67857640.000000, 3029.500000, 8126.500000, 8201.000000, 8195.000000
2627, 67857800.000000, 2927.500000, 8131.500000, 8212.000000, 8212.500000
2628, 67857960.000000, 2813.625000, 8139.500000, 8209.500000, 8215.500000
2629, 67858120.000000, 2698.625000, 8136.500000, 8206.000000, 8202.500000
2630, 67858280.000000, 2598.875000, 8127.000000, 8199.500000, 8183.500000
2631, 67858440.000000, 2516.500000, 8115.000000, 8195.500000, 8170.500000
2632, 67858600.000000, 2453.250000, 8116.000000, 8194.000000, 8171.000000
2633, 67858760.000000, 2401.625000, 8111.000000, 8199.500000, 8176.500000
2634, 67858920.000000, 2352.875000, 8092.000000, 8254.500000, 8229.000000
2635, 67859080.000000, 2293.750000, 8502.500000, 8052.000000, 8219.000000
2636, 67859240.000000, 2222.000000, 8375.000000, 7907.000000, 7979.000000
2637, 67859400.000000, 2140.875000, 8102.000000, 8172.500000, 8140.000000
2638, 67859560.000000, 2060.250000, 8094.000000, 8235.500000, 8205.500000
2639, 67859720.000000, 1991.875000, 8094.000000, 8249.500000, 8218.500000
2640, 67859880.000000, 1930.000000, 8103.500000, 8249.500000, 8224.000000
2641, 67860040.000000, 1870.125000, 8114.500000, 8250.000000, 8226.500000
2642, 67860200.000000, 1813.250000, 8127.000000, 8248.500000, 8232.500000
2643, 67860360.000000, 1760.500000, 8135.000000, 8255.000000, 8244.500000
2644, 67860520.000000, 1709.875000, 8158.000000, 8258.000000, 8255.000000
2645, 67860680.000000, 1655.000000, 8183.000000, 8261.500000, 8275.500000
2646, 67860840.000000, 1594.000000, 8213.000000, 8260.000000, 8286.000000
2647, 67861000.000000, 1532.250000, 8227.500000, 8255.000000, 8294.000000
2648, 67861160.000000, 1479.500000, 8241.000000, 8252.500000, 8292.000000
2649, 67861320.000000, 1433.875000, 8223.000000, 8227.000000, 8264.000000
2650, 67861480.000000, 1396.250000, 8209.000000, 8204.500000, 8234.000000
2651, 67861640.000000, 1361.250000, 8202.000000, 8188.000000, 8209.000000
2652, 67861800.000000, 1327.875000, 8209.500000, 8184.000000, 8207.500000
2653, 67861960.000000, 1297.500000, 8209.500000, 8185.500000, 8212.000000
2654, 67862120.000000, 1269.750000, 8209.500000, 8188.500000, 8212.000000
2655, 67862280.000000, 1250.375000, 8211.500000, 8192.000000, 8220.000000
2656, 67862440.000000, 1242.375000, 8206.500000, 8191.500000, 8214.000000
2657, 67862600.000000, 1236.625000, 8205.500000, 8190.500000, 8216.500000
2658, 67862760.000000, 1224.625000, 8204.500000, 8190.500000, 8214.000000
2659, 67862920.000000, 1205.500000, 8202.500000, 8190.500000, 8214.500000
2660, 67863080.000000, 1222.000000, 8198.500000, 8189.500000, 8209.500000
2661, 67863240.000000, 1343.750000, 8194.000000, 8188.500000, 8201.000000
2662, 67863400.000000, 1616.750000, 8193.500000, 8185.000000, 8199.000000
2663, 67863560.000000, 1996.500000, 8197.500000, 8190.500000, 8205.000000
2664, 67863720.000000, 2398.875000, 8183.500000, 8190.500000, 8196.000000
2665, 67863880.000000, 2727.250000, 8165.500000, 8199.500000, 8198.000000
2666, 67864040.000000, 2932.125000, 8145.000000, 8205.000000, 8201.000000
2667, 67864200.000000, 3029.500000, 8131.000000, 8218.500000, 8208.000000
2668, 67864360.000000, 3060.500000, 8125.500000, 8214.500000, 8196.500000
2669, 67864520.000000, 3061.500000, 8149.000000, 8214.500000, 8207.000000
2670, 67864680.000000, 3049.250000, 8163.500000, 8210.000000, 8209.000000
2671, 67864840.000000, 3027.000000, 8173.500000, 8206.500000, 8205.500000
2672, 67865000.000000, 2978.000000, 8193.500000, 8192.000000, 8197.000000
2673, 67865160.000000, 2904.625000, 8203.500000, 8199.500000, 8209.000000
2674, 67865320.000000, 2816.125000, 8188.500000, 8210.500000, 8222.500000
2675, 67865480.000000, 2735.625000, 8177.500000, 8230.500000, 8245.000000
2676, 67865640.000000, 2675.500000, 8163.500000, 8232.000000, 8247.000000
2677, 67865800.000000, 2638.000000, 8157.000000, 8228.500000, 8236.500000
2678, 67865960.000000, 2622.500000, 8136.500000, 8223.000000, 8213.500000
2679, 67866120.000000, 2613.375000, 8125.000000, 8221.500000, 8210.500000
2680, 67866280.000000, 2595.750000, 8121.500000, 8209.500000, 8195.000000
2681, 67866440.000000, 2562.875000, 8131.000000, 8212.500000, 8206.000000
2682, 67866600.000000, 2512.000000, 8101.000000, 8266.500000, 8253.000000
2683, 67866760.000000, 2445.375000, 8449.500000, 8145.500000, 8307.500000
2684, 67866920.000000, 2371.250000, 8531.000000, 7883.500000, 8042.500000
2685, 67867080.000000, 2299.625000, 8126.500000, 8161.500000, 8146.000000
2686, 67867240.000000, 2237.250000, 8127.000000, 8243.000000, 8237.000000
2687, 67867400.000000, 2191.250000, 8114.000000, 8253.500000, 8243.500000
2688, 67867560.000000, 2159.500000, 8132.000000, 8259.500000, 8256.500000
2689, 67867720.000000, 2128.125000, 8135.000000, 8261.500000, 8257.500000
2690, 67867880.000000, 2087.750000, 8145.000000, 8258.500000, 8259.000000
2691, 67868040.000000, 2036.000000, 8160.500000, 8259.500000, 8263.500000
2692, 67868200.000000, 1971.500000, 8175.500000, 8264.000000, 8279.000000
2693, 67868360.000000, 1898.125000, 8196.500000, 8265.000000, 8289.000000
2694, 67868520.000000, 1820.000000, 8215.500000, 8268.000000, 8301.000000
2695, 67868680.000000, 1741.250000, 8231.000000, 8269.000000, 8312.000000
2696, 67868840.000000, 1666.875000, 8223.000000, 8264.500000, 8304.000000
2697, 67869000.000000, 1595.500000, 8197.000000, 8251.000000, 8282.500000
2698, 67869160.000000, 1530.000000, 8163.500000, 8239.500000, 8252.500000
2699, 67869320.000000, 1471.375000, 8139.000000, 8223.500000, 8215.500000
2700, 67869480.000000, 1425.000000, 8132.500000, 8219.000000, 8213.500000
2701, 67869640.000000, 1390.500000, 8131.000000, 8214.000000, 8199.000000
2702, 67869800.000000, 1364.375000, 8130.000000, 8214.500000, 8198.500000
2703, 67869960.000000, 1346.250000, 8128.000000, 8212.500000, 8197.500000
2704, 67870120.000000, 1330.625000, 8131.000000, 8216.000000, 8199.500000
2705, 67870280.000000, 1309.875000, 8138.500000, 8209.500000, 8197.000000
2706, 67870440.000000, 1283.500000, 8139.000000, 8203.000000, 8190.000000
2707, 67870600.000000, 1250.625000, 8145.500000, 8203.000000, 8186.500000
2708, 67870760.000000, 1245.500000, 8133.000000, 8197.000000, 8179.000000
2709, 67870920.000000, 1332.750000, 8118.000000, 8201.500000, 8170.500000
2710, 67871080.000000, 1560.875000, 8102.000000, 8200.000000, 8161.500000
2711, 67871240.000000, 1894.750000, 8099.500000, 8196.000000, 8152.500000
2712, 67871400.000000, 2273.375000, 8094.500000, 8198.500000, 8152.000000
2713, 67871560.000000, 2619.750000, 8091.000000, 8196.000000, 8154.000000
2714, 67871720.000000, 2882.375000, 8097.500000, 8196.500000, 8152.000000
2715, 67871880.000000, 3043.125000, 8116.000000, 8183.500000, 8142.000000
2716, 67872040.000000, 3119.250000, 8132.000000, 8177.000000, 8143.500000
2717, 67872200.000000, 3141.000000, 8160.000000, 8173.000000, 8145.000000
2718, 67872360.000000, 3132.625000, 8182.500000, 8158.000000, 8142.000000
2719, 67872520.000000, 3106.125000, 8209.000000, 8149.500000, 8149.000000
2720, 67872680.000000, 3061.250000, 8254.000000, 8145.000000, 8155.500000
2721, 67872840.000000, 2986.250000, 8276.000000, 8132.500000, 8141.500000
2722, 67873000.000000, 2882.250000, 8305.000000, 8141.000000, 8161.500000
2723, 67873160.000000, 2764.250000, 8326.000000, 8148.500000, 8184.000000
2724, 67873320.000000, 2653.375000, 8327.000000, 8141.000000, 8182.000000
2725, 67873480.000000, 2566.750000, 8322.500000, 8130.500000, 8156.500000
2726, 67873640.000000, 2508.500000, 8299.000000, 8125.500000, 8133.500000
2727, 67873800.000000, 2462.375000, 8292.500000, 8121.000000, 8114.500000
2728, 67873960.000000, 2402.125000, 8279.000000, 8124.000000, 8118.500000
2729, 67874120.000000, 2322.375000, 8274.000000, 8130.500000, 8120.500000
2730, 67874280.000000, 2224.375000, 8253.000000, 8182.000000, 8170.000000
2731, 67874440.000000, 2118.625000, 8671.500000, 7974.000000, 8153.500000
2732, 67874600.000000, 2013.375000, 8498.500000, 7859.000000, 7924.500000
2733, 67874760.000000, 1912.000000, 8239.500000, 8112.500000, 8081.500000
2734, 67874920.000000, 1814.250000, 8231.500000, 8174.000000, 8140.000000
2735, 67875080.000000, 1725.875000, 8226.500000, 8180.500000, 8147.000000
2736, 67875240.000000, 1650.125000, 8229.000000, 8186.500000, 8149.500000
2737, 67875400.000000, 1593.750000, 8233.000000, 8184.000000, 8155.000000
2738, 67875560.000000, 1553.875000, 8250.000000, 8191.000000, 8168.000000
2739, 67875720.000000, 1524.750000, 8263.000000, 8194.000000, 8179.500000
2740, 67875880.000000, 1502.375000, 8266.500000, 8197.500000, 8179.500000
2741, 67876040.000000, 1483.000000, 8293.000000, 8202.500000, 8207.500000
2742, 67876200.000000, 1461.375000, 8319.500000, 8199.500000, 8207.500000
2743, 67876360.000000, 1438.125000, 8328.000000, 8204.500000, 8220.500000
2744, 67876520.000000, 1419.625000, 8305.000000, 8209.000000, 8226.500000
2745, 67876680.000000, 1403.000000, 8264.000000, 8203.000000, 8208.000000
2746, 67876840.000000, 1385.250000, 8214.500000, 8192.000000, 8182.500000
2747, 67877000.000000, 1372.625000, 8185.000000, 8192.000000, 8169.500000
2748, 67877160.000000, 1364.125000, 8159.000000, 8188.000000, 8153.500000
2749, 67877320.000000, 1358.375000, 8147.000000, 8195.000000, 8160.500000
2750, 67877480.000000, 1349.125000, 8140.500000, 8198.000000, 8163.000000
2751, 67877640.000000, 1342.750000, 8139.500000, 8200.500000, 8167.500000
2752, 67877800.000000, 1339.750000, 8139.500000, 8200.500000, 8168.000000
2753, 67877960.000000, 1329.000000, 8142.000000, 8207.000000, 8183.000000
2754, 67878120.000000, 1305.125000, 8137.000000, 8206.000000, 8174.500000
2755, 67878280.000000, 1287.375000, 8131.500000, 8203.500000, 8171.500000
2756, 67878440.000000, 1369.875000, 8131.500000, 8201.000000, 8171.000000
2757, 67878600.000000, 1610.875000, 8137.500000, 8205.000000, 8171.000000
2758, 67878760.000000, 1966.750000, 8135.000000, 8206.500000, 8176.000000
2759, 67878920.000000, 2370.125000, 8124.000000, 8205.500000, 8172.500000
2760, 67879080.000000, 2715.000000, 8121.000000, 8195.500000, 8164.500000
2761, 67879240.000000, 2987.000000, 8121.500000, 8196.500000, 8165.500000
2762, 67879400.000000, 3102.000000, 8119.000000, 8195.500000, 8168.500000
2763, 67879560.000000, 3127.375000, 8116.500000, 8199.000000, 8175.000000
2764, 67879720.000000, 3105.250000, 8111.000000, 8191.500000, 8166.500000
2765, 67879880.000000, 3062.500000, 8108.000000, 8192.500000, 8169.500000
2766, 67880040.000000, 3008.625000, 8111.500000, 8196.000000, 8170.000000
2767, 67880200.000000, 2945.375000, 8110.000000, 8197.500000, 8173.500000
2768, 67880360.000000, 2869.625000, 8116.500000, 8210.000000, 8198.000000
2769, 67880520.000000, 2786.625000, 8120.500000, 8213.500000, 8209.000000
2770, 67880680.000000, 2700.375000, 8118.500000, 8204.000000, 8191.500000
2771, 67880840.000000, 2622.625000, 8108.000000, 8193.000000, 8167.000000
2772, 67881000.000000, 2559.000000, 8104.000000, 8195.000000, 8160.000000
2773, 67881160.000000, 2504.375000, 8099.000000, 8195.500000, 8158.000000
2774, 67881320.000000, 2448.000000, 8101.000000, 8192.000000, 8153.000000
2775, 67881480.000000, 2381.125000, 8086.000000, 8214.500000, 8170.000000
2776, 67881640.000000, 2296.875000, 8211.000000, 8232.000000, 8257.500000
2777, 67881800.000000, 2195.500000, 8541.500000, 7884.500000, 8056.500000
2778, 67881960.000000, 2083.875000, 8107.500000, 8032.000000, 7977.000000
2779, 67882120.000000, 1970.375000, 8089.000000, 8209.500000, 8168.000000
2780, 67882280.000000, 1861.750000, 8078.000000, 8234.000000, 8184.500000
2781, 67882440.000000, 1760.250000, 8082.500000, 8238.500000, 8194.000000
2782, 67882600.000000, 1670.750000, 8094.500000, 8240.500000, 8196.000000
2783, 67882760.000000, 1592.625000, 8101.500000, 8241.000000, 8204.000000
2784, 67882920.000000, 1529.000000, 8111.000000, 8244.500000, 8209.000000
2785, 67883080.000000, 1473.375000, 8124.500000, 8240.500000, 8213.000000
2786, 67883240.000000, 1423.125000, 8153.000000, 8244.500000, 8225.000000
2787, 67883400.000000, 1379.000000, 8184.000000, 8244.000000, 8242.500000
2788, 67883560.000000, 1341.250000, 8213.000000, 8258.500000, 8270.500000
2789, 67883720.000000, 1310.750000, 8220.500000, 8243.500000, 8256.500000
2790, 67883880.000000, 1288.000000, 8226.000000, 8225.500000, 8249.000000
2791, 67884040.000000, 1270.125000, 8218.000000, 8201.000000, 8215.000000
2792, 67884200.000000, 1253.250000, 8213.000000, 8183.000000, 8190.000000
2793, 67884360.000000, 1237.000000, 8221.500000, 8168.000000, 8173.500000
2794, 67884520.000000, 1216.375000, 8232.000000, 8163.000000, 8171.000000
2795, 67884680.000000, 1192.875000, 8234.500000, 8165.000000, 8174.500000
2796, 67884840.000000, 1171.375000, 8241.500000, 8166.500000, 8179.500000
2797, 67885000.000000, 1146.750000, 8242.000000, 8167.000000, 8179.500000
2798, 67885160.000000, 1118.875000, 8239.500000, 8167.500000, 8184.000000
2799, 67885320.000000, 1082.125000, 8235.500000, 8167.000000, 8178.000000
2800, 67885480.000000, 1053.250000, 8235.500000, 8168.000000, 8178.000000
2801, 67885640.000000, 1091.125000, 8227.000000, 8174.500000, 8181.500000
2802, 67885800.000000, 1263.000000, 8212.500000, 8176.000000, 8179.500000
2803, 67885960.000000, 1578.875000, 8212.000000, 8178.500000, 8179.500000
2804, 67886120.000000, 1959.125000, 8205.500000, 8173.000000, 8167.500000
2805, 67886280.000000, 2303.375000, 8211.500000, 8177.000000, 8177.000000
2806, 67886440.000000, 2552.875000, 8214.000000, 8178.000000, 8178.500000
2807, 67886600.000000, 2719.750000, 8204.500000, 8176.000000, 8170.500000
2808, 67886760.000000, 2815.750000, 8189.500000, 8186.000000, 8176.500000
2809, 67886920.000000, 2864.125000, 8177.500000, 8191.500000, 8177.000000
2810, 67887080.000000, 2879.875000, 8165.000000, 8187.500000, 8166.500000
2811, 67887240.000000, 2883.875000, 8156.500000, 8195.000000, 8178.500000
2812, 67887400.000000, 2874.375000, 8136.500000, 8205.500000, 8179.000000
2813, 67887560.000000, 2836.750000, 8126.000000, 8214.000000, 8188.500000
2814, 67887720.000000, 2759.125000, 8124.500000, 8224.500000, 8203.000000
2815, 67887880.000000, 2667.625000, 8116.500000, 8229.000000, 8214.000000
2816, 67888040.000000, 2590.750000, 8111.500000, 8226.500000, 8210.000000
2817, 67888200.000000, 2542.500000, 8108.000000, 8221.000000, 8194.000000
2818, 67888360.000000, 2519.250000, 8096.500000, 8216.000000, 8179.500000
2819, 67888520.000000, 2506.500000, 8092.500000, 8207.500000, 8165.500000
2820, 67888680.000000, 2495.875000, 8094.000000, 8204.500000, 8165.500000
2821, 67888840.000000, 2477.625000, 8099.500000, 8215.500000, 8183.000000
2822, 67889000.000000, 2441.750000, 8097.500000, 8257.000000, 8227.500000
2823, 67889160.000000, 2381.875000, 8536.500000, 7987.000000, 8161.000000
2824, 67889320.000000, 2295.500000, 8340.500000, 7917.500000, 7962.500000
2825, 67889480.000000, 2204.750000, 8110.000000, 8185.500000, 8152.000000
2826, 67889640.000000, 2124.250000, 8106.500000, 8239.000000, 8209.500000
2827, 67889800.000000, 2051.500000, 8109.500000, 8244.000000, 8215.000000
2828, 67889960.000000, 1979.250000, 8117.500000, 8248.500000, 8223.000000
2829, 67890120.000000, 1904.625000, 8120.500000, 8247.000000, 8222.500000
2830, 67890280.000000, 1845.500000, 8130.500000, 8249.500000, 8232.500000
2831, 67890440.000000, 1813.375000, 8143.500000, 8255.000000, 8246.000000
2832, 67890600.000000, 1808.625000, 8158.000000, 8255.500000, 8251.000000
2833, 67890760.000000, 1809.375000, 8187.500000, 8262.500000, 8273.500000
2834, 67890920.000000, 1789.500000, 8209.500000, 8256.500000, 8275.000000
2835, 67891080.000000, 1751.000000, 8216.000000, 8260.500000, 8287.500000
2836, 67891240.000000, 1713.875000, 8206.000000, 8255.000000, 8280.500000
2837, 67891400.000000, 1685.750000, 8171.500000, 8244.000000, 8260.000000
2838, 67891560.000000, 1659.125000, 8135.500000, 8227.000000, 8223.500000
2839, 67891720.000000, 1628.250000, 8120.000000, 8214.500000, 8205.500000
2840, 67891880.000000, 1594.875000, 8117.500000, 8209.500000, 8196.000000
2841, 67892040.000000, 1559.000000, 8120.500000, 8211.000000, 8199.500000
2842, 67892200.000000, 1516.125000, 8132.000000, 8213.500000, 8205.000000
2843, 67892360.000000, 1466.375000, 8141.500000, 8211.000000, 8206.500000
2844, 67892520.000000, 1411.625000, 8154.000000, 8212.000000, 8214.000000
2845, 67892680.000000, 1356.125000, 8158.000000, 8205.000000, 8208.000000
2846, 67892840.000000, 1302.125000, 8163.500000, 8207.500000, 8210.500000
2847, 67893000.000000, 1286.875000, 8174.500000, 8199.000000, 8204.500000
2848, 67893160.000000, 1392.625000, 8170.500000, 8199.500000, 8206.000000
2849, 67893320.000000, 1650.750000, 8159.500000, 8204.000000, 8207.000000
2850, 67893480.000000, 2033.125000, 8152.000000, 8206.000000, 8206.000000
2851, 67893640.000000, 2441.000000, 8143.000000, 8204.000000, 8198.500000
2852, 67893800.000000, 2781.250000, 8139.000000, 8207.000000, 8202.000000
2853, 67893960.000000, 3006.625000, 8144.000000, 8212.000000, 8215.000000
2854, 67894120.000000, 3120.125000, 8145.000000, 8210.000000, 8209.500000
2855, 67894280.000000, 3161.250000, 8146.000000, 8202.500000, 8201.000000
2856, 67894440.000000, 3155.625000, 8147.000000, 8211.000000, 8213.000000
2857, 67894600.000000, 3130.125000, 8151.000000, 8209.500000, 8212.000000
2858, 67894760.000000, 3086.875000, 8165.000000, 8203.500000, 8212.500000
2859, 67894920.000000, 3017.625000, 8187.000000, 8192.000000, 8207.500000
2860, 67895080.000000, 2923.375000, 8213.000000, 8181.000000, 8208.000000
2861, 67895240.000000, 2819.125000, 8248.000000, 8183.000000, 8223.500000
2862, 67895400.000000, 2728.375000, 8276.500000, 8183.000000, 8241.500000
2863, 67895560.000000, 2653.875000, 8303.000000, 8174.000000, 8245.000000
2864, 67895720.000000, 2597.500000, 8330.000000, 8164.500000, 8248.500000
2865, 67895880.000000, 2555.250000, 8343.500000, 8156.500000, 8233.500000
2866, 67896040.000000, 2518.000000, 8339.500000, 8149.000000, 8216.500000
2867, 67896200.000000, 2471.250000, 8333.000000, 8139.500000, 8202.500000
2868, 67896360.000000, 2411.125000, 8333.000000, 8147.000000, 8212.000000
2869, 67896520.000000, 2334.750000, 8323.000000, 8153.500000, 8214.000000
2870, 67896680.000000, 2247.500000, 8327.500000, 8195.500000, 8265.000000
2871, 67896840.000000, 2154.125000, 8774.500000, 7912.500000, 8195.000000
2872, 67897000.000000, 2053.375000, 8468.500000, 7911.500000, 8009.000000
2873, 67897160.000000, 1952.000000, 8292.000000, 8154.500000, 8204.000000
2874, 67897320.000000, 1853.625000, 8270.000000, 8198.000000, 8236.000000
2875, 67897480.000000, 1761.750000, 8261.500000, 8198.500000, 8231.000000
2876, 67897640.000000, 1680.625000, 8265.500000, 8207.500000, 8242.500000
2877, 67897800.000000, 1607.500000, 8271.000000, 8212.500000, 8252.000000
2878, 67897960.000000, 1535.250000, 8268.500000, 8213.500000, 8250.500000
2879, 67898120.000000, 1463.625000, 8281.500000, 8215.500000, 8257.000000
2880, 67898280.000000, 1397.750000, 8299.500000, 8222.000000, 8271.500000
2881, 67898440.000000, 1339.500000, 8319.500000, 8226.000000, 8283.000000
2882, 67898600.000000, 1294.625000, 8333.500000, 8230.500000, 8296.000000
2883, 67898760.000000, 1268.125000, 8320.000000, 8238.000000, 8302.500000
2884, 67898920.000000, 1256.375000, 8299.500000, 8238.500000, 8296.000000
2885, 67899080.000000, 1257.375000, 8253.000000, 8230.500000, 8271.500000
2886, 67899240.000000, 1265.500000, 8214.000000, 8214.000000, 8235.500000
2887, 67899400.000000, 1272.375000, 8184.500000, 8207.000000, 8210.000000
2888, 67899560.000000, 1278.625000, 8175.500000, 8208.500000, 8211.500000
2889, 67899720.000000, 1276.750000, 8165.000000, 8205.500000, 8200.000000
2890, 67899880.000000, 1271.125000, 8160.000000, 8205.000000, 8199.000000
2891, 67900040.000000, 1266.000000, 8152.500000, 8211.500000, 8203.500000
2892, 67900200.000000, 1269.875000, 8148.500000, 8214.500000, 8204.000000
2893, 67900360.000000, 1275.125000, 8137.500000, 8221.500000, 8215.500000
2894, 67900520.000000, 1278.875000, 8121.500000, 8218.000000, 8204.000000
2895, 67900680.000000, 1309.500000, 8113.500000, 8216.500000, 8194.500000
2896, 67900840.000000, 1440.000000, 8123.000000, 8214.500000, 8198.000000
2897, 67901000.000000, 1701.250000, 8127.000000, 8212.500000, 8194.500000
2898, 67901160.000000, 2066.875000, 8128.500000, 8203.500000, 8183.500000
2899, 67901320.000000, 2451.000000, 8128.000000, 8203.500000, 8182.500000
2900, 67901480.000000, 2778.625000, 8127.000000, 8202.000000, 8179.000000
2901, 67901640.000000, 3011.125000, 8126.000000, 8200.000000, 8175.000000
2902, 67901800.000000, 3138.500000, 8129.500000, 8205.000000, 8184.500000
2903, 67901960.000000, 3193.875000, 8124.000000, 8201.000000, 8175.000000
2904, 67902120.000000, 3199.125000, 8124.000000, 8199.000000, 8171.000000
2905, 67902280.000000, 3173.875000, 8125.000000, 8198.000000, 8169.000000
2906, 67902440.000000, 3123.375000, 8127.000000, 8199.500000, 8171.500000
2907, 67902600.000000, 3044.250000, 8127.500000, 8197.500000, 8170.000000
2908, 67902760.000000, 2935.750000, 8124.500000, 8200.000000, 8170.500000
2909, 67902920.000000, 2801.000000, 8120.000000, 8195.000000, 8163.000000
2910, 67903080.000000, 2664.500000, 8125.500000, 8206.500000, 8182.500000
2911, 67903240.000000, 2550.625000, 8126.500000, 8211.000000, 8193.500000
2912, 67903400.000000, 2477.250000, 8126.000000, 8207.500000, 8190.500000
2913, 67903560.000000, 2443.250000, 8124.000000, 8199.500000, 8169.500000
2914, 67903720.000000, 2431.500000, 8109.000000, 8194.500000, 8156.500000
2915, 67903880.000000, 2411.375000, 8101.000000, 8188.500000, 8143.500000
2916, 67904040.000000, 2366.625000, 8099.000000, 8187.500000, 8141.500000
2917, 67904200.000000, 2298.125000, 8094.500000, 8192.500000, 8149.500000
2918, 67904360.000000, 2215.500000, 8094.000000, 8244.000000, 8203.000000
2919, 67904520.000000, 2124.125000, 8517.500000, 8012.000000, 8168.000000
2920, 67904680.000000, 2025.000000, 8329.000000, 7911.500000, 7941.000000
2921, 67904840.000000, 1922.875000, 8093.500000, 8175.000000, 8124.500000
2922, 67905000.000000, 1823.625000, 8082.500000, 8221.000000, 8166.500000
2923, 67905160.000000, 1729.625000, 8087.000000, 8226.500000, 8177.000000
2924, 67905320.000000, 1644.375000, 8094.500000, 8226.500000, 8177.500000
2925, 67905480.000000, 1568.375000, 8104.500000, 8229.000000, 8181.000000
2926, 67905640.000000, 1499.125000, 8120.500000, 8229.500000, 8187.500000
2927, 67905800.000000, 1435.000000, 8129.000000, 8228.500000, 8196.000000
2928, 67905960.000000, 1377.250000, 8146.500000, 8227.500000, 8200.500000
2929, 67906120.000000, 1324.500000, 8188.000000, 8237.000000, 8220.000000
2930, 67906280.000000, 1274.500000, 8208.500000, 8236.500000, 8229.000000
2931, 67906440.000000, 1226.750000, 8227.500000, 8240.500000, 8249.000000
2932, 67906600.000000, 1186.250000, 8222.000000, 8235.000000, 8242.000000
2933, 67906760.000000, 1159.125000, 8199.000000, 8217.500000, 8217.000000
2934, 67906920.000000, 1143.250000, 8184.500000, 8188.000000, 8174.500000
2935, 67907080.000000, 1123.750000, 8194.500000, 8168.000000, 8155.000000
2936, 67907240.000000, 1094.875000, 8227.000000, 8153.000000, 8151.500000
2937, 67907400.000000, 1056.750000, 8251.000000, 8145.000000, 8148.500000
2938, 67907560.000000, 1012.375000, 8280.000000, 8137.000000, 8148.500000
2939, 67907720.000000, 973.250000, 8300.000000, 8132.500000, 8150.500000
2940, 67907880.000000, 939.250000, 8313.000000, 8123.500000, 8145.500000
2941, 67908040.000000, 902.000000, 8328.000000, 8121.000000, 8151.000000
2942, 67908200.000000, 864.250000, 8329.500000, 8123.500000, 8152.000000
2943, 67908360.000000, 844.500000, 8330.500000, 8118.500000, 8146.000000
2944, 67908520.000000, 913.000000, 8321.500000, 8119.000000, 8146.000000
2945, 67908680.000000, 1126.125000, 8312.000000, 8118.500000, 8136.500000
2946, 67908840.000000, 1487.250000, 8306.000000, 8119.000000, 8134.000000
2947, 67909000.000000, 1909.875000, 8294.500000, 8122.500000, 8133.000000
2948, 67909160.000000, 2298.250000, 8290.500000, 8129.000000, 8139.000000
2949, 67909320.000000, 2584.500000, 8283.000000, 8125.000000, 8121.000000
2950, 67909480.000000, 2752.625000, 8277.000000, 8128.500000, 8124.500000
2951, 67909640.000000, 2831.500000, 8271.500000, 8136.000000, 8134.000000
2952, 67909800.000000, 2847.625000, 8265.500000, 8144.000000, 8143.000000
2953, 67909960.000000, 2837.125000, 8255.000000, 8140.500000, 8136.500000
2954, 67910120.000000, 2815.500000, 8255.000000, 8148.000000, 8149.000000
2955, 67910280.000000, 2773.125000, 8255.000000, 8153.000000, 8148.500000
2956, 67910440.000000, 2705.375000, 8253.500000, 8169.000000, 8173.000000
2957, 67910600.000000, 2614.000000, 8253.000000, 8176.000000, 8183.500000
2958, 67910760.000000, 2511.375000, 8243.500000, 8167.500000, 8173.000000
2959, 67910920.000000, 2420.375000, 8228.000000, 8163.000000, 8153.500000
2960, 67911080.000000, 2357.875000, 8219.000000, 8158.500000, 8139.500000
2961, 67911240.000000, 2318.500000, 8229.000000, 8151.000000, 8135.000000
2962, 67911400.000000, 2290.125000, 8253.000000, 8147.000000, 8143.000000
2963, 67911560.000000, 2255.125000, 8203.500000, 8178.000000, 8154.000000
2964, 67911720.000000, 2208.625000, 8288.000000, 8210.500000, 8250.500000
2965, 67911880.000000, 2140.000000, 8568.500000, 7878.500000, 8039.500000
2966, 67912040.000000, 2055.500000, 8127.500000, 8037.500000, 7981.500000
2967, 67912200.000000, 1967.000000, 8086.000000, 8212.500000, 8159.000000
2968, 67912360.000000, 1893.125000, 8071.500000, 8242.000000, 8184.000000
2969, 67912520.000000, 1833.125000, 8079.000000, 8244.500000, 8192.500000
2970, 67912680.000000, 1778.875000, 8093.500000, 8249.000000, 8203.500000
2971, 67912840.000000, 1725.375000, 8102.000000, 8250.000000, 8212.000000
2972, 67913000.000000, 1671.625000, 8103.000000, 8249.500000, 8210.500000
2973, 67913160.000000, 1618.750000, 8121.000000, 8252.000000, 8220.000000
2974, 67913320.000000, 1578.250000, 8149.500000, 8251.500000, 8233.500000
2975, 67913480.000000, 1549.750000, 8191.500000, 8251.000000, 8249.000000
2976, 67913640.000000, 1524.125000, 8239.500000, 8249.500000, 8272.500000
2977, 67913800.000000, 1493.500000, 8238.500000, 8246.500000, 8264.500000
2978, 67913960.000000, 1461.250000, 8212.500000, 8240.000000, 8246.500000
2979, 67914120.000000, 1433.000000, 8172.500000, 8230.000000, 8239.000000
2980, 67914280.000000, 1419.125000, 8123.500000, 8214.500000, 8190.000000
2981, 67914440.000000, 1412.750000, 8102.000000, 8209.500000, 8178.000000
2982, 67914600.000000, 1407.750000, 8080.500000, 8212.500000, 8175.500000
2983, 67914760.000000, 1398.250000, 8077.000000, 8222.500000, 8189.000000
2984, 67914920.000000, 1379.375000, 8067.500000, 8223.000000, 8185.500000
2985, 67915080.000000, 1350.000000, 8064.000000, 8224.500000, 8184.500000
2986, 67915240.000000, 1304.250000, 8070.000000, 8230.000000, 8192.000000
2987, 67915400.000000, 1238.250000, 8072.000000, 8226.000000, 8188.500000
2988, 67915560.000000, 1161.250000, 8071.000000, 8223.000000, 8183.000000
2989, 67915720.000000, 1100.375000, 8083.500000, 8225.500000, 8192.500000
2990, 67915880.000000, 1139.000000, 8083.500000, 8221.500000, 8183.500000
2991, 67916040.000000, 1323.000000, 8088.500000, 8219.000000, 8183.500000
2992, 67916200.000000, 1661.375000, 8085.000000, 8213.000000, 8173.000000
2993, 67916360.000000, 2047.250000, 8091.500000, 8210.000000, 8175.500000
2994, 67916520.000000, 2384.375000, 8098.500000, 8212.000000, 8177.000000
2995, 67916680.000000, 2620.500000, 8104.500000, 8217.000000, 8184.000000
2996, 67916840.000000, 2753.500000, 8103.500000, 8209.000000, 8177.500000
2997, 67917000.000000, 2806.625000, 8106.000000, 8207.500000, 8175.500000
2998, 67917160.000000, 2801.750000, 8111.500000, 8207.500000, 8172.000000
2999, 67917320.000000, 2763.375000, 8112.500000, 8204.500000, 8171.000000
3000, 67917480.000000, 2705.750000, 8118.000000, 8207.500000, 8179.500000
3001, 67917640.000000, 2633.000000, 8135.000000, 8216.500000, 8201.000000
3002, 67917800.000000, 2550.125000, 8156.500000, 8209.000000, 8205.500000
3003, 67917960.000000, 2459.500000, 8185.500000, 8201.500000, 8213.000000
3004, 67918120.000000, 2374.000000, 8205.000000, 8183.000000, 8191.000000
3005, 67918280.000000, 2305.250000, 8221.500000, 8163.500000, 8169.500000
3006, 67918440.000000, 2261.500000, 8248.000000, 8152.500000, 8165.000000
3007, 67918600.000000, 2243.375000, 8271.000000, 8147.500000, 8170.500000
3008, 67918760.000000, 2231.875000, 8286.000000, 8141.000000, 8167.000000
3009, 67918920.000000, 2213.750000, 8322.000000, 8178.000000, 8229.000000
3010, 67919080.000000, 2185.875000, 8754.500000, 7902.500000, 8156.500000
3011, 67919240.000000, 2145.375000, 8471.500000, 7882.500000, 7967.000000
3012, 67919400.000000, 2087.125000, 8312.000000, 8126.000000, 8163.000000
3013, 67919560.000000, 2013.000000, 8302.500000, 8164.500000, 8198.000000
3014, 67919720.000000, 1930.750000, 8298.000000, 8174.500000, 8210.000000
3015, 67919880.000000, 1843.250000, 8297.000000, 8181.500000, 8216.500000
3016, 67920040.000000, 1747.250000, 8301.000000, 8184.500000, 8222.500000
3017, 67920200.000000, 1648.000000, 8304.500000, 8190.000000, 8231.000000
3018, 67920360.000000, 1545.750000, 8314.500000, 8196.500000, 8240.000000
3019, 67920520.000000, 1446.250000, 8319.500000, 8201.000000, 8247.000000
3020, 67920680.000000, 1355.750000, 8335.000000, 8210.500000, 8260.500000
3021, 67920840.000000, 1278.625000, 8346.500000, 8224.000000, 8286.000000
3022, 67921000.000000, 1217.250000, 8344.000000, 8230.000000, 8293.500000
3023, 67921160.000000, 1165.875000, 8323.500000, 8223.500000, 8273.000000
3024, 67921320.000000, 1128.875000, 8287.000000, 8208.000000, 8241.500000
3025, 67921480.000000, 1099.875000, 8239.000000, 8195.500000, 8216.000000
3026, 67921640.000000, 1078.375000, 8218.500000, 8192.500000, 8197.500000
3027, 67921800.000000, 1053.750000, 8217.000000, 8190.500000, 8196.000000
3028, 67921960.000000, 1030.000000, 8198.500000, 8197.000000, 8193.500000
3029, 67922120.000000, 1016.750000, 8207.000000, 8186.500000, 8184.000000
3030, 67922280.000000, 1015.625000, 8224.500000, 8187.500000, 8200.000000
3031, 67922440.000000, 1019.125000, 8200.000000, 8198.000000, 8199.000000
3032, 67922600.000000, 1020.000000, 8155.500000, 8210.000000, 8197.000000
3033, 67922760.000000, 1014.875000, 8105.000000, 8213.500000, 8176.000000
3034, 67922920.000000, 1023.500000, 8084.000000, 8224.500000, 8188.000000
3035, 67923080.000000, 1113.375000, 8070.000000, 8226.000000, 8183.000000
3036, 67923240.000000, 1340.625000, 8068.000000, 8226.500000, 8185.500000
3037, 67923400.000000, 1699.500000, 8072.000000, 8220.500000, 8179.000000
3038, 67923560.000000, 2110.875000, 8068.500000, 8221.500000, 8179.500000
3039, 67923720.000000, 2487.875000, 8075.500000, 8219.500000, 8182.000000
3040, 67923880.000000, 2775.500000, 8079.500000, 8214.000000, 8176.500000
3041, 67924040.000000, 2965.250000, 8086.500000, 8219.500000, 8187.500000
3042, 67924200.000000, 3062.625000, 8093.500000, 8219.500000, 8193.000000
3043, 67924360.000000, 3093.375000, 8098.000000, 8209.500000, 8179.000000
3044, 67924520.000000, 3090.875000, 8131.000000, 8200.500000, 8182.500000
3045, 67924680.000000, 3074.750000, 8150.000000, 8195.500000, 8187.000000
3046, 67924840.000000, 3039.125000, 8163.500000, 8190.000000, 8183.500000
3047, 67925000.000000, 2973.500000, 8173.000000, 8196.500000, 8202.500000
3048, 67925160.000000, 2875.750000, 8177.000000, 8210.000000, 8226.000000
3049, 67925320.000000, 2765.500000, 8187.500000, 8205.500000, 8225.500000
3050, 67925480.000000, 2659.000000, 8170.500000, 8203.500000, 8217.500000
3051, 67925640.000000, 2576.750000, 8163.500000, 8199.000000, 8204.000000
3052, 67925800.000000, 2522.375000, 8137.500000, 8198.000000, 8187.000000
3053, 67925960.000000, 2485.125000, 8125.500000, 8193.500000, 8179.500000
3054, 67926120.000000, 2439.875000, 8115.500000, 8198.000000, 8178.500000
3055, 67926280.000000, 2374.750000, 8087.500000, 8227.500000, 8201.000000
3056, 67926440.000000, 2284.250000, 8242.000000, 8244.500000, 8304.000000
3057, 67926600.000000, 2190.875000, 8567.000000, 7894.000000, 8089.000000
3058, 67926760.000000, 2114.750000, 8094.000000, 8076.000000, 8030.000000
3059, 67926920.000000, 2052.000000, 8086.500000, 8228.000000, 8195.000000
3060, 67927080.000000, 1984.625000, 8076.500000, 8246.000000, 8205.500000
3061, 67927240.000000, 1905.000000, 8080.000000, 8252.500000, 8219.500000
3062, 67927400.000000, 1827.250000, 8088.500000, 8258.000000, 8228.500000
3063, 67927560.000000, 1752.250000, 8097.000000, 8257.000000, 8228.000000
3064, 67927720.000000, 1676.625000, 8105.500000, 8259.000000, 8236.500000
3065, 67927880.000000, 1591.375000, 8118.000000, 8263.000000, 8246.000000
3066, 67928040.000000, 1501.125000, 8132.500000, 8268.000000, 8258.500000
3067, 67928200.000000, 1418.375000, 8154.000000, 8271.000000, 8271.500000
3068, 67928360.000000, 1353.625000, 8175.500000, 8274.500000, 8288.500000
3069, 67928520.000000, 1303.500000, 8174.500000, 8278.500000, 8293.000000
3070, 67928680.000000, 1257.000000, 8157.500000, 8269.500000, 8282.500000
3071, 67928840.000000, 1219.500000, 8127.500000, 8249.000000, 8247.000000
3072, 67929000.000000, 1194.000000, 8110.500000, 8235.500000, 8225.500000
3073, 67929160.000000, 1175.125000, 8106.000000, 8221.000000, 8204.000000
3074, 67929320.000000, 1156.375000, 8127.000000, 8215.000000, 8208.000000
3075, 67929480.000000, 1128.125000, 8160.500000, 8208.000000, 8217.000000
3076, 67929640.000000, 1090.000000, 8188.000000, 8196.000000, 8213.500000
3077, 67929800.000000, 1054.375000, 8227.000000, 8191.500000, 8224.000000
3078, 67929960.000000, 1024.125000, 8250.000000, 8182.500000, 8225.000000
3079, 67930120.000000, 992.000000, 8258.000000, 8180.000000, 8221.000000
3080, 67930280.000000, 951.625000, 8259.000000, 8175.500000, 8219.000000
3081, 67930440.000000, 941.500000, 8254.500000, 8177.000000, 8216.500000
3082, 67930600.000000, 1035.375000, 8247.500000, 8179.000000, 8215.000000
3083, 67930760.000000, 1286.750000, 8243.000000, 8178.500000, 8210.500000
3084, 67930920.000000, 1651.125000, 8235.500000, 8172.500000, 8201.500000
3085, 67931080.000000, 2041.750000, 8229.000000, 8174.000000, 8196.000000
3086, 67931240.000000, 2357.500000, 8230.000000, 8177.000000, 8198.000000
3087, 67931400.000000, 2576.500000, 8221.500000, 8182.000000, 8200.500000
3088, 67931560.000000, 2698.125000, 8210.500000, 8178.000000, 8187.500000
3089, 67931720.000000, 2759.625000, 8211.500000, 8177.000000, 8192.000000
3090, 67931880.000000, 2786.375000, 8216.500000, 8185.000000, 8199.500000
3091, 67932040.000000, 2793.750000, 8224.000000, 8183.000000, 8193.500000
3092, 67932200.000000, 2783.000000, 8222.000000, 8186.000000, 8197.000000
3093, 67932360.000000, 2752.625000, 8195.500000, 8193.000000, 8193.500000
3094, 67932520.000000, 2694.500000, 8150.500000, 8204.500000, 8189.000000
3095, 67932680.000000, 2617.875000, 8139.000000, 8226.000000, 8220.000000
3096, 67932840.000000, 2539.875000, 8122.000000, 8235.500000, 8227.000000
3097, 67933000.000000, 2477.375000, 8113.500000, 8237.500000, 8226.500000
3098, 67933160.000000, 2432.250000, 8104.500000, 8228.000000, 8204.000000
3099, 67933320.000000, 2408.125000, 8084.500000, 8218.500000, 8177.000000
3100, 67933480.000000, 2392.875000, 8083.500000, 8216.000000, 8175.000000
3101, 67933640.000000, 2379.125000, 8081.000000, 8215.500000, 8174.500000
3102, 67933800.000000, 2355.500000, 8069.000000, 8224.500000, 8175.500000
3103, 67933960.000000, 2318.750000, 8129.500000, 8252.500000, 8243.000000
3104, 67934120.000000, 2269.875000, 8547.000000, 7950.500000, 8139.500000
3105, 67934280.000000, 2211.750000, 8179.000000, 8011.000000, 7993.500000
3106, 67934440.000000, 2144.500000, 8099.000000, 8217.500000, 8180.000000
3107, 67934600.000000, 2075.750000, 8076.500000, 8245.000000, 8204.500000
3108, 67934760.000000, 2007.875000, 8076.500000, 8247.000000, 8208.500000
3109, 67934920.000000, 1932.000000, 8078.500000, 8247.500000, 8205.500000
3110, 67935080.000000, 1852.625000, 8085.500000, 8246.500000, 8219.000000
3111, 67935240.000000, 1778.500000, 8095.500000, 8255.500000, 8220.500000
3112, 67935400.000000, 1710.750000, 8103.500000, 8253.500000, 8223.500000
3113, 67935560.000000, 1648.250000, 8118.500000, 8254.500000, 8231.000000
3114, 67935720.000000, 1596.125000, 8141.000000, 8254.000000, 8231.500000
3115, 67935880.000000, 1558.500000, 8164.000000, 8256.500000, 8246.000000
3116, 67936040.000000, 1529.500000, 8164.500000, 8255.500000, 8247.500000
3117, 67936200.000000, 1500.500000, 8158.000000, 8250.000000, 8238.500000
3118, 67936360.000000, 1471.125000, 8132.000000, 8233.000000, 8210.500000
3119, 67936520.000000, 1449.125000, 8105.000000, 8217.500000, 8179.000000
3120, 67936680.000000, 1433.250000, 8089.000000, 8207.500000, 8158.000000
3121, 67936840.000000, 1414.000000, 8085.000000, 8204.500000, 8148.500000
3122, 67937000.000000, 1392.750000, 8085.000000, 8202.500000, 8144.500000
3123, 67937160.000000, 1368.875000, 8084.000000, 8202.000000, 8144.000000
3124, 67937320.000000, 1347.375000, 8093.000000, 8203.500000, 8146.000000
3125, 67937480.000000, 1317.750000, 8091.000000, 8201.000000, 8147.000000
3126, 67937640.000000, 1262.125000, 8096.000000, 8200.000000, 8150.500000
3127, 67937800.000000, 1184.000000, 8095.500000, 8198.000000, 8142.000000
3128, 67937960.000000, 1114.875000, 8092.500000, 8194.500000, 8138.500000
3129, 67938120.000000, 1119.750000, 8093.500000, 8189.000000, 8133.500000
3130, 67938280.000000, 1269.250000, 8106.500000, 8193.000000, 8137.500000
3131, 67938440.000000, 1579.000000, 8110.500000, 8181.500000, 8135.500000
3132, 67938600.000000, 1974.625000, 8118.000000, 8172.500000, 8119.500000
3133, 67938760.000000, 2354.625000, 8121.500000, 8176.500000, 8126.500000
3134, 67938920.000000, 2649.500000, 8112.500000, 8179.500000, 8121.500000
3135, 67939080.000000, 2847.250000, 8101.000000, 8183.000000, 8123.500000
3136, 67939240.000000, 2942.000000, 8091.500000, 8186.000000, 8125.000000
3137, 67939400.000000, 2964.375000, 8090.500000, 8188.500000, 8128.000000
3138, 67939560.000000, 2940.250000, 8104.000000, 8186.000000, 8127.500000
3139, 67939720.000000, 2895.375000, 8135.000000, 8176.500000, 8131.000000
3140, 67939880.000000, 2836.500000, 8180.000000, 8174.500000, 8152.000000
3141, 67940040.000000, 2758.500000, 8219.000000, 8172.000000, 8168.500000
3142, 67940200.000000, 2660.750000, 8255.000000, 8162.000000, 8177.000000
3143, 67940360.000000, 2554.000000, 8277.000000, 8140.000000, 8154.500000
3144, 67940520.000000, 2461.375000, 8289.500000, 8128.500000, 8137.500000
3145, 67940680.000000, 2394.625000, 8300.000000, 8124.000000, 8137.000000
3146, 67940840.000000, 2353.875000, 8307.000000, 8121.500000, 8137.000000
3147, 67941000.000000, 2327.750000, 8316.000000, 8125.500000, 8144.500000
3148, 67941160.000000, 2299.250000, 8296.500000, 8169.500000, 8183.500000
3149, 67941320.000000, 2260.750000, 8699.500000, 7991.000000, 8197.500000
3150, 67941480.000000, 2209.000000, 8560.000000, 7850.500000, 7960.000000
3151, 67941640.000000, 2139.750000, 8290.000000, 8089.000000, 8094.000000
3152, 67941800.000000, 2048.625000, 8285.500000, 8154.500000, 8156.000000
3153, 67941960.000000, 1940.250000, 8277.500000, 8167.000000, 8161.500000
3154, 67942120.000000, 1827.500000, 8275.500000, 8170.000000, 8160.000000
3155, 67942280.000000, 1718.750000, 8276.000000, 8176.500000, 8174.000000
3156, 67942440.000000, 1614.375000, 8275.500000, 8180.500000, 8180.000000
3157, 67942600.000000, 1519.500000, 8287.000000, 8182.000000, 8180.500000
3158, 67942760.000000, 1434.000000, 8301.500000, 8186.500000, 8199.500000
3159, 67942920.000000, 1359.625000, 8326.500000, 8191.500000, 8210.000000
3160, 67943080.000000, 1293.375000, 8357.500000, 8187.500000, 8226.500000
3161, 67943240.000000, 1239.875000, 8378.500000, 8191.000000, 8237.500000
3162, 67943400.000000, 1201.250000, 8353.000000, 8200.000000, 8239.500000
3163, 67943560.000000, 1171.750000, 8312.000000, 8196.000000, 8225.000000
3164, 67943720.000000, 1152.875000, 8270.000000, 8180.000000, 8192.000000
3165, 67943880.000000, 1143.625000, 8239.500000, 8171.500000, 8171.000000
3166, 67944040.000000, 1138.375000, 8205.500000, 8173.000000, 8160.500000
3167, 67944200.000000, 1137.125000, 8179.500000, 8184.000000, 8161.000000
3168, 67944360.000000, 1141.875000, 8170.500000, 8191.000000, 8167.000000
3169, 67944520.000000, 1156.375000, 8156.000000, 8196.500000, 8173.500000
3170, 67944680.000000, 1185.500000, 8140.000000, 8204.000000, 8174.500000
3171, 67944840.000000, 1219.625000, 8129.000000, 8205.500000, 8172.000000
3172, 67945000.000000, 1244.750000, 8117.500000, 8208.000000, 8172.000000
3173, 67945160.000000, 1254.375000, 8105.500000, 8204.000000, 8163.500000
3174, 67945320.000000, 1278.250000, 8111.000000, 8205.500000, 8170.500000
3175, 67945480.000000, 1375.625000, 8103.500000, 8209.000000, 8171.500000
3176, 67945640.000000, 1614.500000, 8099.500000, 8210.500000, 8174.000000
3177, 67945800.000000, 1961.375000, 8097.000000, 8208.000000, 8166.000000
3178, 67945960.000000, 2348.375000, 8098.000000, 8205.500000, 8168.500000
3179, 67946120.000000, 2685.250000, 8100.500000, 8203.500000, 8169.000000
3180, 67946280.000000, 2921.750000, 8111.000000, 8202.000000, 8170.500000
3181, 67946440.000000, 3038.375000, 8132.000000, 8193.000000, 8170.500000
3182, 67946600.000000, 3055.250000, 8144.000000, 8197.000000, 8182.500000
3183, 67946760.000000, 3020.375000, 8150.500000, 8205.000000, 8201.500000
3184, 67946920.000000, 2965.250000, 8154.500000, 8210.000000, 8219.000000
3185, 67947080.000000, 2907.875000, 8149.500000, 8201.500000, 8198.500000
3186, 67947240.000000, 2840.250000, 8140.500000, 8196.000000, 8183.000000
3187, 67947400.000000, 2750.000000, 8131.000000, 8190.000000, 8165.000000
3188, 67947560.000000, 2646.125000, 8126.000000, 8189.000000, 8164.000000
3189, 67947720.000000, 2539.250000, 8124.500000, 8192.000000, 8166.500000
3190, 67947880.000000, 2455.500000, 8092.500000, 8231.000000, 8195.000000
3191, 67948040.000000, 2397.125000, 8315.000000, 8215.500000, 8297.500000
3192, 67948200.000000, 2365.750000, 8545.000000, 7872.000000, 8043.500000
3193, 67948360.000000, 2342.625000, 8088.500000, 8080.000000, 8025.000000
3194, 67948520.000000, 2311.000000, 8096.000000, 8219.500000, 8186.000000
3195, 67948680.000000, 2255.500000, 8091.000000, 8239.500000, 8199.500000
3196, 67948840.000000, 2176.500000, 8090.000000, 8243.500000, 8206.500000
3197, 67949000.000000, 2075.375000, 8088.500000, 8248.000000, 8208.500000
3198, 67949160.000000, 1958.625000, 8089.500000, 8246.000000, 8207.000000
3199, 67949320.000000, 1845.750000, 8099.000000, 8248.500000, 8212.000000
3200, 67949480.000000, 1747.500000, 8122.500000, 8258.000000, 8240.000000
3201, 67949640.000000, 1669.750000, 8146.000000, 8255.000000, 8241.500000
3202, 67949800.000000, 1610.875000, 8173.000000, 8257.500000, 8256.000000
3203, 67949960.000000, 1563.750000, 8193.500000, 8259.500000, 8269.500000
3204, 67950120.000000, 1520.375000, 8217.000000, 8253.000000, 8274.500000
3205, 67950280.000000, 1474.625000, 8224.500000, 8232.000000, 8259.500000
3206, 67950440.000000, 1428.375000, 8213.500000, 8208.000000, 8227.000000
3207, 67950600.000000, 1387.125000, 8210.000000, 8185.000000, 8200.000000
3208, 67950760.000000, 1354.750000, 8218.000000, 8169.000000, 8180.500000
3209, 67950920.000000, 1329.875000, 8239.500000, 8160.000000, 8182.500000
3210, 67951080.000000, 1308.000000, 8260.000000, 8156.000000, 8184.000000
3211, 67951240.000000, 1284.875000, 8286.000000, 8150.500000, 8192.000000
3212, 67951400.000000, 1263.375000, 8303.000000, 8146.500000, 8189.500000
3213, 67951560.000000, 1243.125000, 8307.000000, 8145.500000, 8195.000000
3214, 67951720.000000, 1224.375000, 8310.500000, 8144.000000, 8192.000000
3215, 67951880.000000, 1198.375000, 8306.500000, 8143.500000, 8197.000000
3216, 67952040.000000, 1169.375000, 8301.000000, 8150.500000, 8196.000000
3217, 67952200.000000, 1186.250000, 8293.000000, 8147.000000, 8189.000000
3218, 67952360.000000, 1317.750000, 8280.500000, 8144.000000, 8180.000000
3219, 67952520.000000, 1586.250000, 8277.000000, 8148.500000, 8180.500000
3220, 67952680.000000, 1923.000000, 8265.000000, 8148.500000, 8174.000000
3221, 67952840.000000, 2241.500000, 8265.000000, 8155.500000, 8182.000000
3222, 67953000.000000, 2476.125000, 8259.500000, 8155.500000, 8176.500000
3223, 67953160.000000, 2630.375000, 8260.000000, 8157.500000, 8179.500000
3224, 67953320.000000, 2721.750000, 8260.500000, 8158.000000, 8178.500000
3225, 67953480.000000, 2772.375000, 8270.000000, 8162.500000, 8194.500000
3226, 67953640.000000, 2790.875000, 8286.000000, 8165.500000, 8200.000000
3227, 67953800.000000, 2785.250000, 8284.000000, 8177.000000, 8217.500000
3228, 67953960.000000, 2759.000000, 8275.000000, 8178.500000, 8219.000000
3229, 67954120.000000, 2702.125000, 8259.000000, 8180.000000, 8209.500000
3230, 67954280.000000, 2616.250000, 8231.500000, 8176.000000, 8187.500000
3231, 67954440.000000, 2520.625000, 8212.500000, 8173.000000, 8175.500000
3232, 67954600.000000, 2439.875000, 8195.000000, 8177.000000, 8169.000000
3233, 67954760.000000, 2385.375000, 8178.000000, 8184.500000, 8175.500000
3234, 67954920.000000, 2359.625000, 8122.500000, 8251.000000, 8231.000000
3235, 67955080.000000, 2350.875000, 8447.500000, 8130.500000, 8268.000000
3236, 67955240.000000, 2345.500000, 8498.000000, 7879.000000, 8010.000000
3237, 67955400.000000, 2333.000000, 8102.500000, 8149.000000, 8110.500000
3238, 67955560.000000, 2306.250000, 8092.000000, 8232.500000, 8197.500000
3239, 67955720.000000, 2259.000000, 8083.000000, 8247.000000, 8215.500000
3240, 67955880.000000, 2198.000000, 8085.000000, 8256.500000, 8228.500000
3241, 67956040.000000, 2138.000000, 8084.500000, 8254.000000, 8224.500000
3242, 67956200.000000, 2075.125000, 8088.000000, 8259.500000, 8233.500000
3243, 67956360.000000, 2003.250000, 8096.000000, 8264.500000, 8245.000000
3244, 67956520.000000, 1929.875000, 8101.500000, 8267.500000, 8250.500000
3245, 67956680.000000, 1863.000000, 8125.000000, 8275.500000, 8269.000000
3246, 67956840.000000, 1807.500000, 8152.000000, 8280.000000, 8288.000000
3247, 67957000.000000, 1760.750000, 8161.500000, 8274.500000, 8284.000000
3248, 67957160.000000, 1713.500000, 8165.000000, 8275.500000, 8291.500000
3249, 67957320.000000, 1660.250000, 8150.000000, 8268.000000, 8282.000000
3250, 67957480.000000, 1605.250000, 8114.500000, 8246.500000, 8242.500000
3251, 67957640.000000, 1555.625000, 8097.500000, 8231.500000, 8218.000000
3252, 67957800.000000, 1509.125000, 8091.500000, 8225.500000, 8209.000000
3253, 67957960.000000, 1462.625000, 8099.500000, 8224.000000, 8205.500000
3254, 67958120.000000, 1413.500000, 8102.000000, 8225.500000, 8210.000000
3255, 67958280.000000, 1368.000000, 8112.500000, 8227.500000, 8221.000000
3256, 67958440.000000, 1334.750000, 8108.500000, 8224.000000, 8214.500000
3257, 67958600.000000, 1312.000000, 8116.500000, 8223.000000, 8215.000000
3258, 67958760.000000, 1289.125000, 8116.000000, 8221.000000, 8209.500000
3259, 67958920.000000, 1260.625000, 8116.500000, 8221.000000, 8210.000000
3260, 67959080.000000, 1251.250000, 8115.500000, 8219.000000, 8204.500000
3261, 67959240.000000, 1358.250000, 8113.500000, 8214.500000, 8197.500000
3262, 67959400.000000, 1612.500000, 8113.500000, 8214.500000, 8196.500000
3263, 67959560.000000, 2043.875000, 8117.500000, 8214.000000, 8197.000000
3264, 67959720.000000, 2473.000000, 8121.000000, 8211.000000, 8195.000000
3265, 67959880.000000, 2752.000000, 8133.000000, 8206.500000, 8198.500000
3266, 67960040.000000, 2933.375000, 8141.500000, 8209.000000, 8200.000000
3267, 67960200.000000, 3025.875000, 8124.000000, 8212.500000, 8200.500000
3268, 67960360.000000, 3043.750000, 8103.500000, 8214.000000, 8188.500000
3269, 67960520.000000, 3007.625000, 8108.000000, 8219.500000, 8199.500000
3270, 67960680.000000, 2944.375000, 8110.500000, 8221.000000, 8209.000000
3271, 67960840.000000, 2875.750000, 8127.000000, 8228.500000, 8227.500000
3272, 67961000.000000, 2780.125000, 8156.000000, 8218.500000, 8230.500000
3273, 67961160.000000, 2640.125000, 8197.500000, 8207.000000, 8234.500000
3274, 67961320.000000, 2515.250000, 8225.500000, 8190.000000, 8220.000000
3275, 67961480.000000, 2424.750000, 8243.500000, 8170.500000, 8202.500000
3276, 67961640.000000, 2369.750000, 8267.500000, 8156.500000, 8194.500000
3277, 67961800.000000, 2331.375000, 8301.500000, 8150.000000, 8198.000000
3278, 67961960.000000, 2296.625000, 8309.500000, 8152.000000, 8203.500000
3279, 67962120.000000, 2257.875000, 8363.000000, 8190.000000, 8275.000000
3280, 67962280.000000, 2211.875000, 8791.000000, 7894.000000, 8174.500000
3281, 67962440.000000, 2148.250000, 8450.000000, 7930.500000, 8022.500000
3282, 67962600.000000, 2068.750000, 8320.500000, 8146.000000, 8200.500000
3283, 67962760.000000, 1976.000000, 8303.000000, 8181.000000, 8230.000000
3284, 67962920.000000, 1869.875000, 8292.500000, 8189.500000, 8232.500000
3285, 67963080.000000, 1754.125000, 8292.500000, 8195.500000, 8242.500000
3286, 67963240.000000, 1638.875000, 8293.000000, 8198.000000, 8246.000000
3287, 67963400.000000, 1534.375000, 8295.500000, 8199.500000, 8238.500000
3288, 67963560.000000, 1447.000000, 8304.500000, 8206.000000, 8253.000000
3289, 67963720.000000, 1374.625000, 8310.500000, 8212.000000, 8264.000000
3290, 67963880.000000, 1308.750000, 8331.000000, 8221.500000, 8283.000000
3291, 67964040.000000, 1247.250000, 8350.500000, 8219.500000, 8284.500000
3292, 67964200.000000, 1199.625000, 8343.500000, 8215.500000, 8278.500000
3293, 67964360.000000, 1166.875000, 8325.500000, 8215.500000, 8273.500000
3294, 67964520.000000, 1147.625000, 8310.000000, 8205.500000, 8251.000000
3295, 67964680.000000, 1135.750000, 8260.500000, 8187.500000, 8214.000000
3296, 67964840.000000, 1130.750000, 8224.500000, 8181.500000, 8186.500000
3297, 67965000.000000, 1131.250000, 8210.000000, 8182.500000, 8182.500000
3298, 67965160.000000, 1137.250000, 8213.000000, 8178.000000, 8175.500000
3299, 67965320.000000, 1143.500000, 8217.500000, 8182.000000, 8183.000000
3300, 67965480.000000, 1152.875000, 8211.500000, 8175.000000, 8169.500000
3301, 67965640.000000, 1158.000000, 8204.000000, 8179.500000, 8177.000000
3302, 67965800.000000, 1153.500000, 8196.500000, 8178.500000, 8169.000000
3303, 67965960.000000, 1155.125000, 8195.000000, 8182.500000, 8178.000000
3304, 67966120.000000, 1229.375000, 8177.000000, 8181.500000, 8169.000000
3305, 67966280.000000, 1436.500000, 8160.000000, 8186.000000, 8166.000000
3306, 67966440.000000, 1781.875000, 8143.500000, 8185.500000, 8157.500000
3307, 67966600.000000, 2186.000000, 8134.000000, 8186.000000, 8156.000000
3308, 67966760.000000, 2557.500000, 8129.000000, 8192.500000, 8162.000000
3309, 67966920.000000, 2835.750000, 8121.000000, 8189.000000, 8152.000000
3310, 67967080.000000, 3016.625000, 8122.000000, 8197.000000, 8157.000000
3311, 67967240.000000, 3122.125000, 8118.500000, 8193.500000, 8153.000000
3312, 67967400.000000, 3164.625000, 8107.000000, 8190.500000, 8143.000000
3313, 67967560.000000, 3162.875000, 8115.500000, 8192.500000, 8155.500000
3314, 67967720.000000, 3134.625000, 8111.000000, 8197.000000, 8154.500000
3315, 67967880.000000, 3088.125000, 8113.500000, 8203.500000, 8169.500000
3316, 67968040.000000, 3017.750000, 8119.000000, 8212.500000, 8183.000000
3317, 67968200.000000, 2916.000000, 8116.500000, 8211.500000, 8185.500000
3318, 67968360.000000, 2795.000000, 8119.500000, 8211.500000, 8187.500000
3319, 67968520.000000, 2679.875000, 8105.500000, 8202.500000, 8163.000000
3320, 67968680.000000, 2582.500000, 8082.000000, 8202.000000, 8149.000000
3321, 67968840.000000, 2499.250000, 8075.000000, 8198.500000, 8134.000000
3322, 67969000.000000, 2428.750000, 8074.000000, 8196.000000, 8133.000000
3323, 67969160.000000, 2367.125000, 8064.500000, 8207.500000, 8141.000000
3324, 67969320.000000, 2309.000000, 8113.500000, 8238.500000, 8204.500000
3325, 67969480.000000, 2245.625000, 8516.500000, 7954.500000, 8104.500000
3326, 67969640.000000, 2174.875000, 8160.000000, 7984.500000, 7944.500000
3327, 67969800.000000, 2095.625000, 8063.500000, 8189.000000, 8125.500000
3328, 67969960.000000, 2009.125000, 8064.500000, 8227.000000, 8158.500000
3329, 67970120.000000, 1914.125000, 8063.000000, 8229.000000, 8159.500000
3330, 67970280.000000, 1815.000000, 8070.000000, 8229.000000, 8162.000000
3331, 67970440.000000, 1714.000000, 8079.500000, 8225.000000, 8161.500000
3332, 67970600.000000, 1614.625000, 8094.000000, 8227.500000, 8169.500000
3333, 67970760.000000, 1523.125000, 8114.000000, 8228.000000, 8180.000000
3334, 67970920.000000, 1450.750000, 8127.500000, 8231.500000, 8187.500000
3335, 67971080.000000, 1394.500000, 8154.500000, 8232.500000, 8198.000000
3336, 67971240.000000, 1342.875000, 8179.000000, 8237.000000, 8217.500000
3337, 67971400.000000, 1292.625000, 8187.500000, 8238.500000, 8221.000000
3338, 67971560.000000, 1245.125000, 8177.000000, 8232.000000, 8213.500000
3339, 67971720.000000, 1196.750000, 8158.500000, 8219.000000, 8195.000000
3340, 67971880.000000, 1149.500000, 8139.000000, 8198.000000, 8162.000000
3341, 67972040.000000, 1105.125000, 8151.500000, 8177.000000, 8142.500000
3342, 67972200.000000, 1073.750000, 8181.500000, 8163.000000, 8139.000000
3343, 67972360.000000, 1056.625000, 8216.000000, 8155.500000, 8144.000000
3344, 67972520.000000, 1049.750000, 8243.500000, 8144.500000, 8145.000000
3345, 67972680.000000, 1040.375000, 8278.000000, 8135.000000, 8147.500000
3346, 67972840.000000, 1023.375000, 8307.000000, 8127.000000, 8149.500000
3347, 67973000.000000, 993.375000, 8340.000000, 8113.000000, 8146.000000
3348, 67973160.000000, 962.375000, 8364.500000, 8103.500000, 8146.500000
3349, 67973320.000000, 969.500000, 8375.500000, 8101.500000, 8150.500000
3350, 67973480.000000, 1098.375000, 8373.000000, 8101.500000, 8149.500000
3351, 67973640.000000, 1368.875000, 8369.000000, 8103.500000, 8149.500000
3352, 67973800.000000, 1746.125000, 8360.000000, 8102.500000, 8144.500000
3353, 67973960.000000, 2121.625000, 8349.000000, 8104.000000, 8142.000000
3354, 67974120.000000, 2418.500000, 8340.500000, 8112.500000, 8147.500000
3355, 67974280.000000, 2607.625000, 8324.000000, 8114.000000, 8140.000000
3356, 67974440.000000, 2707.625000, 8316.500000, 8118.000000, 8141.000000
3357, 67974600.000000, 2747.000000, 8306.500000, 8124.000000, 8146.000000
3358, 67974760.000000, 2763.750000, 8302.000000, 8144.000000, 8167.500000
3359, 67974920.000000, 2783.125000, 8296.000000, 8146.000000, 8173.000000
3360, 67975080.000000, 2804.375000, 8288.500000, 8144.500000, 8165.500000
3361, 67975240.000000, 2810.250000, 8268.000000, 8140.500000, 8143.000000
3362, 67975400.000000, 2785.625000, 8251.000000, 8140.500000, 8131.000000
3363, 67975560.000000, 2728.625000, 8238.000000, 8137.000000, 8125.000000
3364, 67975720.000000, 2658.875000, 8232.000000, 8145.000000, 8129.000000
3365, 67975880.000000, 2589.875000, 8201.500000, 8173.000000, 8148.500000
3366, 67976040.000000, 2532.500000, 8360.500000, 8185.000000, 8249.500000
3367, 67976200.000000, 2490.000000, 8647.000000, 7864.500000, 8055.500000
3368, 67976360.000000, 2450.000000, 8187.000000, 8016.000000, 7977.000000
3369, 67976520.000000, 2405.250000, 8184.500000, 8172.000000, 8149.000000
3370, 67976680.000000, 2347.375000, 8168.500000, 8198.500000, 8170.000000
3371, 67976840.000000, 2275.125000, 8170.000000, 8202.500000, 8177.000000
3372, 67977000.000000, 2195.375000, 8177.000000, 8205.000000, 8182.000000
3373, 67977160.000000, 2116.000000, 8190.500000, 8206.500000, 8193.000000
3374, 67977320.000000, 2035.000000, 8201.000000, 8203.500000, 8193.000000
