1799, 64116960.000000, 965.500000, 8121.000000, 8163.000000, 8101.000000
1800, 64117120.000000, 1017.000000, 8121.000000, 8162.000000, 8096.000000
1801, 64117280.000000, 1223.000000, 8118.000000, 8164.000000, 8098.000000
1802, 64117440.000000, 1571.000000, 8111.000000, 8161.000000, 8086.000000
1803, 64117600.000000, 1982.000000, 8107.000000, 8155.000000, 8074.000000
1804, 64117760.000000, 2366.000000, 8114.000000, 8163.000000, 8090.000000
1805, 64117920.000000, 2655.500000, 8116.000000, 8171.000000, 8104.000000
1806, 64118080.000000, 2847.000000, 8118.000000, 8167.000000, 8099.000000
1807, 64118240.000000, 2936.500000, 8113.000000, 8154.000000, 8071.000000
1808, 64118400.000000, 2961.000000, 8102.000000, 8151.000000, 8062.000000
1809, 64118560.000000, 2951.000000, 8100.000000, 8147.000000, 8055.000000
1810, 64118720.000000, 2917.000000, 8098.000000, 8144.000000, 8051.000000
1811, 64118880.000000, 2845.500000, 8087.000000, 8160.000000, 8063.000000
1812, 64119040.000000, 2742.000000, 8149.000000, 8193.000000, 8136.000000
1813, 64119200.000000, 2621.500000, 8523.000000, 7955.000000, 8077.000000
1814, 64119360.000000, 2516.000000, 8143.000000, 7972.000000, 7905.000000
1815, 64119520.000000, 2444.000000, 8102.000000, 8146.000000, 8065.000000
1816, 64119680.000000, 2405.000000, 8101.000000, 8185.000000, 8106.000000
1817, 64119840.000000, 2385.500000, 8100.000000, 8189.000000, 8111.000000
1818, 64120000.000000, 2363.000000, 8107.000000, 8195.000000, 8122.000000
1819, 64120160.000000, 2320.500000, 8117.000000, 8194.000000, 8131.000000
1820, 64120320.000000, 2259.000000, 8134.000000, 8199.000000, 8144.000000
1821, 64120480.000000, 2178.000000, 8148.000000, 8205.000000, 8157.000000
1822, 64120640.000000, 2081.000000, 8171.000000, 8209.000000, 8172.000000
1823, 64120800.000000, 1972.500000, 8194.000000, 8219.000000, 8196.000000
1824, 64120960.000000, 1870.000000, 8205.000000, 8221.000000, 8201.000000
1825, 64121120.000000, 1775.000000, 8207.000000, 8228.000000, 8219.000000
1826, 64121280.000000, 1683.000000, 8171.000000, 8222.000000, 8203.000000
1827, 64121440.000000, 1591.500000, 8123.000000, 8204.000000, 8165.000000
1828, 64121600.000000, 1507.000000, 8094.000000, 8188.000000, 8130.000000
1829, 64121760.000000, 1439.000000, 8090.000000, 8183.000000, 8126.000000
1830, 64121920.000000, 1385.000000, 8091.000000, 8184.000000, 8126.000000
1831, 64122080.000000, 1338.000000, 8091.000000, 8186.000000, 8128.000000
1832, 64122240.000000, 1290.000000, 8099.000000, 8190.000000, 8141.000000
1833, 64122400.000000, 1236.000000, 8112.000000, 8187.000000, 8141.000000
1834, 64122560.000000, 1180.000000, 8113.000000, 8189.000000, 8146.000000
1835, 64122720.000000, 1118.000000, 8117.000000, 8188.000000, 8147.000000
1836, 64122880.000000, 1048.000000, 8118.000000, 8190.000000, 8150.000000
1837, 64123040.000000, 977.500000, 8120.000000, 8187.000000, 8148.000000
1838, 64123200.000000, 955.000000, 8121.000000, 8188.000000, 8152.000000
1839, 64123360.000000, 1044.000000, 8122.000000, 8184.000000, 8145.000000
1840, 64123520.000000, 1262.000000, 8122.000000, 8185.000000, 8146.000000
1841, 64123680.000000, 1567.000000, 8122.000000, 8189.000000, 8154.000000
1842, 64123840.000000, 1881.000000, 8120.000000, 8186.000000, 8149.000000
1843, 64124000.000000, 2135.000000, 8123.000000, 8188.000000, 8151.000000
1844, 64124160.000000, 2302.000000, 8134.000000, 8200.000000, 8177.000000
1845, 64124320.000000, 2378.000000, 8132.000000, 8210.000000, 8193.000000
1846, 64124480.000000, 2397.000000, 8134.000000, 8207.000000, 8192.000000
1847, 64124640.000000, 2387.000000, 8133.000000, 8199.000000, 8173.000000
1848, 64124800.000000, 2356.000000, 8115.000000, 8190.000000, 8148.000000
1849, 64124960.000000, 2302.500000, 8113.000000, 8189.000000, 8146.000000
1850, 64125120.000000, 2226.000000, 8109.000000, 8192.000000, 8146.000000
1851, 64125280.000000, 2136.000000, 8094.000000, 8202.000000, 8152.000000
1852, 64125440.000000, 2053.000000, 8133.000000, 8238.000000, 8214.000000
1853, 64125600.000000, 1992.000000, 8563.000000, 7927.000000, 8107.000000
1854, 64125760.000000, 1957.000000, 8204.000000, 7982.000000, 7963.000000
1855, 64125920.000000, 1940.000000, 8125.000000, 8203.000000, 8172.000000
1856, 64126080.000000, 1920.000000, 8113.000000, 8240.000000, 8205.000000
1857, 64126240.000000, 1879.000000, 8111.000000, 8240.000000, 8203.000000
1858, 64126400.000000, 1819.000000, 8124.000000, 8244.000000, 8212.000000
1859, 64126560.000000, 1746.000000, 8138.000000, 8248.000000, 8223.000000
1860, 64126720.000000, 1665.000000, 8149.000000, 8254.000000, 8233.000000
1861, 64126880.000000, 1581.000000, 8168.000000, 8260.000000, 8249.000000
1862, 64127040.000000, 1495.000000, 8191.000000, 8268.000000, 8263.000000
1863, 64127200.000000, 1413.500000, 8221.000000, 8271.000000, 8283.000000
1864, 64127360.000000, 1340.000000, 8234.000000, 8278.000000, 8297.000000
1865, 64127520.000000, 1277.000000, 8235.000000, 8278.000000, 8300.000000
1866, 64127680.000000, 1217.000000, 8215.000000, 8260.000000, 8278.000000
1867, 64127840.000000, 1151.500000, 8167.000000, 8234.000000, 8227.000000
1868, 64128000.000000, 1083.000000, 8132.000000, 8218.000000, 8193.000000
1869, 64128160.000000, 1027.000000, 8127.000000, 8211.000000, 8183.000000
1870, 64128320.000000, 984.000000, 8126.000000, 8208.000000, 8179.000000
1871, 64128480.000000, 957.000000, 8131.000000, 8211.000000, 8186.000000
1872, 64128640.000000, 931.000000, 8135.000000, 8216.000000, 8193.000000
1873, 64128800.000000, 904.000000, 8128.000000, 8209.000000, 8180.000000
1874, 64128960.000000, 875.000000, 8134.000000, 8209.000000, 8186.000000
1875, 64129120.000000, 851.500000, 8137.000000, 8211.000000, 8190.000000
1876, 64129280.000000, 832.000000, 8131.000000, 8211.000000, 8188.000000
1877, 64129440.000000, 828.000000, 8136.000000, 8209.000000, 8193.000000
1878, 64129600.000000, 883.000000, 8129.000000, 8208.000000, 8187.000000
1879, 64129760.000000, 1043.000000, 8121.000000, 8203.000000, 8179.000000
1880, 64129920.000000, 1301.000000, 8128.000000, 8205.000000, 8188.000000
1881, 64130080.000000, 1593.500000, 8119.000000, 8204.000000, 8183.000000
1882, 64130240.000000, 1852.000000, 8107.000000, 8202.000000, 8167.000000
1883, 64130400.000000, 2039.500000, 8107.000000, 8196.000000, 8163.000000
1884, 64130560.000000, 2171.000000, 8102.000000, 8204.000000, 8175.000000
1885, 64130720.000000, 2253.000000, 8119.000000, 8212.000000, 8195.000000
1886, 64130880.000000, 2308.000000, 8098.000000, 8226.000000, 8203.000000
1887, 64131040.000000, 2340.000000, 8112.000000, 8221.000000, 8209.000000
1888, 64131200.000000, 2342.000000, 8111.000000, 8219.000000, 8204.000000
1889, 64131360.000000, 2309.000000, 8099.000000, 8208.000000, 8177.000000
1890, 64131520.000000, 2245.000000, 8091.000000, 8206.000000, 8176.000000
1891, 64131680.000000, 2162.500000, 8096.000000, 8204.000000, 8177.000000
1892, 64131840.000000, 2080.000000, 8091.000000, 8201.000000, 8175.000000
1893, 64132000.000000, 2027.000000, 8065.000000, 8259.000000, 8226.000000
1894, 64132160.000000, 2012.000000, 8480.000000, 8077.000000, 8244.000000
1895, 64132320.000000, 2015.500000, 8365.000000, 7926.000000, 8008.000000
1896, 64132480.000000, 2013.000000, 8096.000000, 8169.000000, 8148.000000
1897, 64132640.000000, 2010.000000, 8087.000000, 8223.000000, 8198.000000
1898, 64132800.000000, 2015.000000, 8085.000000, 8229.000000, 8201.000000
1899, 64132960.000000, 2016.500000, 8091.000000, 8228.000000, 8204.000000
1900, 64133120.000000, 2013.000000, 8100.000000, 8236.000000, 8220.000000
1901, 64133280.000000, 2033.000000, 8115.000000, 8243.000000, 8241.000000
1902, 64133440.000000, 2097.000000, 8128.000000, 8243.000000, 8249.000000
1903, 64133600.000000, 2188.000000, 8154.000000, 8248.000000, 8266.000000
1904, 64133760.000000, 2243.000000, 8174.000000, 8251.000000, 8278.000000
1905, 64133920.000000, 2241.000000, 8201.000000, 8260.000000, 8301.000000
1906, 64134080.000000, 2191.000000, 8207.000000, 8261.000000, 8306.000000
1907, 64134240.000000, 2116.000000, 8202.000000, 8252.000000, 8302.000000
1908, 64134400.000000, 2037.000000, 8149.000000, 8233.000000, 8257.000000
1909, 64134560.000000, 1965.000000, 8114.000000, 8215.000000, 8218.000000
1910, 64134720.000000, 1889.000000, 8100.000000, 8210.000000, 8202.000000
1911, 64134880.000000, 1793.000000, 8100.000000, 8206.000000, 8194.000000
1912, 64135040.000000, 1682.000000, 8110.000000, 8203.000000, 8192.000000
1913, 64135200.000000, 1563.500000, 8123.000000, 8201.000000, 8190.000000
1914, 64135360.000000, 1441.000000, 8132.000000, 8202.000000, 8191.000000
1915, 64135520.000000, 1309.000000, 8122.000000, 8186.000000, 8186.000000
1916, 64135680.000000, 1166.000000, 8109.000000, 8174.000000, 8190.000000
1917, 64135840.000000, 1033.500000, 8096.000000, 8163.000000, 8184.000000
1918, 64136000.000000, 940.000000, 8109.000000, 8163.000000, 8193.000000
1919, 64136160.000000, 914.000000, 8097.000000, 8161.000000, 8181.000000
1920, 64136320.000000, 984.000000, 8107.000000, 8165.000000, 8187.000000
1921, 64136480.000000, 1161.500000, 8109.000000, 8167.000000, 8185.000000
1922, 64136640.000000, 1399.000000, 8111.000000, 8171.000000, 8180.000000
1923, 64136800.000000, 1618.000000, 8118.000000, 8176.000000, 8180.000000
1924, 64136960.000000, 1785.000000, 8134.000000, 8191.000000, 8203.000000
1925, 64137120.000000, 1899.500000, 8147.000000, 8197.000000, 8212.000000
1926, 64137280.000000, 1970.000000, 8141.000000, 8185.000000, 8178.000000
1927, 64137440.000000, 1990.500000, 8136.000000, 8177.000000, 8147.000000
1928, 64137600.000000, 1970.000000, 8130.000000, 8174.000000, 8134.000000
1929, 64137760.000000, 1933.000000, 8136.000000, 8165.000000, 8115.000000
1930, 64137920.000000, 1884.000000, 8143.000000, 8162.000000, 8109.000000
1931, 64138080.000000, 1803.000000, 8122.000000, 8192.000000, 8125.000000
1932, 64138240.000000, 1693.000000, 8344.000000, 8192.000000, 8242.000000
1933, 64138400.000000, 1575.500000, 8598.000000, 7873.000000, 8021.000000
1934, 64138560.000000, 1479.000000, 8164.000000, 8036.000000, 7965.000000
1935, 64138720.000000, 1415.000000, 8184.000000, 8163.000000, 8113.000000
1936, 64138880.000000, 1373.000000, 8188.000000, 8178.000000, 8125.000000
1937, 64139040.000000, 1338.500000, 8212.000000, 8175.000000, 8128.000000
1938, 64139200.000000, 1299.000000, 8243.000000, 8172.000000, 8143.000000
1939, 64139360.000000, 1252.000000, 8275.000000, 8165.000000, 8142.000000
1940, 64139520.000000, 1202.000000, 8305.000000, 8161.000000, 8150.000000
1941, 64139680.000000, 1143.500000, 8340.000000, 8157.000000, 8159.000000
1942, 64139840.000000, 1074.000000, 8370.000000, 8157.000000, 8169.000000
1943, 64140000.000000, 999.000000, 8405.000000, 8166.000000, 8201.000000
1944, 64140160.000000, 930.000000, 8410.000000, 8172.000000, 8210.000000
1945, 64140320.000000, 885.000000, 8400.000000, 8176.000000, 8216.000000
1946, 64140480.000000, 868.000000, 8342.000000, 8168.000000, 8185.000000
1947, 64140640.000000, 862.500000, 8287.000000, 8156.000000, 8149.000000
1948, 64140800.000000, 847.000000, 8261.000000, 8152.000000, 8137.000000
1949, 64140960.000000, 806.000000, 8252.000000, 8151.000000, 8132.000000
1950, 64141120.000000, 749.000000, 8244.000000, 8154.000000, 8132.000000
1951, 64141280.000000, 694.500000, 8242.000000, 8155.000000, 8136.000000
1952, 64141440.000000, 673.000000, 8245.000000, 8160.000000, 8145.000000
1953, 64141600.000000, 703.000000, 8239.000000, 8155.000000, 8134.000000
1954, 64141760.000000, 770.000000, 8243.000000, 8163.000000, 8148.000000
1955, 64141920.000000, 826.000000, 8238.000000, 8165.000000, 8151.000000
1956, 64142080.000000, 837.000000, 8239.000000, 8161.000000, 8146.000000
1957, 64142240.000000, 802.000000, 8235.000000, 8164.000000, 8148.000000
1958, 64142400.000000, 786.000000, 8226.000000, 8164.000000, 8144.000000
1959, 64142560.000000, 869.500000, 8226.000000, 8168.000000, 8148.000000
1960, 64142720.000000, 1076.000000, 8228.000000, 8174.000000, 8159.000000
1961, 64142880.000000, 1348.500000, 8228.000000, 8176.000000, 8165.000000
1962, 64143040.000000, 1600.000000, 8239.000000, 8184.000000, 8186.000000
1963, 64143200.000000, 1767.500000, 8232.000000, 8182.000000, 8180.000000
1964, 64143360.000000, 1853.000000, 8228.000000, 8182.000000, 8175.000000
1965, 64143520.000000, 1884.000000, 8198.000000, 8178.000000, 8153.000000
1966, 64143680.000000, 1903.000000, 8142.000000, 8189.000000, 8139.000000
1967, 64143840.000000, 1918.500000, 8087.000000, 8205.000000, 8140.000000
1968, 64144000.000000, 1937.000000, 8066.000000, 8219.000000, 8152.000000
1969, 64144160.000000, 1948.500000, 8016.000000, 8280.000000, 8194.000000
1970, 64144320.000000, 1940.000000, 8398.000000, 8143.000000, 8237.000000
1971, 64144480.000000, 1905.500000, 8357.000000, 7944.000000, 7993.000000
1972, 64144640.000000, 1869.000000, 8067.000000, 8183.000000, 8107.000000
1973, 64144800.000000, 1848.000000, 8071.000000, 8255.000000, 8182.000000
1974, 64144960.000000, 1847.000000, 8087.000000, 8260.000000, 8189.000000
1975, 64145120.000000, 1862.000000, 8108.000000, 8258.000000, 8199.000000
1976, 64145280.000000, 1887.000000, 8126.000000, 8250.000000, 8205.000000
1977, 64145440.000000, 1919.500000, 8162.000000, 8237.000000, 8208.000000
1978, 64145600.000000, 1947.000000, 8187.000000, 8236.000000, 8224.000000
1979, 64145760.000000, 1955.000000, 8214.000000, 8231.000000, 8229.000000
1980, 64145920.000000, 1938.000000, 8258.000000, 8239.000000, 8258.000000
1981, 64146080.000000, 1895.000000, 8287.000000, 8242.000000, 8272.000000
1982, 64146240.000000, 1847.000000, 8300.000000, 8246.000000, 8281.000000
1983, 64146400.000000, 1830.000000, 8270.000000, 8239.000000, 8264.000000
1984, 64146560.000000, 1842.000000, 8204.000000, 8216.000000, 8219.000000
1985, 64146720.000000, 1849.500000, 8160.000000, 8203.000000, 8199.000000
1986, 64146880.000000, 1817.000000, 8133.000000, 8191.000000, 8173.000000
1987, 64147040.000000, 1730.500000, 8123.000000, 8189.000000, 8176.000000
1988, 64147200.000000, 1623.000000, 8125.000000, 8188.000000, 8175.000000
1989, 64147360.000000, 1528.000000, 8125.000000, 8190.000000, 8179.000000
1990, 64147520.000000, 1461.000000, 8127.000000, 8190.000000, 8184.000000
1991, 64147680.000000, 1411.500000, 8129.000000, 8189.000000, 8186.000000
1992, 64147840.000000, 1350.000000, 8133.000000, 8188.000000, 8182.000000
1993, 64148000.000000, 1264.000000, 8133.000000, 8185.000000, 8175.000000
1994, 64148160.000000, 1155.000000, 8132.000000, 8186.000000, 8179.000000
1995, 64148320.000000, 1067.500000, 8139.000000, 8193.000000, 8191.000000
1996, 64148480.000000, 1062.000000, 8126.000000, 8194.000000, 8185.000000
1997, 64148640.000000, 1202.000000, 8125.000000, 8193.000000, 8178.000000
1998, 64148800.000000, 1434.000000, 8117.000000, 8199.000000, 8180.000000
1999, 64148960.000000, 1685.000000, 8106.000000, 8209.000000, 8189.000000
2000, 64149120.000000, 1890.000000, 8109.000000, 8219.000000, 8201.000000
2001, 64149280.000000, 2026.500000, 8112.000000, 8226.000000, 8214.000000
2002, 64149440.000000, 2106.000000, 8128.000000, 8230.000000, 8230.000000
2003, 64149600.000000, 2142.000000, 8136.000000, 8218.000000, 8212.000000
2004, 64149760.000000, 2155.000000, 8133.000000, 8210.000000, 8190.000000
2005, 64149920.000000, 2143.500000, 8137.000000, 8203.000000, 8178.000000
2006, 64150080.000000, 2107.000000, 8143.000000, 8199.000000, 8176.000000
2007, 64150240.000000, 2046.000000, 8160.000000, 8195.000000, 8175.000000
2008, 64150400.000000, 1971.000000, 8147.000000, 8238.000000, 8217.000000
2009, 64150560.000000, 1901.000000, 8490.000000, 8151.000000, 8293.000000
2010, 64150720.000000, 1854.000000, 8639.000000, 7857.000000, 8036.000000
2011, 64150880.000000, 1840.000000, 8252.000000, 8104.000000, 8111.000000
2012, 64151040.000000, 1837.000000, 8275.000000, 8189.000000, 8213.000000
2013, 64151200.000000, 1825.000000, 8277.000000, 8198.000000, 8224.000000
2014, 64151360.000000, 1782.000000, 8291.000000, 8203.000000, 8238.000000
2015, 64151520.000000, 1708.500000, 8291.000000, 8201.000000, 8232.000000
2016, 64151680.000000, 1622.000000, 8295.000000, 8207.000000, 8239.000000
2017, 64151840.000000, 1531.500000, 8303.000000, 8211.000000, 8252.000000
2018, 64152000.000000, 1441.000000, 8318.000000, 8221.000000, 8268.000000
2019, 64152160.000000, 1352.500000, 8333.000000, 8226.000000, 8281.000000
2020, 64152320.000000, 1272.000000, 8345.000000, 8236.000000, 8299.000000
2021, 64152480.000000, 1202.500000, 8352.000000, 8241.000000, 8311.000000
2022, 64152640.000000, 1141.000000, 8339.000000, 8234.000000, 8299.000000
2023, 64152800.000000, 1083.000000, 8286.000000, 8214.000000, 8256.000000
2024, 64152960.000000, 1018.000000, 8239.000000, 8199.000000, 8219.000000
2025, 64153120.000000, 952.500000, 8216.000000, 8192.000000, 8199.000000
2026, 64153280.000000, 898.000000, 8205.000000, 8188.000000, 8188.000000
2027, 64153440.000000, 861.500000, 8204.000000, 8189.000000, 8190.000000
2028, 64153600.000000, 830.000000, 8206.000000, 8191.000000, 8188.000000
2029, 64153760.000000, 791.500000, 8210.000000, 8193.000000, 8202.000000
2030, 64153920.000000, 757.000000, 8218.000000, 8188.000000, 8194.000000
2031, 64154080.000000, 742.500000, 8224.000000, 8184.000000, 8192.000000
2032, 64154240.000000, 747.000000, 8232.000000, 8179.000000, 8189.000000
2033, 64154400.000000, 750.500000, 8204.000000, 8192.000000, 8191.000000
2034, 64154560.000000, 763.000000, 8185.000000, 8196.000000, 8191.000000
2035, 64154720.000000, 848.500000, 8124.000000, 8216.000000, 8188.000000
2036, 64154880.000000, 1046.000000, 8033.000000, 8241.000000, 8178.000000
2037, 64155040.000000, 1342.000000, 7997.000000, 8254.000000, 8181.000000
2038, 64155200.000000, 1646.000000, 7991.000000, 8255.000000, 8178.000000
2039, 64155360.000000, 1891.500000, 8003.000000, 8249.000000, 8176.000000
2040, 64155520.000000, 2064.000000, 8026.000000, 8248.000000, 8187.000000
2041, 64155680.000000, 2183.500000, 8053.000000, 8256.000000, 8213.000000
2042, 64155840.000000, 2269.000000, 8073.000000, 8250.000000, 8214.000000
2043, 64156000.000000, 2326.000000, 8091.000000, 8239.000000, 8209.000000
2044, 64156160.000000, 2361.000000, 8109.000000, 8225.000000, 8189.000000
2045, 64156320.000000, 2385.500000, 8110.000000, 8209.000000, 8164.000000
2046, 64156480.000000, 2399.000000, 8128.000000, 8202.000000, 8167.000000
2047, 64156640.000000, 2393.000000, 8143.000000, 8200.000000, 8169.000000
2048, 64156800.000000, 2353.000000, 8147.000000, 8214.000000, 8181.000000
2049, 64156960.000000, 2281.000000, 8268.000000, 8236.000000, 8272.000000
2050, 64157120.000000, 2181.000000, 8653.000000, 7877.000000, 8085.000000
2051, 64157280.000000, 2083.000000, 8200.000000, 8034.000000, 8011.000000
2052, 64157440.000000, 2028.000000, 8191.000000, 8191.000000, 8186.000000
2053, 64157600.000000, 2031.000000, 8177.000000, 8211.000000, 8206.000000
2054, 64157760.000000, 2050.000000, 8178.000000, 8215.000000, 8211.000000
2055, 64157920.000000, 2048.000000, 8181.000000, 8216.000000, 8220.000000
2056, 64158080.000000, 2016.000000, 8184.000000, 8215.000000, 8221.000000
2057, 64158240.000000, 1977.000000, 8201.000000, 8217.000000, 8232.000000
2058, 64158400.000000, 1947.000000, 8229.000000, 8220.000000, 8246.000000
2059, 64158560.000000, 1908.500000, 8255.000000, 8227.000000, 8264.000000
2060, 64158720.000000, 1840.000000, 8277.000000, 8230.000000, 8278.000000
2061, 64158880.000000, 1740.500000, 8277.000000, 8240.000000, 8286.000000
2062, 64159040.000000, 1638.000000, 8273.000000, 8242.000000, 8289.000000
2063, 64159200.000000, 1552.500000, 8229.000000, 8225.000000, 8257.000000
2064, 64159360.000000, 1480.000000, 8170.000000, 8212.000000, 8214.000000
2065, 64159520.000000, 1423.000000, 8128.000000, 8197.000000, 8172.000000
2066, 64159680.000000, 1379.000000, 8111.000000, 8203.000000, 8176.000000
2067, 64159840.000000, 1341.500000, 8103.000000, 8205.000000, 8173.000000
2068, 64160000.000000, 1296.000000, 8094.000000, 8210.000000, 8172.000000
2069, 64160160.000000, 1241.000000, 8092.000000, 8213.000000, 8174.000000
2070, 64160320.000000, 1188.000000, 8091.000000, 8211.000000, 8167.000000
2071, 64160480.000000, 1149.500000, 8100.000000, 8207.000000, 8167.000000
2072, 64160640.000000, 1119.000000, 8105.000000, 8206.000000, 8167.000000
2073, 64160800.000000, 1079.000000, 8114.000000, 8202.000000, 8165.000000
2074, 64160960.000000, 1028.000000, 8125.000000, 8201.000000, 8164.000000
2075, 64161120.000000, 1029.000000, 8148.000000, 8191.000000, 8159.000000
2076, 64161280.000000, 1133.000000, 8187.000000, 8177.000000, 8159.000000
2077, 64161440.000000, 1364.000000, 8217.000000, 8164.000000, 8150.000000
2078, 64161600.000000, 1646.000000, 8244.000000, 8163.000000, 8167.000000
2079, 64161760.000000, 1893.000000, 8257.000000, 8151.000000, 8153.000000
2080, 64161920.000000, 2068.000000, 8267.000000, 8148.000000, 8151.000000
2081, 64162080.000000, 2169.500000, 8277.000000, 8153.000000, 8163.000000
2082, 64162240.000000, 2217.000000, 8286.000000, 8161.000000, 8179.000000
2083, 64162400.000000, 2220.000000, 8286.000000, 8165.000000, 8189.000000
2084, 64162560.000000, 2193.000000, 8277.000000, 8155.000000, 8171.000000
2085, 64162720.000000, 2149.500000, 8265.000000, 8151.000000, 8153.000000
2086, 64162880.000000, 2094.000000, 8245.000000, 8143.000000, 8128.000000
2087, 64163040.000000, 2016.500000, 8239.000000, 8140.000000, 8121.000000
2088, 64163200.000000, 1903.000000, 8235.000000, 8144.000000, 8124.000000
2089, 64163360.000000, 1771.500000, 8196.000000, 8197.000000, 8161.000000
2090, 64163520.000000, 1651.000000, 8519.000000, 8117.000000, 8240.000000
2091, 64163680.000000, 1574.000000, 8590.000000, 7841.000000, 7975.000000
2092, 64163840.000000, 1533.000000, 8209.000000, 8077.000000, 8040.000000
2093, 64164000.000000, 1518.500000, 8215.000000, 8181.000000, 8158.000000
2094, 64164160.000000, 1520.000000, 8216.000000, 8195.000000, 8176.000000
2095, 64164320.000000, 1528.500000, 8209.000000, 8198.000000, 8175.000000
2096, 64164480.000000, 1523.000000, 8219.000000, 8201.000000, 8188.000000
2097, 64164640.000000, 1502.500000, 8237.000000, 8199.000000, 8190.000000
2098, 64164800.000000, 1477.000000, 8269.000000, 8198.000000, 8208.000000
2099, 64164960.000000, 1448.500000, 8289.000000, 8198.000000, 8206.000000
2100, 64165120.000000, 1423.000000, 8304.000000, 8212.000000, 8236.000000
2101, 64165280.000000, 1394.500000, 8297.000000, 8226.000000, 8249.000000
2102, 64165440.000000, 1370.000000, 8228.000000, 8257.000000, 8256.000000
2103, 64165600.000000, 1348.500000, 8150.000000, 8273.000000, 8248.000000
2104, 64165760.000000, 1326.000000, 8082.000000, 8266.000000, 8224.000000
2105, 64165920.000000, 1313.500000, 8027.000000, 8245.000000, 8174.000000
2106, 64166080.000000, 1312.000000, 8007.000000, 8236.000000, 8156.000000
2107, 64166240.000000, 1320.000000, 8012.000000, 8224.000000, 8155.000000
2108, 64166400.000000, 1341.000000, 8022.000000, 8224.000000, 8164.000000
2109, 64166560.000000, 1372.000000, 8052.000000, 8221.000000, 8177.000000
2110, 64166720.000000, 1406.000000, 8070.000000, 8201.000000, 8157.000000
2111, 64166880.000000, 1445.000000, 8106.000000, 8198.000000, 8174.000000
2112, 64167040.000000, 1482.000000, 8129.000000, 8187.000000, 8170.000000
2113, 64167200.000000, 1510.000000, 8150.000000, 8186.000000, 8181.000000
2114, 64167360.000000, 1514.000000, 8147.000000, 8181.000000, 8168.000000
2115, 64167520.000000, 1496.000000, 8144.000000, 8183.000000, 8176.000000
2116, 64167680.000000, 1532.000000, 8147.000000, 8184.000000, 8177.000000
2117, 64167840.000000, 1705.500000, 8141.000000, 8178.000000, 8165.000000
2118, 64168000.000000, 1972.000000, 8140.000000, 8185.000000, 8174.000000
2119, 64168160.000000, 2284.000000, 8143.000000, 8192.000000, 8181.000000
2120, 64168320.000000, 2534.000000, 8153.000000, 8200.000000, 8193.000000
2121, 64168480.000000, 2662.500000, 8139.000000, 8198.000000, 8204.000000
2122, 64168640.000000, 2714.000000, 8130.000000, 8190.000000, 8206.000000
2123, 64168800.000000, 2728.000000, 8118.000000, 8185.000000, 8189.000000
2124, 64168960.000000, 2740.000000, 8096.000000, 8178.000000, 8169.000000
2125, 64169120.000000, 2696.500000, 8093.000000, 8175.000000, 8160.000000
2126, 64169280.000000, 2573.000000, 8086.000000, 8178.000000, 8157.000000
2127, 64169440.000000, 2426.000000, 8075.000000, 8190.000000, 8159.000000
2128, 64169600.000000, 2286.000000, 8079.000000, 8238.000000, 8216.000000
2129, 64169760.000000, 2182.500000, 8470.000000, 7995.000000, 8161.000000
2130, 64169920.000000, 2125.000000, 8191.000000, 7963.000000, 7973.000000
2131, 64170080.000000, 2096.500000, 8072.000000, 8190.000000, 8155.000000
2132, 64170240.000000, 2073.000000, 8079.000000, 8237.000000, 8205.000000
2133, 64170400.000000, 2034.000000, 8088.000000, 8244.000000, 8214.000000
2134, 64170560.000000, 1983.000000, 8092.000000, 8238.000000, 8205.000000
2135, 64170720.000000, 1924.500000, 8106.000000, 8240.000000, 8208.000000
2136, 64170880.000000, 1872.000000, 8130.000000, 8245.000000, 8229.000000
2137, 64171040.000000, 1819.500000, 8151.000000, 8242.000000, 8230.000000
2138, 64171200.000000, 1748.000000, 8194.000000, 8243.000000, 8245.000000
2139, 64171360.000000, 1657.000000, 8249.000000, 8242.000000, 8267.000000
2140, 64171520.000000, 1576.000000, 8285.000000, 8240.000000, 8277.000000
2141, 64171680.000000, 1529.000000, 8303.000000, 8238.000000, 8285.000000
2142, 64171840.000000, 1497.000000, 8282.000000, 8216.000000, 8251.000000
2143, 64172000.000000, 1457.500000, 8245.000000, 8201.000000, 8227.000000
2144, 64172160.000000, 1400.000000, 8210.000000, 8186.000000, 8193.000000
2145, 64172320.000000, 1329.000000, 8201.000000, 8178.000000, 8177.000000
2146, 64172480.000000, 1260.000000, 8199.000000, 8176.000000, 8174.000000
2147, 64172640.000000, 1195.000000, 8204.000000, 8178.000000, 8177.000000
2148, 64172800.000000, 1140.000000, 8202.000000, 8182.000000, 8182.000000
2149, 64172960.000000, 1099.000000, 8203.000000, 8182.000000, 8184.000000
2150, 64173120.000000, 1066.000000, 8203.000000, 8183.000000, 8187.000000
2151, 64173280.000000, 1022.500000, 8205.000000, 8181.000000, 8183.000000
2152, 64173440.000000, 981.000000, 8200.000000, 8182.000000, 8177.000000
2153, 64173600.000000, 991.000000, 8201.000000, 8186.000000, 8189.000000
2154, 64173760.000000, 1114.000000, 8196.000000, 8186.000000, 8184.000000
2155, 64173920.000000, 1367.000000, 8188.000000, 8183.000000, 8174.000000
2156, 64174080.000000, 1671.000000, 8192.000000, 8184.000000, 8179.000000
2157, 64174240.000000, 1958.500000, 8197.000000, 8184.000000, 8179.000000
2158, 64174400.000000, 2197.000000, 8226.000000, 8182.000000, 8192.000000
2159, 64174560.000000, 2380.000000, 8252.000000, 8184.000000, 8211.000000
2160, 64174720.000000, 2507.000000, 8252.000000, 8189.000000, 8220.000000
2161, 64174880.000000, 2588.000000, 8198.000000, 8199.000000, 8210.000000
2162, 64175040.000000, 2638.000000, 8101.000000, 8219.000000, 8180.000000
2163, 64175200.000000, 2671.000000, 8044.000000, 8232.000000, 8171.000000
2164, 64175360.000000, 2688.000000, 8014.000000, 8246.000000, 8177.000000
2165, 64175520.000000, 2692.000000, 7997.000000, 8247.000000, 8168.000000
2166, 64175680.000000, 2693.000000, 7981.000000, 8276.000000, 8183.000000
2167, 64175840.000000, 2685.500000, 8195.000000, 8280.000000, 8309.000000
2168, 64176000.000000, 2675.000000, 8474.000000, 7920.000000, 8051.000000
2169, 64176160.000000, 2669.500000, 8053.000000, 8110.000000, 8035.000000
2170, 64176320.000000, 2674.000000, 8089.000000, 8232.000000, 8197.000000
2171, 64176480.000000, 2674.500000, 8116.000000, 8231.000000, 8204.000000
2172, 64176640.000000, 2667.000000, 8166.000000, 8219.000000, 8211.000000
2173, 64176800.000000, 2652.500000, 8205.000000, 8214.000000, 8222.000000
2174, 64176960.000000, 2647.000000, 8217.000000, 8210.000000, 8222.000000
2175, 64177120.000000, 2651.000000, 8236.000000, 8216.000000, 8232.000000
2176, 64177280.000000, 2662.000000, 8246.000000, 8227.000000, 8246.000000
2177, 64177440.000000, 2664.000000, 8258.000000, 8227.000000, 8262.000000
2178, 64177600.000000, 2641.000000, 8265.000000, 8234.000000, 8286.000000
2179, 64177760.000000, 2586.000000, 8258.000000, 8238.000000, 8295.000000
2180, 64177920.000000, 2510.000000, 8248.000000, 8233.000000, 8293.000000
2181, 64178080.000000, 2424.000000, 8205.000000, 8210.000000, 8248.000000
2182, 64178240.000000, 2339.000000, 8154.000000, 8193.000000, 8211.000000
2183, 64178400.000000, 2258.000000, 8128.000000, 8191.000000, 8193.000000
2184, 64178560.000000, 2167.000000, 8116.000000, 8192.000000, 8187.000000
2185, 64178720.000000, 2057.500000, 8112.000000, 8195.000000, 8185.000000
2186, 64178880.000000, 1935.000000, 8104.000000, 8197.000000, 8178.000000
2187, 64179040.000000, 1822.500000, 8096.000000, 8210.000000, 8191.000000
2188, 64179200.000000, 1724.000000, 8098.000000, 8218.000000, 8205.000000
2189, 64179360.000000, 1624.500000, 8104.000000, 8214.000000, 8201.000000
2190, 64179520.000000, 1520.000000, 8112.000000, 8211.000000, 8193.000000
2191, 64179680.000000, 1441.500000, 8130.000000, 8211.000000, 8201.000000
2192, 64179840.000000, 1454.000000, 8145.000000, 8198.000000, 8184.000000
2193, 64180000.000000, 1600.000000, 8169.000000, 8200.000000, 8202.000000
2194, 64180160.000000, 1846.000000, 8192.000000, 8190.000000, 8195.000000
2195, 64180320.000000, 2111.000000, 8220.000000, 8177.000000, 8187.000000
2196, 64180480.000000, 2353.000000, 8245.000000, 8171.000000, 8193.000000
2197, 64180640.000000, 2565.500000, 8261.000000, 8168.000000, 8197.000000
2198, 64180800.000000, 2750.000000, 8272.000000, 8172.000000, 8206.000000
2199, 64180960.000000, 2890.000000, 8284.000000, 8185.000000, 8233.000000
2200, 64181120.000000, 2971.000000, 8293.000000, 8186.000000, 8246.000000
2201, 64181280.000000, 2982.000000, 8282.000000, 8176.000000, 8223.000000
2202, 64181440.000000, 2935.000000, 8276.000000, 8174.000000, 8209.000000
2203, 64181600.000000, 2853.500000, 8258.000000, 8165.000000, 8188.000000
2204, 64181760.000000, 2781.000000, 8259.000000, 8164.000000, 8188.000000
2205, 64181920.000000, 2732.000000, 8254.000000, 8162.000000, 8182.000000
2206, 64182080.000000, 2668.000000, 8218.000000, 8213.000000, 8225.000000
2207, 64182240.000000, 2564.000000, 8491.000000, 8166.000000, 8318.000000
2208, 64182400.000000, 2445.000000, 8675.000000, 7854.000000, 8065.000000
2209, 64182560.000000, 2361.500000, 8231.000000, 8098.000000, 8099.000000
2210, 64182720.000000, 2313.000000, 8253.000000, 8193.000000, 8217.000000
2211, 64182880.000000, 2268.500000, 8264.000000, 8196.000000, 8223.000000
2212, 64183040.000000, 2211.000000, 8264.000000, 8201.000000, 8224.000000
2213, 64183200.000000, 2150.000000, 8262.000000, 8207.000000, 8231.000000
2214, 64183360.000000, 2089.000000, 8243.000000, 8211.000000, 8228.000000
2215, 64183520.000000, 2021.000000, 8208.000000, 8231.000000, 8237.000000
2216, 64183680.000000, 1952.000000, 8127.000000, 8272.000000, 8258.000000
2217, 64183840.000000, 1896.500000, 8075.000000, 8306.000000, 8277.000000
2218, 64184000.000000, 1857.000000, 8073.000000, 8323.000000, 8297.000000
2219, 64184160.000000, 1823.500000, 8071.000000, 8325.000000, 8298.000000
2220, 64184320.000000, 1795.000000, 8078.000000, 8318.000000, 8299.000000
2221, 64184480.000000, 1789.000000, 8056.000000, 8288.000000, 8255.000000
2222, 64184640.000000, 1811.000000, 8033.000000, 8267.000000, 8222.000000
2223, 64184800.000000, 1852.000000, 8033.000000, 8242.000000, 8187.000000
2224, 64184960.000000, 1882.000000, 8054.000000, 8234.000000, 8189.000000
2225, 64185120.000000, 1890.000000, 8072.000000, 8225.000000, 8182.000000
2226, 64185280.000000, 1886.000000, 8098.000000, 8222.000000, 8189.000000
2227, 64185440.000000, 1888.500000, 8121.000000, 8218.000000, 8196.000000
2228, 64185600.000000, 1902.000000, 8137.000000, 8212.000000, 8193.000000
2229, 64185760.000000, 1917.500000, 8150.000000, 8205.000000, 8190.000000
2230, 64185920.000000, 1934.000000, 8163.000000, 8201.000000, 8195.000000
2231, 64186080.000000, 1965.500000, 8160.000000, 8196.000000, 8194.000000
2232, 64186240.000000, 2059.000000, 8161.000000, 8185.000000, 8185.000000
2233, 64186400.000000, 2259.500000, 8161.000000, 8178.000000, 8180.000000
2234, 64186560.000000, 2562.000000, 8161.000000, 8177.000000, 8181.000000
2235, 64186720.000000, 2896.500000, 8170.000000, 8177.000000, 8185.000000
2236, 64186880.000000, 3184.000000, 8177.000000, 8176.000000, 8187.000000
2237, 64187040.000000, 3349.500000, 8183.000000, 8178.000000, 8189.000000
2238, 64187200.000000, 3412.000000, 8204.000000, 8166.000000, 8187.000000
2239, 64187360.000000, 3401.000000, 8240.000000, 8176.000000, 8215.000000
2240, 64187520.000000, 3349.000000, 8254.000000, 8179.000000, 8229.000000
2241, 64187680.000000, 3267.000000, 8245.000000, 8175.000000, 8217.000000
2242, 64187840.000000, 3168.000000, 8229.000000, 8172.000000, 8194.000000
2243, 64188000.000000, 3063.000000, 8204.000000, 8172.000000, 8181.000000
2244, 64188160.000000, 2943.000000, 8193.000000, 8175.000000, 8177.000000
2245, 64188320.000000, 2804.500000, 8182.000000, 8176.000000, 8173.000000
2246, 64188480.000000, 2663.000000, 8155.000000, 8211.000000, 8200.000000
2247, 64188640.000000, 2544.000000, 8333.000000, 8226.000000, 8315.000000
2248, 64188800.000000, 2446.000000, 8631.000000, 7891.000000, 8103.000000
2249, 64188960.000000, 2361.500000, 8172.000000, 8083.000000, 8061.000000
2250, 64189120.000000, 2279.000000, 8172.000000, 8204.000000, 8196.000000
2251, 64189280.000000, 2185.000000, 8172.000000, 8220.000000, 8210.000000
2252, 64189440.000000, 2088.000000, 8181.000000, 8230.000000, 8228.000000
2253, 64189600.000000, 1997.000000, 8197.000000, 8229.000000, 8233.000000
2254, 64189760.000000, 1908.000000, 8213.000000, 8224.000000, 8231.000000
2255, 64189920.000000, 1817.500000, 8234.000000, 8226.000000, 8245.000000
2256, 64190080.000000, 1727.000000, 8257.000000, 8235.000000, 8267.000000
2257, 64190240.000000, 1637.500000, 8277.000000, 8233.000000, 8271.000000
2258, 64190400.000000, 1553.000000, 8297.000000, 8242.000000, 8289.000000
2259, 64190560.000000, 1469.000000, 8303.000000, 8248.000000, 8303.000000
2260, 64190720.000000, 1375.000000, 8300.000000, 8244.000000, 8299.000000
2261, 64190880.000000, 1273.000000, 8258.000000, 8228.000000, 8261.000000
2262, 64191040.000000, 1172.000000, 8211.000000, 8208.000000, 8220.000000
2263, 64191200.000000, 1080.000000, 8179.000000, 8202.000000, 8197.000000
2264, 64191360.000000, 1002.000000, 8161.000000, 8193.000000, 8174.000000
2265, 64191520.000000, 947.000000, 8160.000000, 8190.000000, 8168.000000
2266, 64191680.000000, 913.000000, 8163.000000, 8188.000000, 8164.000000
2267, 64191840.000000, 900.000000, 8166.000000, 8189.000000, 8167.000000
2268, 64192000.000000, 895.000000, 8165.000000, 8184.000000, 8161.000000
2269, 64192160.000000, 879.000000, 8166.000000, 8182.000000, 8158.000000
2270, 64192320.000000, 852.000000, 8157.000000, 8181.000000, 8153.000000
2271, 64192480.000000, 839.000000, 8162.000000, 8183.000000, 8160.000000
2272, 64192640.000000, 895.000000, 8144.000000, 8180.000000, 8147.000000
2273, 64192800.000000, 1062.000000, 8107.000000, 8194.000000, 8147.000000
2274, 64192960.000000, 1337.000000, 8052.000000, 8207.000000, 8139.000000
2275, 64193120.000000, 1666.000000, 8030.000000, 8215.000000, 8142.000000
2276, 64193280.000000, 1985.000000, 8029.000000, 8215.000000, 8140.000000
2277, 64193440.000000, 2237.500000, 8033.000000, 8219.000000, 8148.000000
2278, 64193600.000000, 2416.000000, 8041.000000, 8219.000000, 8150.000000
2279, 64193760.000000, 2525.000000, 8062.000000, 8226.000000, 8177.000000
2280, 64193920.000000, 2605.000000, 8087.000000, 8225.000000, 8190.000000
2281, 64194080.000000, 2672.000000, 8096.000000, 8206.000000, 8161.000000
2282, 64194240.000000, 2718.000000, 8105.000000, 8198.000000, 8149.000000
2283, 64194400.000000, 2715.500000, 8117.000000, 8189.000000, 8142.000000
2284, 64194560.000000, 2673.000000, 8130.000000, 8182.000000, 8132.000000
2285, 64194720.000000, 2613.500000, 8139.000000, 8177.000000, 8131.000000
2286, 64194880.000000, 2565.000000, 8132.000000, 8235.000000, 8194.000000
2287, 64195040.000000, 2547.000000, 8506.000000, 8073.000000, 8217.000000
2288, 64195200.000000, 2546.000000, 8478.000000, 7874.000000, 7978.000000
2289, 64195360.000000, 2545.500000, 8172.000000, 8125.000000, 8109.000000
2290, 64195520.000000, 2534.000000, 8168.000000, 8188.000000, 8177.000000
2291, 64195680.000000, 2512.000000, 8164.000000, 8202.000000, 8191.000000
2292, 64195840.000000, 2478.000000, 8164.000000, 8205.000000, 8192.000000
2293, 64196000.000000, 2426.500000, 8161.000000, 8208.000000, 8193.000000
2294, 64196160.000000, 2367.000000, 8169.000000, 8211.000000, 8203.000000
2295, 64196320.000000, 2300.000000, 8180.000000, 8222.000000, 8217.000000
2296, 64196480.000000, 2217.000000, 8191.000000, 8228.000000, 8232.000000
2297, 64196640.000000, 2109.500000, 8207.000000, 8238.000000, 8251.000000
2298, 64196800.000000, 1985.000000, 8212.000000, 8243.000000, 8265.000000
2299, 64196960.000000, 1860.500000, 8221.000000, 8253.000000, 8265.000000
2300, 64197120.000000, 1744.000000, 8198.000000, 8250.000000, 8257.000000
2301, 64197280.000000, 1637.000000, 8141.000000, 8228.000000, 8205.000000
2302, 64197440.000000, 1544.000000, 8103.000000, 8217.000000, 8183.000000
2303, 64197600.000000, 1460.500000, 8087.000000, 8210.000000, 8161.000000
2304, 64197760.000000, 1372.000000, 8088.000000, 8206.000000, 8154.000000
2305, 64197920.000000, 1288.500000, 8097.000000, 8208.000000, 8158.000000
2306, 64198080.000000, 1220.000000, 8103.000000, 8209.000000, 8163.000000
2307, 64198240.000000, 1167.500000, 8113.000000, 8206.000000, 8163.000000
2308, 64198400.000000, 1118.000000, 8138.000000, 8203.000000, 8168.000000
2309, 64198560.000000, 1067.000000, 8166.000000, 8191.000000, 8167.000000
2310, 64198720.000000, 1020.000000, 8191.000000, 8181.000000, 8162.000000
2311, 64198880.000000, 990.000000, 8207.000000, 8170.000000, 8159.000000
2312, 64199040.000000, 1010.000000, 8224.000000, 8174.000000, 8167.000000
2313, 64199200.000000, 1122.500000, 8227.000000, 8165.000000, 8160.000000
2314, 64199360.000000, 1325.000000, 8226.000000, 8165.000000, 8157.000000
2315, 64199520.000000, 1557.000000, 8221.000000, 8171.000000, 8181.000000
2316, 64199680.000000, 1739.000000, 8233.000000, 8186.000000, 8200.000000
2317, 64199840.000000, 1829.000000, 8246.000000, 8191.000000, 8200.000000
2318, 64200000.000000, 1862.000000, 8242.000000, 8182.000000, 8179.000000
2319, 64200160.000000, 1877.500000, 8213.000000, 8163.000000, 8146.000000
2320, 64200320.000000, 1907.000000, 8209.000000, 8159.000000, 8134.000000
2321, 64200480.000000, 1949.500000, 8195.000000, 8154.000000, 8135.000000
2322, 64200640.000000, 1977.000000, 8213.000000, 8157.000000, 8132.000000
2323, 64200800.000000, 1969.500000, 8172.000000, 8205.000000, 8175.000000
2324, 64200960.000000, 1925.000000, 8550.000000, 8079.000000, 8223.000000
2325, 64201120.000000, 1845.500000, 8515.000000, 7860.000000, 7964.000000
2326, 64201280.000000, 1742.000000, 8213.000000, 8100.000000, 8067.000000
2327, 64201440.000000, 1648.000000, 8212.000000, 8182.000000, 8163.000000
2328, 64201600.000000, 1599.000000, 8176.000000, 8195.000000, 8164.000000
2329, 64201760.000000, 1609.000000, 8130.000000, 8210.000000, 8160.000000
2330, 64201920.000000, 1659.000000, 8104.000000, 8224.000000, 8167.000000
2331, 64202080.000000, 1723.500000, 8102.000000, 8235.000000, 8182.000000
2332, 64202240.000000, 1786.000000, 8099.000000, 8244.000000, 8193.000000
2333, 64202400.000000, 1862.000000, 8110.000000, 8253.000000, 8210.000000
2334, 64202560.000000, 1947.000000, 8132.000000, 8258.000000, 8229.000000
2335, 64202720.000000, 2026.500000, 8156.000000, 8264.000000, 8245.000000
2336, 64202880.000000, 2072.000000, 8172.000000, 8266.000000, 8258.000000
2337, 64203040.000000, 2077.000000, 8172.000000, 8252.000000, 8246.000000
2338, 64203200.000000, 2051.000000, 8149.000000, 8223.000000, 8204.000000
2339, 64203360.000000, 2028.000000, 8135.000000, 8201.000000, 8174.000000
2340, 64203520.000000, 2036.000000, 8133.000000, 8187.000000, 8157.000000
2341, 64203680.000000, 2075.500000, 8130.000000, 8182.000000, 8148.000000
2342, 64203840.000000, 2123.000000, 8129.000000, 8189.000000, 8160.000000
2343, 64204000.000000, 2159.500000, 8125.000000, 8188.000000, 8159.000000
2344, 64204160.000000, 2184.000000, 8133.000000, 8188.000000, 8162.000000
2345, 64204320.000000, 2203.000000, 8123.000000, 8190.000000, 8163.000000
2346, 64204480.000000, 2210.000000, 8120.000000, 8193.000000, 8168.000000
2347, 64204640.000000, 2187.000000, 8124.000000, 8194.000000, 8166.000000
2348, 64204800.000000, 2138.000000, 8114.000000, 8191.000000, 8164.000000
2349, 64204960.000000, 2104.000000, 8108.000000, 8194.000000, 8161.000000
2350, 64205120.000000, 2147.000000, 8109.000000, 8196.000000, 8164.000000
2351, 64205280.000000, 2290.000000, 8106.000000, 8198.000000, 8168.000000
2352, 64205440.000000, 2481.000000, 8117.000000, 8216.000000, 8199.000000
2353, 64205600.000000, 2644.000000, 8109.000000, 8224.000000, 8212.000000
2354, 64205760.000000, 2738.000000, 8104.000000, 8214.000000, 8195.000000
2355, 64205920.000000, 2750.500000, 8096.000000, 8209.000000, 8178.000000
2356, 64206080.000000, 2713.000000, 8089.000000, 8201.000000, 8154.000000
2357, 64206240.000000, 2639.000000, 8089.000000, 8197.000000, 8150.000000
2358, 64206400.000000, 2548.000000, 8098.000000, 8194.000000, 8153.000000
2359, 64206560.000000, 2443.000000, 8094.000000, 8210.000000, 8162.000000
2360, 64206720.000000, 2325.000000, 8200.000000, 8227.000000, 8241.000000
2361, 64206880.000000, 2207.500000, 8574.000000, 7908.000000, 8094.000000
2362, 64207040.000000, 2094.000000, 8170.000000, 8013.000000, 7992.000000
2363, 64207200.000000, 2007.000000, 8199.000000, 8178.000000, 8170.000000
2364, 64207360.000000, 1941.000000, 8209.000000, 8193.000000, 8193.000000
2365, 64207520.000000, 1889.000000, 8223.000000, 8190.000000, 8196.000000
2366, 64207680.000000, 1842.000000, 8248.000000, 8197.000000, 8215.000000
2367, 64207840.000000, 1804.000000, 8256.000000, 8194.000000, 8212.000000
2368, 64208000.000000, 1777.000000, 8268.000000, 8198.000000, 8224.000000
2369, 64208160.000000, 1752.000000, 8279.000000, 8202.000000, 8229.000000
2370, 64208320.000000, 1715.000000, 8301.000000, 8211.000000, 8249.000000
2371, 64208480.000000, 1650.000000, 8320.000000, 8223.000000, 8271.000000
2372, 64208640.000000, 1562.000000, 8331.000000, 8226.000000, 8280.000000
2373, 64208800.000000, 1469.500000, 8326.000000, 8228.000000, 8284.000000
2374, 64208960.000000, 1386.000000, 8292.000000, 8214.000000, 8254.000000
2375, 64209120.000000, 1323.000000, 8248.000000, 8191.000000, 8213.000000
2376, 64209280.000000, 1285.000000, 8232.000000, 8183.000000, 8193.000000
2377, 64209440.000000, 1271.000000, 8230.000000, 8176.000000, 8182.000000
2378, 64209600.000000, 1280.000000, 8229.000000, 8175.000000, 8183.000000
2379, 64209760.000000, 1306.000000, 8232.000000, 8173.000000, 8181.000000
2380, 64209920.000000, 1332.000000, 8219.000000, 8183.000000, 8188.000000
2381, 64210080.000000, 1344.000000, 8169.000000, 8200.000000, 8188.000000
2382, 64210240.000000, 1358.000000, 8082.000000, 8225.000000, 8185.000000
2383, 64210400.000000, 1378.500000, 8044.000000, 8237.000000, 8182.000000
2384, 64210560.000000, 1405.000000, 8024.000000, 8242.000000, 8183.000000
2385, 64210720.000000, 1457.500000, 8027.000000, 8240.000000, 8183.000000
2386, 64210880.000000, 1595.000000, 8037.000000, 8237.000000, 8185.000000
2387, 64211040.000000, 1859.000000, 8051.000000, 8229.000000, 8180.000000
2388, 64211200.000000, 2198.000000, 8064.000000, 8222.000000, 8176.000000
2389, 64211360.000000, 2533.000000, 8087.000000, 8220.000000, 8189.000000
2390, 64211520.000000, 2811.000000, 8111.000000, 8229.000000, 8216.000000
2391, 64211680.000000, 3016.500000, 8131.000000, 8225.000000, 8225.000000
2392, 64211840.000000, 3163.000000, 8146.000000, 8211.000000, 8204.000000
2393, 64212000.000000, 3257.500000, 8151.000000, 8197.000000, 8181.000000
2394, 64212160.000000, 3314.000000, 8142.000000, 8190.000000, 8170.000000
2395, 64212320.000000, 3335.000000, 8144.000000, 8184.000000, 8165.000000
2396, 64212480.000000, 3339.000000, 8149.000000, 8183.000000, 8170.000000
2397, 64212640.000000, 3325.500000, 8112.000000, 8237.000000, 8215.000000
2398, 64212800.000000, 3286.000000, 8471.000000, 8117.000000, 8270.000000
2399, 64212960.000000, 3219.000000, 8526.000000, 7860.000000, 8006.000000
2400, 64213120.000000, 3142.000000, 8182.000000, 8122.000000, 8122.000000
2401, 64213280.000000, 3071.500000, 8181.000000, 8200.000000, 8208.000000
2402, 64213440.000000, 3017.000000, 8186.000000, 8207.000000, 8216.000000
2403, 64213600.000000, 2973.500000, 8201.000000, 8205.000000, 8218.000000
2404, 64213760.000000, 2928.000000, 8212.000000, 8206.000000, 8222.000000
2405, 64213920.000000, 2862.500000, 8207.000000, 8214.000000, 8227.000000
2406, 64214080.000000, 2780.000000, 8217.000000, 8225.000000, 8249.000000
2407, 64214240.000000, 2679.000000, 8210.000000, 8232.000000, 8253.000000
2408, 64214400.000000, 2561.000000, 8226.000000, 8245.000000, 8271.000000
2409, 64214560.000000, 2441.000000, 8233.000000, 8248.000000, 8278.000000
2410, 64214720.000000, 2323.000000, 8233.000000, 8260.000000, 8296.000000
2411, 64214880.000000, 2216.500000, 8220.000000, 8253.000000, 8287.000000
2412, 64215040.000000, 2116.000000, 8177.000000, 8229.000000, 8238.000000
2413, 64215200.000000, 2018.500000, 8152.000000, 8210.000000, 8205.000000
2414, 64215360.000000, 1927.000000, 8161.000000, 8193.000000, 8186.000000
2415, 64215520.000000, 1842.000000, 8205.000000, 8180.000000, 8190.000000
2416, 64215680.000000, 1771.000000, 8235.000000, 8168.000000, 8190.000000
2417, 64215840.000000, 1721.000000, 8264.000000, 8166.000000, 8199.000000
2418, 64216000.000000, 1682.000000, 8283.000000, 8164.000000, 8208.000000
2419, 64216160.000000, 1628.500000, 8294.000000, 8158.000000, 8203.000000
2420, 64216320.000000, 1558.000000, 8301.000000, 8159.000000, 8207.000000
2421, 64216480.000000, 1488.500000, 8299.000000, 8155.000000, 8203.000000
2422, 64216640.000000, 1462.000000, 8295.000000, 8161.000000, 8211.000000
2423, 64216800.000000, 1508.500000, 8294.000000, 8156.000000, 8201.000000
2424, 64216960.000000, 1660.000000, 8291.000000, 8159.000000, 8200.000000
2425, 64217120.000000, 1916.000000, 8292.000000, 8163.000000, 8211.000000
2426, 64217280.000000, 2217.000000, 8289.000000, 8163.000000, 8209.000000
2427, 64217440.000000, 2468.500000, 8294.000000, 8161.000000, 8202.000000
2428, 64217600.000000, 2632.000000, 8295.000000, 8172.000000, 8218.000000
2429, 64217760.000000, 2700.000000, 8303.000000, 8181.000000, 8240.000000
2430, 64217920.000000, 2712.000000, 8301.000000, 8184.000000, 8248.000000
2431, 64218080.000000, 2685.500000, 8290.000000, 8179.000000, 8233.000000
2432, 64218240.000000, 2652.000000, 8284.000000, 8165.000000, 8205.000000
2433, 64218400.000000, 2623.500000, 8282.000000, 8159.000000, 8196.000000
2434, 64218560.000000, 2589.000000, 8259.000000, 8165.000000, 8195.000000
2435, 64218720.000000, 2527.500000, 8245.000000, 8168.000000, 8196.000000
2436, 64218880.000000, 2456.000000, 8194.000000, 8227.000000, 8239.000000
2437, 64219040.000000, 2416.500000, 8497.000000, 8141.000000, 8309.000000
2438, 64219200.000000, 2425.000000, 8549.000000, 7880.000000, 8043.000000
2439, 64219360.000000, 2469.500000, 8123.000000, 8159.000000, 8144.000000
2440, 64219520.000000, 2519.000000, 8090.000000, 8247.000000, 8226.000000
2441, 64219680.000000, 2575.000000, 8082.000000, 8267.000000, 8247.000000
2442, 64219840.000000, 2654.000000, 8084.000000, 8263.000000, 8240.000000
2443, 64220000.000000, 2754.500000, 8096.000000, 8257.000000, 8236.000000
2444, 64220160.000000, 2851.000000, 8112.000000, 8263.000000, 8251.000000
2445, 64220320.000000, 2910.000000, 8138.000000, 8259.000000, 8260.000000
2446, 64220480.000000, 2930.000000, 8169.000000, 8264.000000, 8278.000000
2447, 64220640.000000, 2918.500000, 8192.000000, 8267.000000, 8294.000000
2448, 64220800.000000, 2901.000000, 8217.000000, 8266.000000, 8302.000000
2449, 64220960.000000, 2885.500000, 8235.000000, 8265.000000, 8311.000000
2450, 64221120.000000, 2860.000000, 8238.000000, 8254.000000, 8308.000000
2451, 64221280.000000, 2817.000000, 8205.000000, 8228.000000, 8264.000000
2452, 64221440.000000, 2761.000000, 8168.000000, 8211.000000, 8230.000000
2453, 64221600.000000, 2687.000000, 8141.000000, 8200.000000, 8205.000000
2454, 64221760.000000, 2597.000000, 8137.000000, 8203.000000, 8205.000000
2455, 64221920.000000, 2494.500000, 8131.000000, 8205.000000, 8202.000000
2456, 64222080.000000, 2397.000000, 8129.000000, 8205.000000, 8200.000000
2457, 64222240.000000, 2320.500000, 8135.000000, 8209.000000, 8210.000000
2458, 64222400.000000, 2263.000000, 8134.000000, 8210.000000, 8210.000000
2459, 64222560.000000, 2199.000000, 8134.000000, 8212.000000, 8209.000000
2460, 64222720.000000, 2112.000000, 8127.000000, 8207.000000, 8199.000000
2461, 64222880.000000, 2011.000000, 8126.000000, 8210.000000, 8203.000000
2462, 64223040.000000, 1951.000000, 8123.000000, 8211.000000, 8200.000000
2463, 64223200.000000, 1999.500000, 8117.000000, 8205.000000, 8190.000000
2464, 64223360.000000, 2161.000000, 8123.000000, 8206.000000, 8189.000000
2465, 64223520.000000, 2381.000000, 8129.000000, 8206.000000, 8193.000000
2466, 64223680.000000, 2589.000000, 8131.000000, 8205.000000, 8192.000000
2467, 64223840.000000, 2733.000000, 8142.000000, 8202.000000, 8190.000000
2468, 64224000.000000, 2811.000000, 8171.000000, 8196.000000, 8199.000000
2469, 64224160.000000, 2831.000000, 8208.000000, 8200.000000, 8222.000000
2470, 64224320.000000, 2813.000000, 8226.000000, 8194.000000, 8228.000000
2471, 64224480.000000, 2770.500000, 8244.000000, 8180.000000, 8206.000000
2472, 64224640.000000, 2717.000000, 8235.000000, 8170.000000, 8182.000000
2473, 64224800.000000, 2657.500000, 8226.000000, 8164.000000, 8174.000000
2474, 64224960.000000, 2579.000000, 8224.000000, 8168.000000, 8172.000000
2475, 64225120.000000, 2475.500000, 8220.000000, 8171.000000, 8171.000000
2476, 64225280.000000, 2372.000000, 8186.000000, 8226.000000, 8215.000000
2477, 64225440.000000, 2303.000000, 8592.000000, 8050.000000, 8230.000000
2478, 64225600.000000, 2263.000000, 8521.000000, 7872.000000, 7982.000000
2479, 64225760.000000, 2223.000000, 8210.000000, 8144.000000, 8125.000000
2480, 64225920.000000, 2158.000000, 8203.000000, 8200.000000, 8185.000000
2481, 64226080.000000, 2077.000000, 8189.000000, 8207.000000, 8184.000000
2482, 64226240.000000, 1998.000000, 8196.000000, 8212.000000, 8192.000000
2483, 64226400.000000, 1925.500000, 8202.000000, 8212.000000, 8188.000000
2484, 64226560.000000, 1857.000000, 8212.000000, 8214.000000, 8199.000000
2485, 64226720.000000, 1792.500000, 8227.000000, 8219.000000, 8208.000000
2486, 64226880.000000, 1740.000000, 8232.000000, 8225.000000, 8215.000000
2487, 64227040.000000, 1699.500000, 8235.000000, 8239.000000, 8235.000000
2488, 64227200.000000, 1654.000000, 8209.000000, 8256.000000, 8247.000000
2489, 64227360.000000, 1614.500000, 8186.000000, 8269.000000, 8256.000000
2490, 64227520.000000, 1598.000000, 8157.000000, 8266.000000, 8242.000000
2491, 64227680.000000, 1606.000000, 8104.000000, 8240.000000, 8187.000000
2492, 64227840.000000, 1636.000000, 8057.000000, 8225.000000, 8154.000000
2493, 64228000.000000, 1697.500000, 8050.000000, 8220.000000, 8141.000000
2494, 64228160.000000, 1790.000000, 8052.000000, 8213.000000, 8129.000000
2495, 64228320.000000, 1895.000000, 8063.000000, 8210.000000, 8133.000000
2496, 64228480.000000, 1972.000000, 8075.000000, 8211.000000, 8144.000000
2497, 64228640.000000, 2009.000000, 8095.000000, 8203.000000, 8140.000000
2498, 64228800.000000, 2034.000000, 8108.000000, 8198.000000, 8141.000000
2499, 64228960.000000, 2072.000000, 8132.000000, 8191.000000, 8142.000000
2500, 64229120.000000, 2112.000000, 8161.000000, 8182.000000, 8153.000000
2501, 64229280.000000, 2139.500000, 8170.000000, 8179.000000, 8146.000000
2502, 64229440.000000, 2183.000000, 8157.000000, 8175.000000, 8141.000000
2503, 64229600.000000, 2295.000000, 8159.000000, 8177.000000, 8142.000000
2504, 64229760.000000, 2510.000000, 8147.000000, 8181.000000, 8144.000000
2505, 64229920.000000, 2787.500000, 8146.000000, 8181.000000, 8146.000000
2506, 64230080.000000, 3046.000000, 8134.000000, 8183.000000, 8140.000000
2507, 64230240.000000, 3220.500000, 8133.000000, 8196.000000, 8166.000000
2508, 64230400.000000, 3318.000000, 8131.000000, 8204.000000, 8177.000000
2509, 64230560.000000, 3347.500000, 8133.000000, 8205.000000, 8185.000000
2510, 64230720.000000, 3344.000000, 8119.000000, 8204.000000, 8169.000000
2511, 64230880.000000, 3320.000000, 8101.000000, 8195.000000, 8144.000000
2512, 64231040.000000, 3284.000000, 8089.000000, 8189.000000, 8136.000000
2513, 64231200.000000, 3216.000000, 8100.000000, 8191.000000, 8139.000000
2514, 64231360.000000, 3096.000000, 8092.000000, 8200.000000, 8145.000000
2515, 64231520.000000, 2924.500000, 8126.000000, 8235.000000, 8206.000000
2516, 64231680.000000, 2739.000000, 8536.000000, 7970.000000, 8132.000000
2517, 64231840.000000, 2561.500000, 8216.000000, 7975.000000, 7966.000000
2518, 64232000.000000, 2402.000000, 8127.000000, 8184.000000, 8150.000000
2519, 64232160.000000, 2266.000000, 8129.000000, 8219.000000, 8182.000000
2520, 64232320.000000, 2167.000000, 8155.000000, 8220.000000, 8195.000000
2521, 64232480.000000, 2104.500000, 8195.000000, 8211.000000, 8202.000000
2522, 64232640.000000, 2049.000000, 8231.000000, 8204.000000, 8205.000000
2523, 64232800.000000, 1976.000000, 8260.000000, 8198.000000, 8212.000000
2524, 64232960.000000, 1881.000000, 8290.000000, 8195.000000, 8223.000000
2525, 64233120.000000, 1769.500000, 8308.000000, 8207.000000, 8243.000000
2526, 64233280.000000, 1668.000000, 8333.000000, 8207.000000, 8248.000000
2527, 64233440.000000, 1597.500000, 8347.000000, 8215.000000, 8267.000000
2528, 64233600.000000, 1541.000000, 8352.000000, 8217.000000, 8273.000000
2529, 64233760.000000, 1483.500000, 8308.000000, 8212.000000, 8258.000000
2530, 64233920.000000, 1419.000000, 8251.000000, 8191.000000, 8211.000000
2531, 64234080.000000, 1346.500000, 8210.000000, 8185.000000, 8184.000000
2532, 64234240.000000, 1265.000000, 8200.000000, 8183.000000, 8176.000000
2533, 64234400.000000, 1184.000000, 8202.000000, 8182.000000, 8174.000000
2534, 64234560.000000, 1119.000000, 8200.000000, 8180.000000, 8173.000000
2535, 64234720.000000, 1069.500000, 8200.000000, 8183.000000, 8174.000000
2536, 64234880.000000, 1023.000000, 8208.000000, 8181.000000, 8177.000000
2537, 64235040.000000, 983.500000, 8228.000000, 8174.000000, 8177.000000
2538, 64235200.000000, 963.000000, 8235.000000, 8166.000000, 8168.000000
2539, 64235360.000000, 966.500000, 8228.000000, 8171.000000, 8174.000000
2540, 64235520.000000, 990.000000, 8190.000000, 8183.000000, 8177.000000
2541, 64235680.000000, 1060.500000, 8107.000000, 8210.000000, 8173.000000
2542, 64235840.000000, 1207.000000, 8055.000000, 8221.000000, 8167.000000
2543, 64236000.000000, 1456.000000, 8036.000000, 8231.000000, 8172.000000
2544, 64236160.000000, 1791.000000, 8028.000000, 8238.000000, 8176.000000
2545, 64236320.000000, 2169.500000, 8038.000000, 8250.000000, 8203.000000
2546, 64236480.000000, 2522.000000, 8058.000000, 8249.000000, 8217.000000
2547, 64236640.000000, 2780.000000, 8066.000000, 8232.000000, 8195.000000
2548, 64236800.000000, 2941.000000, 8076.000000, 8213.000000, 8167.000000
2549, 64236960.000000, 3045.500000, 8086.000000, 8204.000000, 8161.000000
2550, 64237120.000000, 3152.000000, 8104.000000, 8194.000000, 8155.000000
2551, 64237280.000000, 3258.000000, 8128.000000, 8186.000000, 8159.000000
2552, 64237440.000000, 3322.000000, 8111.000000, 8221.000000, 8184.000000
2553, 64237600.000000, 3329.500000, 8377.000000, 8181.000000, 8283.000000
2554, 64237760.000000, 3297.000000, 8580.000000, 7856.000000, 8036.000000
2555, 64237920.000000, 3244.000000, 8154.000000, 8092.000000, 8064.000000
2556, 64238080.000000, 3190.000000, 8160.000000, 8200.000000, 8188.000000
2557, 64238240.000000, 3155.000000, 8160.000000, 8212.000000, 8200.000000
2558, 64238400.000000, 3140.000000, 8176.000000, 8210.000000, 8201.000000
2559, 64238560.000000, 3123.500000, 8183.000000, 8214.000000, 8211.000000
2560, 64238720.000000, 3081.000000, 8189.000000, 8218.000000, 8219.000000
2561, 64238880.000000, 3018.000000, 8195.000000, 8223.000000, 8232.000000
2562, 64239040.000000, 2945.000000, 8201.000000, 8232.000000, 8241.000000
2563, 64239200.000000, 2850.000000, 8214.000000, 8242.000000, 8254.000000
2564, 64239360.000000, 2726.000000, 8227.000000, 8252.000000, 8278.000000
2565, 64239520.000000, 2582.000000, 8232.000000, 8257.000000, 8285.000000
2566, 64239680.000000, 2440.000000, 8216.000000, 8255.000000, 8280.000000
2567, 64239840.000000, 2314.000000, 8168.000000, 8239.000000, 8244.000000
2568, 64240000.000000, 2204.000000, 8116.000000, 8219.000000, 8198.000000
2569, 64240160.000000, 2096.500000, 8102.000000, 8217.000000, 8190.000000
2570, 64240320.000000, 1984.000000, 8109.000000, 8211.000000, 8185.000000
2571, 64240480.000000, 1881.000000, 8132.000000, 8200.000000, 8179.000000
2572, 64240640.000000, 1795.000000, 8188.000000, 8184.000000, 8181.000000
2573, 64240800.000000, 1727.000000, 8247.000000, 8163.000000, 8181.000000
2574, 64240960.000000, 1675.000000, 8285.000000, 8155.000000, 8196.000000
2575, 64241120.000000, 1635.500000, 8309.000000, 8145.000000, 8186.000000
2576, 64241280.000000, 1583.000000, 8319.000000, 8138.000000, 8184.000000
2577, 64241440.000000, 1507.000000, 8313.000000, 8142.000000, 8190.000000
2578, 64241600.000000, 1436.000000, 8304.000000, 8147.000000, 8189.000000
2579, 64241760.000000, 1447.000000, 8301.000000, 8149.000000, 8191.000000
2580, 64241920.000000, 1571.000000, 8287.000000, 8148.000000, 8186.000000
2581, 64242080.000000, 1797.000000, 8287.000000, 8151.000000, 8187.000000
2582, 64242240.000000, 2018.000000, 8284.000000, 8155.000000, 8187.000000
2583, 64242400.000000, 2154.000000, 8279.000000, 8163.000000, 8200.000000
2584, 64242560.000000, 2180.000000, 8284.000000, 8182.000000, 8234.000000
2585, 64242720.000000, 2151.000000, 8295.000000, 8170.000000, 8222.000000
2586, 64242880.000000, 2166.000000, 8296.000000, 8158.000000, 8196.000000
2587, 64243040.000000, 2303.000000, 8273.000000, 8152.000000, 8175.000000
2588, 64243200.000000, 2505.000000, 8255.000000, 8153.000000, 8168.000000
2589, 64243360.000000, 2633.000000, 8216.000000, 8165.000000, 8168.000000
2590, 64243520.000000, 2628.000000, 8157.000000, 8193.000000, 8179.000000
2591, 64243680.000000, 2520.000000, 8114.000000, 8245.000000, 8220.000000
2592, 64243840.000000, 2412.000000, 8511.000000, 7990.000000, 8160.000000
2593, 64244000.000000, 2342.500000, 8175.000000, 8006.000000, 7988.000000
2594, 64244160.000000, 2322.000000, 8066.000000, 8219.000000, 8178.000000
2595, 64244320.000000, 2374.000000, 8066.000000, 8250.000000, 8207.000000
2596, 64244480.000000, 2491.000000, 8079.000000, 8247.000000, 8205.000000
2597, 64244640.000000, 2645.500000, 8095.000000, 8245.000000, 8212.000000
2598, 64244800.000000, 2796.000000, 8111.000000, 8246.000000, 8223.000000
2599, 64244960.000000, 2913.000000, 8140.000000, 8246.000000, 8235.000000
2600, 64245120.000000, 2977.000000, 8154.000000, 8249.000000, 8243.000000
2601, 64245280.000000, 2982.000000, 8178.000000, 8255.000000, 8265.000000
2602, 64245440.000000, 2950.000000, 8208.000000, 8253.000000, 8269.000000
2603, 64245600.000000, 2916.000000, 8223.000000, 8256.000000, 8286.000000
2604, 64245760.000000, 2892.000000, 8223.000000, 8261.000000, 8297.000000
2605, 64245920.000000, 2857.500000, 8198.000000, 8248.000000, 8277.000000
2606, 64246080.000000, 2811.000000, 8151.000000, 8223.000000, 8227.000000
2607, 64246240.000000, 2757.500000, 8121.000000, 8214.000000, 8202.000000
2608, 64246400.000000, 2707.000000, 8116.000000, 8202.000000, 8187.000000
2609, 64246560.000000, 2656.500000, 8124.000000, 8202.000000, 8188.000000
2610, 64246720.000000, 2599.000000, 8140.000000, 8198.000000, 8189.000000
2611, 64246880.000000, 2526.500000, 8153.000000, 8195.000000, 8194.000000
2612, 64247040.000000, 2445.000000, 8169.000000, 8191.000000, 8195.000000
2613, 64247200.000000, 2352.500000, 8181.000000, 8189.000000, 8197.000000
2614, 64247360.000000, 2254.000000, 8184.000000, 8191.000000, 8201.000000
2615, 64247520.000000, 2155.500000, 8168.000000, 8193.000000, 8194.000000
2616, 64247680.000000, 2057.000000, 8161.000000, 8197.000000, 8199.000000
2617, 64247840.000000, 1980.000000, 8153.000000, 8198.000000, 8193.000000
2618, 64248000.000000, 1966.000000, 8142.000000, 8197.000000, 8185.000000
2619, 64248160.000000, 2066.000000, 8145.000000, 8200.000000, 8192.000000
2620, 64248320.000000, 2251.000000, 8148.000000, 8201.000000, 8189.000000
2621, 64248480.000000, 2450.500000, 8157.000000, 8203.000000, 8201.000000
2622, 64248640.000000, 2587.000000, 8184.000000, 8212.000000, 8224.000000
2623, 64248800.000000, 2635.500000, 8213.000000, 8206.000000, 8237.000000
2624, 64248960.000000, 2623.000000, 8236.000000, 8191.000000, 8223.000000
2625, 64249120.000000, 2588.500000, 8250.000000, 8177.000000, 8203.000000
2626, 64249280.000000, 2559.000000, 8241.000000, 8167.000000, 8181.000000
2627, 64249440.000000, 2516.500000, 8248.000000, 8163.000000, 8179.000000
2628, 64249600.000000, 2430.000000, 8258.000000, 8162.000000, 8187.000000
2629, 64249760.000000, 2311.500000, 8218.000000, 8191.000000, 8199.000000
2630, 64249920.000000, 2185.000000, 8367.000000, 8215.000000, 8307.000000
2631, 64250080.000000, 2076.500000, 8701.000000, 7874.000000, 8110.000000
2632, 64250240.000000, 1995.000000, 8230.000000, 8046.000000, 8043.000000
2633, 64250400.000000, 1893.500000, 8224.000000, 8191.000000, 8203.000000
2634, 64250560.000000, 1752.000000, 8208.000000, 8211.000000, 8215.000000
2635, 64250720.000000, 1648.500000, 8204.000000, 8212.000000, 8209.000000
2636, 64250880.000000, 1608.000000, 8209.000000, 8213.000000, 8213.000000
2637, 64251040.000000, 1614.500000, 8216.000000, 8219.000000, 8224.000000
2638, 64251200.000000, 1638.000000, 8226.000000, 8221.000000, 8229.000000
2639, 64251360.000000, 1642.500000, 8232.000000, 8227.000000, 8239.000000
2640, 64251520.000000, 1628.000000, 8224.000000, 8237.000000, 8249.000000
2641, 64251680.000000, 1608.500000, 8195.000000, 8257.000000, 8256.000000
2642, 64251840.000000, 1589.000000, 8178.000000, 8273.000000, 8275.000000
2643, 64252000.000000, 1572.000000, 8160.000000, 8278.000000, 8274.000000
2644, 64252160.000000, 1562.000000, 8117.000000, 8268.000000, 8247.000000
2645, 64252320.000000, 1571.000000, 8069.000000, 8240.000000, 8187.000000
2646, 64252480.000000, 1605.000000, 8048.000000, 8231.000000, 8174.000000
2647, 64252640.000000, 1670.500000, 8051.000000, 8224.000000, 8165.000000
2648, 64252800.000000, 1749.000000, 8052.000000, 8220.000000, 8156.000000
2649, 64252960.000000, 1808.000000, 8065.000000, 8219.000000, 8158.000000
2650, 64253120.000000, 1835.000000, 8078.000000, 8214.000000, 8159.000000
2651, 64253280.000000, 1848.000000, 8088.000000, 8210.000000, 8158.000000
2652, 64253440.000000, 1862.000000, 8095.000000, 8211.000000, 8162.000000
2653, 64253600.000000, 1885.000000, 8105.000000, 8207.000000, 8160.000000
2654, 64253760.000000, 1920.000000, 8101.000000, 8200.000000, 8153.000000
2655, 64253920.000000, 2004.500000, 8111.000000, 8198.000000, 8157.000000
2656, 64254080.000000, 2179.000000, 8114.000000, 8194.000000, 8153.000000
2657, 64254240.000000, 2431.000000, 8117.000000, 8184.000000, 8141.000000
2658, 64254400.000000, 2703.000000, 8123.000000, 8186.000000, 8147.000000
2659, 64254560.000000, 2935.000000, 8133.000000, 8185.000000, 8151.000000
2660, 64254720.000000, 3108.000000, 8136.000000, 8178.000000, 8142.000000
2661, 64254880.000000, 3188.000000, 8147.000000, 8182.000000, 8151.000000
2662, 64255040.000000, 3194.000000, 8166.000000, 8189.000000, 8175.000000
2663, 64255200.000000, 3141.500000, 8172.000000, 8192.000000, 8182.000000
2664, 64255360.000000, 3064.000000, 8164.000000, 8187.000000, 8164.000000
2665, 64255520.000000, 2973.500000, 8137.000000, 8181.000000, 8136.000000
2666, 64255680.000000, 2868.000000, 8128.000000, 8178.000000, 8129.000000
2667, 64255840.000000, 2757.500000, 8119.000000, 8180.000000, 8127.000000
2668, 64256000.000000, 2658.000000, 8109.000000, 8189.000000, 8131.000000
2669, 64256160.000000, 2580.000000, 8080.000000, 8249.000000, 8188.000000
2670, 64256320.000000, 2512.000000, 8465.000000, 8104.000000, 8229.000000
2671, 64256480.000000, 2435.500000, 8418.000000, 7908.000000, 7976.000000
2672, 64256640.000000, 2331.000000, 8124.000000, 8144.000000, 8092.000000
2673, 64256800.000000, 2215.500000, 8130.000000, 8215.000000, 8171.000000
2674, 64256960.000000, 2112.000000, 8143.000000, 8221.000000, 8182.000000
2675, 64257120.000000, 2034.000000, 8180.000000, 8214.000000, 8191.000000
2676, 64257280.000000, 1961.000000, 8213.000000, 8204.000000, 8193.000000
2677, 64257440.000000, 1864.000000, 8241.000000, 8202.000000, 8206.000000
2678, 64257600.000000, 1750.000000, 8264.000000, 8205.000000, 8212.000000
2679, 64257760.000000, 1627.500000, 8277.000000, 8207.000000, 8223.000000
2680, 64257920.000000, 1510.000000, 8300.000000, 8213.000000, 8244.000000
2681, 64258080.000000, 1399.500000, 8322.000000, 8217.000000, 8253.000000
2682, 64258240.000000, 1285.000000, 8320.000000, 8221.000000, 8261.000000
2683, 64258400.000000, 1164.500000, 8315.000000, 8224.000000, 8265.000000
2684, 64258560.000000, 1048.000000, 8250.000000, 8202.000000, 8212.000000
2685, 64258720.000000, 966.500000, 8207.000000, 8188.000000, 8187.000000
2686, 64258880.000000, 919.000000, 8204.000000, 8182.000000, 8169.000000
2687, 64259040.000000, 893.500000, 8198.000000, 8178.000000, 8159.000000
2688, 64259200.000000, 868.000000, 8195.000000, 8181.000000, 8164.000000
2689, 64259360.000000, 840.500000, 8193.000000, 8180.000000, 8162.000000
2690, 64259520.000000, 818.000000, 8194.000000, 8183.000000, 8166.000000
2691, 64259680.000000, 807.500000, 8171.000000, 8190.000000, 8163.000000
2692, 64259840.000000, 815.000000, 8112.000000, 8212.000000, 8166.000000
2693, 64260000.000000, 853.500000, 8064.000000, 8226.000000, 8166.000000
2694, 64260160.000000, 948.000000, 8036.000000, 8233.000000, 8162.000000
2695, 64260320.000000, 1131.500000, 8036.000000, 8232.000000, 8163.000000
2696, 64260480.000000, 1404.000000, 8045.000000, 8225.000000, 8158.000000
2697, 64260640.000000, 1714.500000, 8062.000000, 8225.000000, 8168.000000
2698, 64260800.000000, 2006.000000, 8068.000000, 8218.000000, 8165.000000
2699, 64260960.000000, 2246.000000, 8086.000000, 8225.000000, 8184.000000
2700, 64261120.000000, 2436.000000, 8106.000000, 8227.000000, 8201.000000
2701, 64261280.000000, 2565.500000, 8132.000000, 8217.000000, 8200.000000
2702, 64261440.000000, 2644.000000, 8138.000000, 8210.000000, 8185.000000
2703, 64261600.000000, 2690.500000, 8139.000000, 8193.000000, 8159.000000
2704, 64261760.000000, 2738.000000, 8144.000000, 8190.000000, 8161.000000
2705, 64261920.000000, 2790.000000, 8147.000000, 8181.000000, 8152.000000
2706, 64262080.000000, 2822.000000, 8147.000000, 8182.000000, 8157.000000
2707, 64262240.000000, 2814.000000, 8133.000000, 8222.000000, 8204.000000
2708, 64262400.000000, 2784.000000, 8558.000000, 7998.000000, 8183.000000
2709, 64262560.000000, 2749.500000, 8333.000000, 7926.000000, 7979.000000
2710, 64262720.000000, 2719.000000, 8155.000000, 8160.000000, 8149.000000
2711, 64262880.000000, 2691.500000, 8156.000000, 8204.000000, 8195.000000
2712, 64263040.000000, 2656.000000, 8162.000000, 8210.000000, 8203.000000
2713, 64263200.000000, 2597.500000, 8170.000000, 8209.000000, 8204.000000
2714, 64263360.000000, 2508.000000, 8173.000000, 8213.000000, 8206.000000
2715, 64263520.000000, 2413.500000, 8174.000000, 8216.000000, 8215.000000
2716, 64263680.000000, 2319.000000, 8180.000000, 8225.000000, 8226.000000
2717, 64263840.000000, 2208.500000, 8193.000000, 8235.000000, 8243.000000
2718, 64264000.000000, 2071.000000, 8212.000000, 8245.000000, 8259.000000
2719, 64264160.000000, 1924.500000, 8222.000000, 8253.000000, 8274.000000
2720, 64264320.000000, 1790.000000, 8222.000000, 8255.000000, 8280.000000
2721, 64264480.000000, 1670.000000, 8206.000000, 8247.000000, 8267.000000
2722, 64264640.000000, 1549.000000, 8156.000000, 8220.000000, 8217.000000
2723, 64264800.000000, 1429.500000, 8141.000000, 8206.000000, 8191.000000
2724, 64264960.000000, 1317.000000, 8170.000000, 8189.000000, 8184.000000
2725, 64265120.000000, 1221.500000, 8210.000000, 8169.000000, 8172.000000
2726, 64265280.000000, 1145.000000, 8241.000000, 8163.000000, 8181.000000
2727, 64265440.000000, 1097.000000, 8270.000000, 8161.000000, 8188.000000
2728, 64265600.000000, 1081.000000, 8275.000000, 8154.000000, 8184.000000
2729, 64265760.000000, 1075.500000, 8280.000000, 8155.000000, 8185.000000
2730, 64265920.000000, 1046.000000, 8280.000000, 8154.000000, 8186.000000
2731, 64266080.000000, 988.500000, 8275.000000, 8156.000000, 8190.000000
2732, 64266240.000000, 954.000000, 8275.000000, 8153.000000, 8187.000000
2733, 64266400.000000, 1026.500000, 8268.000000, 8156.000000, 8182.000000
2734, 64266560.000000, 1216.000000, 8263.000000, 8154.000000, 8180.000000
2735, 64266720.000000, 1486.500000, 8261.000000, 8158.000000, 8181.000000
2736, 64266880.000000, 1758.000000, 8266.000000, 8152.000000, 8180.000000
2737, 64267040.000000, 1991.000000, 8274.000000, 8158.000000, 8190.000000
2738, 64267200.000000, 2183.000000, 8258.000000, 8159.000000, 8182.000000
2739, 64267360.000000, 2323.000000, 8262.000000, 8178.000000, 8216.000000
2740, 64267520.000000, 2402.000000, 8252.000000, 8184.000000, 8223.000000
2741, 64267680.000000, 2413.000000, 8214.000000, 8184.000000, 8206.000000
2742, 64267840.000000, 2392.000000, 8148.000000, 8198.000000, 8186.000000
2743, 64268000.000000, 2350.500000, 8091.000000, 8204.000000, 8166.000000
2744, 64268160.000000, 2283.000000, 8067.000000, 8212.000000, 8170.000000
2745, 64268320.000000, 2203.500000, 8063.000000, 8213.000000, 8170.000000
2746, 64268480.000000, 2155.000000, 8041.000000, 8239.000000, 8186.000000
2747, 64268640.000000, 2175.500000, 8214.000000, 8253.000000, 8299.000000
2748, 64268800.000000, 2243.000000, 8529.000000, 7907.000000, 8087.000000
2749, 64268960.000000, 2318.000000, 8081.000000, 8084.000000, 8035.000000
2750, 64269120.000000, 2356.000000, 8094.000000, 8221.000000, 8195.000000
2751, 64269280.000000, 2336.500000, 8096.000000, 8239.000000, 8208.000000
2752, 64269440.000000, 2284.000000, 8108.000000, 8236.000000, 8211.000000
2753, 64269600.000000, 2238.500000, 8125.000000, 8235.000000, 8214.000000
2754, 64269760.000000, 2208.000000, 8142.000000, 8239.000000, 8229.000000
2755, 64269920.000000, 2178.500000, 8147.000000, 8240.000000, 8233.000000
2756, 64270080.000000, 2147.000000, 8166.000000, 8246.000000, 8248.000000
2757, 64270240.000000, 2119.000000, 8188.000000, 8249.000000, 8263.000000
2758, 64270400.000000, 2091.000000, 8210.000000, 8255.000000, 8280.000000
2759, 64270560.000000, 2053.000000, 8232.000000, 8258.000000, 8294.000000
2760, 64270720.000000, 2013.000000, 8232.000000, 8254.000000, 8292.000000
2761, 64270880.000000, 1982.000000, 8191.000000, 8239.000000, 8265.000000
2762, 64271040.000000, 1945.000000, 8140.000000, 8214.000000, 8209.000000
2763, 64271200.000000, 1890.500000, 8123.000000, 8207.000000, 8194.000000
2764, 64271360.000000, 1825.000000, 8124.000000, 8193.000000, 8179.000000
2765, 64271520.000000, 1761.500000, 8131.000000, 8196.000000, 8177.000000
2766, 64271680.000000, 1700.000000, 8136.000000, 8201.000000, 8185.000000
2767, 64271840.000000, 1630.000000, 8128.000000, 8205.000000, 8188.000000
2768, 64272000.000000, 1552.000000, 8125.000000, 8207.000000, 8192.000000
2769, 64272160.000000, 1469.000000, 8130.000000, 8206.000000, 8194.000000
2770, 64272320.000000, 1385.000000, 8138.000000, 8208.000000, 8199.000000
2771, 64272480.000000, 1312.000000, 8140.000000, 8198.000000, 8185.000000
2772, 64272640.000000, 1285.000000, 8161.000000, 8191.000000, 8186.000000
2773, 64272800.000000, 1356.000000, 8188.000000, 8183.000000, 8185.000000
2774, 64272960.000000, 1510.000000, 8214.000000, 8167.000000, 8177.000000
2775, 64273120.000000, 1711.000000, 8242.000000, 8155.000000, 8179.000000
2776, 64273280.000000, 1901.000000, 8274.000000, 8149.000000, 8183.000000
2777, 64273440.000000, 2032.000000, 8283.000000, 8153.000000, 8191.000000
2778, 64273600.000000, 2068.000000, 8280.000000, 8152.000000, 8188.000000
2779, 64273760.000000, 2009.000000, 8284.000000, 8151.000000, 8187.000000
2780, 64273920.000000, 1929.000000, 8283.000000, 8153.000000, 8189.000000
2781, 64274080.000000, 1915.000000, 8282.000000, 8172.000000, 8223.000000
2782, 64274240.000000, 1962.000000, 8275.000000, 8179.000000, 8231.000000
2783, 64274400.000000, 2007.500000, 8275.000000, 8170.000000, 8214.000000
2784, 64274560.000000, 1990.000000, 8262.000000, 8170.000000, 8202.000000
2785, 64274720.000000, 1939.000000, 8257.000000, 8163.000000, 8191.000000
2786, 64274880.000000, 1917.000000, 8247.000000, 8154.000000, 8168.000000
2787, 64275040.000000, 1943.000000, 8248.000000, 8160.000000, 8180.000000
2788, 64275200.000000, 1980.000000, 8220.000000, 8184.000000, 8194.000000
2789, 64275360.000000, 1990.000000, 8315.000000, 8210.000000, 8283.000000
2790, 64275520.000000, 1980.000000, 8688.000000, 7884.000000, 8122.000000
2791, 64275680.000000, 1952.000000, 8207.000000, 8033.000000, 8024.000000
2792, 64275840.000000, 1906.000000, 8152.000000, 8207.000000, 8202.000000
2793, 64276000.000000, 1845.000000, 8115.000000, 8236.000000, 8216.000000
2794, 64276160.000000, 1790.000000, 8095.000000, 8244.000000, 8217.000000
2795, 64276320.000000, 1762.000000, 8090.000000, 8250.000000, 8219.000000
2796, 64276480.000000, 1759.000000, 8094.000000, 8252.000000, 8228.000000
2797, 64276640.000000, 1776.000000, 8110.000000, 8258.000000, 8241.000000
2798, 64276800.000000, 1801.000000, 8128.000000, 8264.000000, 8255.000000
2799, 64276960.000000, 1823.500000, 8151.000000, 8268.000000, 8270.000000
2800, 64277120.000000, 1839.000000, 8174.000000, 8269.000000, 8280.000000
2801, 64277280.000000, 1857.500000, 8193.000000, 8273.000000, 8297.000000
2802, 64277440.000000, 1881.000000, 8205.000000, 8275.000000, 8303.000000
2803, 64277600.000000, 1902.000000, 8179.000000, 8260.000000, 8280.000000
2804, 64277760.000000, 1911.000000, 8134.000000, 8233.000000, 8233.000000
2805, 64277920.000000, 1911.500000, 8102.000000, 8219.000000, 8198.000000
2806, 64278080.000000, 1909.000000, 8103.000000, 8213.000000, 8191.000000
2807, 64278240.000000, 1913.500000, 8101.000000, 8210.000000, 8185.000000
2808, 64278400.000000, 1927.000000, 8111.000000, 8212.000000, 8195.000000
2809, 64278560.000000, 1931.000000, 8118.000000, 8210.000000, 8194.000000
2810, 64278720.000000, 1903.000000, 8122.000000, 8205.000000, 8190.000000
2811, 64278880.000000, 1835.500000, 8126.000000, 8206.000000, 8191.000000
2812, 64279040.000000, 1758.000000, 8125.000000, 8207.000000, 8194.000000
2813, 64279200.000000, 1708.500000, 8122.000000, 8205.000000, 8186.000000
2814, 64279360.000000, 1723.000000, 8121.000000, 8210.000000, 8198.000000
2815, 64279520.000000, 1836.000000, 8122.000000, 8204.000000, 8185.000000
2816, 64279680.000000, 2023.000000, 8118.000000, 8203.000000, 8185.000000
2817, 64279840.000000, 2228.500000, 8126.000000, 8205.000000, 8188.000000
2818, 64280000.000000, 2401.000000, 8135.000000, 8207.000000, 8196.000000
2819, 64280160.000000, 2499.000000, 8132.000000, 8201.000000, 8188.000000
2820, 64280320.000000, 2522.000000, 8134.000000, 8208.000000, 8193.000000
2821, 64280480.000000, 2477.000000, 8135.000000, 8207.000000, 8194.000000
2822, 64280640.000000, 2403.000000, 8153.000000, 8195.000000, 8182.000000
2823, 64280800.000000, 2325.000000, 8189.000000, 8190.000000, 8193.000000
2824, 64280960.000000, 2251.000000, 8224.000000, 8194.000000, 8224.000000
2825, 64281120.000000, 2170.000000, 8267.000000, 8181.000000, 8226.000000
2826, 64281280.000000, 2080.000000, 8298.000000, 8168.000000, 8232.000000
2827, 64281440.000000, 1978.000000, 8312.000000, 8161.000000, 8216.000000
2828, 64281600.000000, 1871.000000, 8298.000000, 8154.000000, 8200.000000
2829, 64281760.000000, 1792.500000, 8288.000000, 8150.000000, 8191.000000
2830, 64281920.000000, 1789.000000, 8288.000000, 8156.000000, 8201.000000
2831, 64282080.000000, 1880.500000, 8256.000000, 8184.000000, 8216.000000
2832, 64282240.000000, 1982.000000, 8403.000000, 8209.000000, 8325.000000
2833, 64282400.000000, 2003.500000, 8725.000000, 7861.000000, 8111.000000
2834, 64282560.000000, 1949.000000, 8249.000000, 8046.000000, 8053.000000
2835, 64282720.000000, 1892.500000, 8239.000000, 8185.000000, 8203.000000
2836, 64282880.000000, 1856.000000, 8224.000000, 8205.000000, 8213.000000
2837, 64283040.000000, 1813.500000, 8225.000000, 8207.000000, 8214.000000
2838, 64283200.000000, 1745.000000, 8212.000000, 8212.000000, 8212.000000
2839, 64283360.000000, 1650.500000, 8206.000000, 8214.000000, 8207.000000
2840, 64283520.000000, 1545.000000, 8206.000000, 8224.000000, 8224.000000
2841, 64283680.000000, 1442.000000, 8188.000000, 8234.000000, 8227.000000
2842, 64283840.000000, 1348.000000, 8179.000000, 8246.000000, 8235.000000
2843, 64284000.000000, 1278.500000, 8189.000000, 8257.000000, 8256.000000
2844, 64284160.000000, 1242.000000, 8186.000000, 8264.000000, 8263.000000
2845, 64284320.000000, 1246.000000, 8174.000000, 8266.000000, 8263.000000
2846, 64284480.000000, 1288.000000, 8146.000000, 8249.000000, 8232.000000
2847, 64284640.000000, 1359.000000, 8099.000000, 8226.000000, 8187.000000
2848, 64284800.000000, 1444.000000, 8067.000000, 8214.000000, 8160.000000
2849, 64284960.000000, 1537.000000, 8059.000000, 8205.000000, 8142.000000
2850, 64285120.000000, 1630.000000, 8062.000000, 8204.000000, 8139.000000
2851, 64285280.000000, 1714.500000, 8069.000000, 8200.000000, 8135.000000
2852, 64285440.000000, 1784.000000, 8083.000000, 8200.000000, 8141.000000
2853, 64285600.000000, 1834.500000, 8095.000000, 8194.000000, 8139.000000
2854, 64285760.000000, 1864.000000, 8115.000000, 8193.000000, 8147.000000
2855, 64285920.000000, 1868.500000, 8121.000000, 8185.000000, 8139.000000
2856, 64286080.000000, 1864.000000, 8129.000000, 8182.000000, 8139.000000
2857, 64286240.000000, 1893.000000, 8128.000000, 8183.000000, 8140.000000
2858, 64286400.000000, 2007.000000, 8131.000000, 8182.000000, 8141.000000
2859, 64286560.000000, 2224.000000, 8121.000000, 8178.000000, 8132.000000
2860, 64286720.000000, 2481.000000, 8124.000000, 8180.000000, 8132.000000
2861, 64286880.000000, 2695.500000, 8128.000000, 8185.000000, 8136.000000
2862, 64287040.000000, 2832.000000, 8121.000000, 8181.000000, 8133.000000
2863, 64287200.000000, 2889.000000, 8122.000000, 8182.000000, 8131.000000
2864, 64287360.000000, 2896.000000, 8117.000000, 8182.000000, 8127.000000
2865, 64287520.000000, 2871.500000, 8127.000000, 8188.000000, 8138.000000
2866, 64287680.000000, 2820.000000, 8130.000000, 8201.000000, 8161.000000
2867, 64287840.000000, 2734.000000, 8139.000000, 8198.000000, 8166.000000
2868, 64288000.000000, 2626.000000, 8140.000000, 8194.000000, 8157.000000
2869, 64288160.000000, 2502.500000, 8130.000000, 8184.000000, 8136.000000
2870, 64288320.000000, 2375.000000, 8123.000000, 8179.000000, 8126.000000
2871, 64288480.000000, 2258.500000, 8127.000000, 8182.000000, 8132.000000
2872, 64288640.000000, 2148.000000, 8136.000000, 8186.000000, 8142.000000
2873, 64288800.000000, 2045.500000, 8107.000000, 8234.000000, 8181.000000
2874, 64288960.000000, 1949.000000, 8472.000000, 8122.000000, 8238.000000
2875, 64289120.000000, 1858.000000, 8531.000000, 7882.000000, 8005.000000
2876, 64289280.000000, 1779.000000, 8227.000000, 8093.000000, 8082.000000
2877, 64289440.000000, 1720.000000, 8273.000000, 8162.000000, 8169.000000
2878, 64289600.000000, 1674.000000, 8282.000000, 8168.000000, 8177.000000
2879, 64289760.000000, 1633.000000, 8297.000000, 8167.000000, 8186.000000
2880, 64289920.000000, 1588.000000, 8301.000000, 8173.000000, 8191.000000
2881, 64290080.000000, 1536.500000, 8298.000000, 8183.000000, 8201.000000
2882, 64290240.000000, 1481.000000, 8310.000000, 8184.000000, 8210.000000
2883, 64290400.000000, 1418.500000, 8322.000000, 8192.000000, 8224.000000
2884, 64290560.000000, 1352.000000, 8332.000000, 8198.000000, 8236.000000
2885, 64290720.000000, 1298.500000, 8352.000000, 8210.000000, 8256.000000
2886, 64290880.000000, 1256.000000, 8355.000000, 8219.000000, 8275.000000
2887, 64291040.000000, 1213.500000, 8348.000000, 8215.000000, 8270.000000
2888, 64291200.000000, 1177.000000, 8306.000000, 8202.000000, 8239.000000
2889, 64291360.000000, 1150.500000, 8242.000000, 8176.000000, 8178.000000
2890, 64291520.000000, 1130.000000, 8211.000000, 8176.000000, 8166.000000
2891, 64291680.000000, 1111.000000, 8191.000000, 8172.000000, 8149.000000
2892, 64291840.000000, 1092.000000, 8171.000000, 8186.000000, 8165.000000
2893, 64292000.000000, 1084.500000, 8112.000000, 8205.000000, 8161.000000
2894, 64292160.000000, 1099.000000, 8072.000000, 8215.000000, 8158.000000
2895, 64292320.000000, 1131.500000, 8049.000000, 8224.000000, 8162.000000
2896, 64292480.000000, 1181.000000, 8046.000000, 8227.000000, 8167.000000
2897, 64292640.000000, 1247.500000, 8040.000000, 8226.000000, 8164.000000
2898, 64292800.000000, 1340.000000, 8044.000000, 8225.000000, 8164.000000
2899, 64292960.000000, 1500.000000, 8045.000000, 8217.000000, 8156.000000
2900, 64293120.000000, 1758.000000, 8063.000000, 8215.000000, 8162.000000
2901, 64293280.000000, 2136.500000, 8072.000000, 8207.000000, 8156.000000
2902, 64293440.000000, 2551.000000, 8082.000000, 8204.000000, 8158.000000
2903, 64293600.000000, 2915.000000, 8096.000000, 8198.000000, 8155.000000
2904, 64293760.000000, 3175.000000, 8117.000000, 8193.000000, 8160.000000
2905, 64293920.000000, 3344.000000, 8125.000000, 8194.000000, 8167.000000
2906, 64294080.000000, 3448.000000, 8138.000000, 8205.000000, 8196.000000
2907, 64294240.000000, 3492.000000, 8144.000000, 8206.000000, 8199.000000
2908, 64294400.000000, 3503.000000, 8138.000000, 8193.000000, 8178.000000
2909, 64294560.000000, 3493.500000, 8142.000000, 8185.000000, 8161.000000
2910, 64294720.000000, 3460.000000, 8138.000000, 8179.000000, 8150.000000
2911, 64294880.000000, 3385.500000, 8143.000000, 8177.000000, 8150.000000
2912, 64295040.000000, 3262.000000, 8150.000000, 8171.000000, 8148.000000
2913, 64295200.000000, 3119.000000, 8119.000000, 8219.000000, 8184.000000
2914, 64295360.000000, 3003.000000, 8420.000000, 8161.000000, 8276.000000
2915, 64295520.000000, 2930.000000, 8549.000000, 7874.000000, 8025.000000
2916, 64295680.000000, 2883.000000, 8137.000000, 8103.000000, 8066.000000
2917, 64295840.000000, 2843.000000, 8138.000000, 8203.000000, 8174.000000
2918, 64296000.000000, 2792.000000, 8112.000000, 8224.000000, 8186.000000
2919, 64296160.000000, 2718.000000, 8115.000000, 8233.000000, 8197.000000
2920, 64296320.000000, 2612.000000, 8122.000000, 8231.000000, 8198.000000
2921, 64296480.000000, 2486.500000, 8149.000000, 8230.000000, 8207.000000
2922, 64296640.000000, 2351.000000, 8191.000000, 8224.000000, 8226.000000
2923, 64296800.000000, 2211.000000, 8225.000000, 8221.000000, 8232.000000
2924, 64296960.000000, 2073.000000, 8276.000000, 8215.000000, 8244.000000
2925, 64297120.000000, 1946.500000, 8323.000000, 8209.000000, 8259.000000
2926, 64297280.000000, 1828.000000, 8360.000000, 8208.000000, 8275.000000
2927, 64297440.000000, 1715.500000, 8384.000000, 8199.000000, 8276.000000
2928, 64297600.000000, 1607.000000, 8359.000000, 8174.000000, 8240.000000
2929, 64297760.000000, 1514.000000, 8323.000000, 8154.000000, 8206.000000
2930, 64297920.000000, 1452.000000, 8300.000000, 8148.000000, 8183.000000
2931, 64298080.000000, 1428.500000, 8285.000000, 8149.000000, 8174.000000
2932, 64298240.000000, 1406.000000, 8281.000000, 8149.000000, 8177.000000
2933, 64298400.000000, 1349.500000, 8272.000000, 8156.000000, 8184.000000
2934, 64298560.000000, 1277.000000, 8275.000000, 8159.000000, 8183.000000
2935, 64298720.000000, 1224.000000, 8271.000000, 8156.000000, 8180.000000
2936, 64298880.000000, 1196.000000, 8267.000000, 8161.000000, 8186.000000
2937, 64299040.000000, 1160.000000, 8269.000000, 8163.000000, 8185.000000
2938, 64299200.000000, 1092.000000, 8259.000000, 8162.000000, 8180.000000
2939, 64299360.000000, 1056.000000, 8244.000000, 8166.000000, 8174.000000
2940, 64299520.000000, 1128.000000, 8251.000000, 8161.000000, 8179.000000
2941, 64299680.000000, 1359.500000, 8265.000000, 8153.000000, 8169.000000
2942, 64299840.000000, 1658.000000, 8251.000000, 8159.000000, 8173.000000
2943, 64300000.000000, 1943.500000, 8239.000000, 8164.000000, 8178.000000
2944, 64300160.000000, 2166.000000, 8178.000000, 8184.000000, 8176.000000
2945, 64300320.000000, 2328.000000, 8099.000000, 8219.000000, 8190.000000
2946, 64300480.000000, 2443.000000, 8051.000000, 8244.000000, 8203.000000
2947, 64300640.000000, 2521.500000, 8038.000000, 8253.000000, 8216.000000
2948, 64300800.000000, 2576.000000, 8014.000000, 8252.000000, 8199.000000
2949, 64300960.000000, 2619.500000, 8007.000000, 8241.000000, 8175.000000
2950, 64301120.000000, 2658.000000, 8016.000000, 8232.000000, 8168.000000
2951, 64301280.000000, 2692.000000, 8039.000000, 8224.000000, 8165.000000
2952, 64301440.000000, 2729.000000, 8062.000000, 8214.000000, 8165.000000
2953, 64301600.000000, 2777.000000, 8043.000000, 8256.000000, 8204.000000
2954, 64301760.000000, 2828.000000, 8406.000000, 8165.000000, 8291.000000
2955, 64301920.000000, 2877.000000, 8492.000000, 7911.000000, 8046.000000
2956, 64302080.000000, 2931.000000, 8125.000000, 8144.000000, 8119.000000
2957, 64302240.000000, 3006.500000, 8134.000000, 8217.000000, 8202.000000
2958, 64302400.000000, 3098.000000, 8131.000000, 8227.000000, 8208.000000
2959, 64302560.000000, 3190.000000, 8135.000000, 8228.000000, 8211.000000
2960, 64302720.000000, 3255.000000, 8143.000000, 8231.000000, 8218.000000
2961, 64302880.000000, 3287.000000, 8149.000000, 8234.000000, 8227.000000
2962, 64303040.000000, 3299.000000, 8173.000000, 8234.000000, 8236.000000
2963, 64303200.000000, 3303.500000, 8184.000000, 8237.000000, 8243.000000
2964, 64303360.000000, 3293.000000, 8215.000000, 8241.000000, 8263.000000
2965, 64303520.000000, 3242.000000, 8243.000000, 8246.000000, 8281.000000
2966, 64303680.000000, 3162.000000, 8252.000000, 8250.000000, 8299.000000
2967, 64303840.000000, 3057.000000, 8241.000000, 8252.000000, 8296.000000
2968, 64304000.000000, 2941.000000, 8195.000000, 8231.000000, 8250.000000
2969, 64304160.000000, 2813.000000, 8145.000000, 8211.000000, 8205.000000
2970, 64304320.000000, 2682.000000, 8123.000000, 8212.000000, 8195.000000
2971, 64304480.000000, 2552.000000, 8118.000000, 8205.000000, 8193.000000
2972, 64304640.000000, 2420.000000, 8125.000000, 8206.000000, 8185.000000
2973, 64304800.000000, 2293.500000, 8123.000000, 8202.000000, 8185.000000
2974, 64304960.000000, 2179.000000, 8138.000000, 8203.000000, 8190.000000
2975, 64305120.000000, 2071.500000, 8162.000000, 8197.000000, 8194.000000
2976, 64305280.000000, 1961.000000, 8196.000000, 8183.000000, 8193.000000
2977, 64305440.000000, 1858.500000, 8245.000000, 8167.000000, 8193.000000
2978, 64305600.000000, 1773.000000, 8271.000000, 8152.000000, 8188.000000
2979, 64305760.000000, 1735.500000, 8287.000000, 8152.000000, 8194.000000
2980, 64305920.000000, 1783.000000, 8285.000000, 8153.000000, 8192.000000
2981, 64306080.000000, 1954.500000, 8274.000000, 8153.000000, 8189.000000
2982, 64306240.000000, 2200.000000, 8269.000000, 8158.000000, 8188.000000
2983, 64306400.000000, 2462.500000, 8259.000000, 8163.000000, 8195.000000
2984, 64306560.000000, 2696.000000, 8242.000000, 8165.000000, 8189.000000
2985, 64306720.000000, 2870.500000, 8238.000000, 8175.000000, 8201.000000
2986, 64306880.000000, 2968.000000, 8236.000000, 8188.000000, 8222.000000
2987, 64307040.000000, 3000.500000, 8228.000000, 8192.000000, 8227.000000
2988, 64307200.000000, 3005.000000, 8217.000000, 8184.000000, 8204.000000
2989, 64307360.000000, 2998.500000, 8206.000000, 8180.000000, 8192.000000
2990, 64307520.000000, 2971.000000, 8199.000000, 8165.000000, 8159.000000
2991, 64307680.000000, 2913.500000, 8180.000000, 8172.000000, 8169.000000
2992, 64307840.000000, 2835.000000, 8147.000000, 8189.000000, 8172.000000
2993, 64308000.000000, 2761.000000, 8092.000000, 8247.000000, 8212.000000
2994, 64308160.000000, 2707.000000, 8432.000000, 8146.000000, 8281.000000
2995, 64308320.000000, 2694.000000, 8444.000000, 7934.000000, 8047.000000
2996, 64308480.000000, 2720.000000, 8096.000000, 8157.000000, 8122.000000
2997, 64308640.000000, 2758.000000, 8079.000000, 8233.000000, 8197.000000
2998, 64308800.000000, 2779.000000, 8070.000000, 8242.000000, 8200.000000
2999, 64308960.000000, 2784.000000, 8079.000000, 8245.000000, 8211.000000
3000, 64309120.000000, 2796.000000, 8094.000000, 8245.000000, 8217.000000
3001, 64309280.000000, 2826.500000, 8095.000000, 8245.000000, 8214.000000
3002, 64309440.000000, 2862.000000, 8117.000000, 8250.000000, 8235.000000
3003, 64309600.000000, 2876.500000, 8142.000000, 8252.000000, 8244.000000
3004, 64309760.000000, 2880.000000, 8183.000000, 8253.000000, 8264.000000
3005, 64309920.000000, 2876.500000, 8204.000000, 8256.000000, 8275.000000
3006, 64310080.000000, 2858.000000, 8218.000000, 8263.000000, 8295.000000
3007, 64310240.000000, 2812.500000, 8215.000000, 8257.000000, 8289.000000
3008, 64310400.000000, 2763.000000, 8180.000000, 8236.000000, 8251.000000
3009, 64310560.000000, 2734.500000, 8137.000000, 8217.000000, 8212.000000
3010, 64310720.000000, 2735.000000, 8116.000000, 8210.000000, 8193.000000
3011, 64310880.000000, 2735.500000, 8110.000000, 8209.000000, 8186.000000
3012, 64311040.000000, 2711.000000, 8114.000000, 8209.000000, 8188.000000
3013, 64311200.000000, 2646.500000, 8118.000000, 8203.000000, 8185.000000
3014, 64311360.000000, 2557.000000, 8119.000000, 8208.000000, 8189.000000
3015, 64311520.000000, 2465.000000, 8131.000000, 8204.000000, 8189.000000
3016, 64311680.000000, 2408.000000, 8144.000000, 8207.000000, 8200.000000
3017, 64311840.000000, 2400.000000, 8138.000000, 8203.000000, 8192.000000
3018, 64312000.000000, 2426.000000, 8143.000000, 8195.000000, 8180.000000
3019, 64312160.000000, 2457.000000, 8142.000000, 8193.000000, 8179.000000
3020, 64312320.000000, 2511.000000, 8143.000000, 8195.000000, 8182.000000
3021, 64312480.000000, 2629.000000, 8153.000000, 8192.000000, 8183.000000
3022, 64312640.000000, 2797.000000, 8165.000000, 8191.000000, 8180.000000
3023, 64312800.000000, 2971.000000, 8159.000000, 8189.000000, 8178.000000
3024, 64312960.000000, 3090.000000, 8158.000000, 8188.000000, 8175.000000
3025, 64313120.000000, 3126.000000, 8172.000000, 8199.000000, 8203.000000
3026, 64313280.000000, 3075.000000, 8203.000000, 8196.000000, 8212.000000
3027, 64313440.000000, 2964.000000, 8237.000000, 8174.000000, 8193.000000
3028, 64313600.000000, 2834.000000, 8267.000000, 8157.000000, 8180.000000
3029, 64313760.000000, 2701.000000, 8269.000000, 8147.000000, 8163.000000
3030, 64313920.000000, 2561.000000, 8269.000000, 8140.000000, 8156.000000
3031, 64314080.000000, 2404.500000, 8255.000000, 8141.000000, 8156.000000
3032, 64314240.000000, 2243.000000, 8240.000000, 8171.000000, 8178.000000
3033, 64314400.000000, 2116.500000, 8366.000000, 8194.000000, 8275.000000
3034, 64314560.000000, 2048.000000, 8721.000000, 7872.000000, 8112.000000
3035, 64314720.000000, 2017.000000, 8234.000000, 8021.000000, 8008.000000
3036, 64314880.000000, 1993.000000, 8228.000000, 8170.000000, 8179.000000
3037, 64315040.000000, 1944.500000, 8204.000000, 8185.000000, 8176.000000
3038, 64315200.000000, 1861.000000, 8202.000000, 8188.000000, 8170.000000
3039, 64315360.000000, 1753.500000, 8200.000000, 8194.000000, 8181.000000
3040, 64315520.000000, 1654.000000, 8192.000000, 8200.000000, 8179.000000
3041, 64315680.000000, 1590.500000, 8171.000000, 8213.000000, 8190.000000
3042, 64315840.000000, 1554.000000, 8172.000000, 8219.000000, 8191.000000
3043, 64316000.000000, 1512.000000, 8180.000000, 8227.000000, 8212.000000
3044, 64316160.000000, 1455.000000, 8188.000000, 8241.000000, 8228.000000
3045, 64316320.000000, 1392.000000, 8184.000000, 8252.000000, 8242.000000
3046, 64316480.000000, 1338.000000, 8177.000000, 8254.000000, 8247.000000
3047, 64316640.000000, 1296.500000, 8142.000000, 8244.000000, 8224.000000
3048, 64316800.000000, 1277.000000, 8096.000000, 8226.000000, 8187.000000
3049, 64316960.000000, 1296.500000, 8065.000000, 8206.000000, 8145.000000
3050, 64317120.000000, 1362.000000, 8060.000000, 8205.000000, 8142.000000
3051, 64317280.000000, 1456.000000, 8067.000000, 8204.000000, 8140.000000
3052, 64317440.000000, 1556.000000, 8074.000000, 8199.000000, 8130.000000
3053, 64317600.000000, 1639.000000, 8087.000000, 8198.000000, 8141.000000
3054, 64317760.000000, 1716.000000, 8096.000000, 8193.000000, 8136.000000
3055, 64317920.000000, 1780.500000, 8106.000000, 8188.000000, 8134.000000
3056, 64318080.000000, 1829.000000, 8104.000000, 8189.000000, 8132.000000
3057, 64318240.000000, 1866.000000, 8113.000000, 8180.000000, 8127.000000
3058, 64318400.000000, 1913.000000, 8114.000000, 8181.000000, 8126.000000
3059, 64318560.000000, 2020.000000, 8121.000000, 8178.000000, 8128.000000
3060, 64318720.000000, 2212.000000, 8117.000000, 8176.000000, 8121.000000
3061, 64318880.000000, 2500.000000, 8125.000000, 8178.000000, 8129.000000
3062, 64319040.000000, 2811.000000, 8121.000000, 8178.000000, 8124.000000
3063, 64319200.000000, 3073.500000, 8126.000000, 8189.000000, 8142.000000
3064, 64319360.000000, 3252.000000, 8131.000000, 8195.000000, 8154.000000
3065, 64319520.000000, 3348.500000, 8140.000000, 8195.000000, 8158.000000
3066, 64319680.000000, 3373.000000, 8128.000000, 8180.000000, 8131.000000
3067, 64319840.000000, 3324.000000, 8122.000000, 8179.000000, 8124.000000
3068, 64320000.000000, 3221.000000, 8111.000000, 8176.000000, 8111.000000
3069, 64320160.000000, 3063.000000, 8111.000000, 8177.000000, 8112.000000
3070, 64320320.000000, 2878.000000, 8117.000000, 8191.000000, 8126.000000
3071, 64320480.000000, 2687.000000, 8120.000000, 8230.000000, 8177.000000
3072, 64320640.000000, 2510.000000, 8526.000000, 8019.000000, 8153.000000
3073, 64320800.000000, 2350.000000, 8249.000000, 7967.000000, 7954.000000
3074, 64320960.000000, 2202.000000, 8128.000000, 8160.000000, 8103.000000
3075, 64321120.000000, 2071.500000, 8150.000000, 8197.000000, 8148.000000
3076, 64321280.000000, 1958.000000, 8173.000000, 8198.000000, 8157.000000
3077, 64321440.000000, 1865.000000, 8210.000000, 8190.000000, 8165.000000
3078, 64321600.000000, 1785.000000, 8235.000000, 8186.000000, 8172.000000
3079, 64321760.000000, 1705.500000, 8248.000000, 8179.000000, 8166.000000
3080, 64321920.000000, 1601.000000, 8274.000000, 8190.000000, 8190.000000
3081, 64322080.000000, 1471.500000, 8286.000000, 8192.000000, 8204.000000
3082, 64322240.000000, 1341.000000, 8307.000000, 8199.000000, 8217.000000
3083, 64322400.000000, 1254.000000, 8325.000000, 8204.000000, 8232.000000
3084, 64322560.000000, 1221.000000, 8320.000000, 8214.000000, 8248.000000
3085, 64322720.000000, 1220.500000, 8279.000000, 8217.000000, 8236.000000
3086, 64322880.000000, 1223.000000, 8220.000000, 8214.000000, 8210.000000
3087, 64323040.000000, 1215.000000, 8167.000000, 8201.000000, 8172.000000
3088, 64323200.000000, 1193.000000, 8147.000000, 8196.000000, 8155.000000
3089, 64323360.000000, 1159.500000, 8134.000000, 8199.000000, 8154.000000
3090, 64323520.000000, 1121.000000, 8116.000000, 8210.000000, 8163.000000
3091, 64323680.000000, 1094.500000, 8099.000000, 8213.000000, 8158.000000
3092, 64323840.000000, 1066.000000, 8095.000000, 8218.000000, 8165.000000
3093, 64324000.000000, 1018.000000, 8083.000000, 8215.000000, 8154.000000
3094, 64324160.000000, 956.000000, 8077.000000, 8215.000000, 8152.000000
3095, 64324320.000000, 890.000000, 8079.000000, 8220.000000, 8160.000000
3096, 64324480.000000, 847.000000, 8061.000000, 8221.000000, 8153.000000
3097, 64324640.000000, 879.500000, 8065.000000, 8217.000000, 8154.000000
3098, 64324800.000000, 1046.000000, 8072.000000, 8212.000000, 8151.000000
3099, 64324960.000000, 1378.000000, 8079.000000, 8208.000000, 8152.000000
3100, 64325120.000000, 1794.000000, 8101.000000, 8221.000000, 8180.000000
3101, 64325280.000000, 2196.500000, 8107.000000, 8225.000000, 8194.000000
3102, 64325440.000000, 2523.000000, 8122.000000, 8214.000000, 8191.000000
3103, 64325600.000000, 2752.000000, 8124.000000, 8203.000000, 8173.000000
3104, 64325760.000000, 2918.000000, 8131.000000, 8197.000000, 8162.000000
3105, 64325920.000000, 3048.500000, 8133.000000, 8186.000000, 8152.000000
3106, 64326080.000000, 3145.000000, 8135.000000, 8180.000000, 8149.000000
3107, 64326240.000000, 3182.500000, 8142.000000, 8189.000000, 8157.000000
3108, 64326400.000000, 3172.000000, 8175.000000, 8218.000000, 8210.000000
3109, 64326560.000000, 3141.000000, 8592.000000, 7962.000000, 8154.000000
3110, 64326720.000000, 3110.000000, 8244.000000, 7978.000000, 7986.000000
3111, 64326880.000000, 3068.000000, 8143.000000, 8184.000000, 8161.000000
3112, 64327040.000000, 2998.000000, 8129.000000, 8217.000000, 8190.000000
3113, 64327200.000000, 2914.500000, 8136.000000, 8224.000000, 8202.000000
3114, 64327360.000000, 2844.000000, 8149.000000, 8223.000000, 8202.000000
3115, 64327520.000000, 2781.000000, 8150.000000, 8225.000000, 8212.000000
3116, 64327680.000000, 2712.000000, 8169.000000, 8235.000000, 8225.000000
3117, 64327840.000000, 2618.500000, 8177.000000, 8232.000000, 8229.000000
3118, 64328000.000000, 2507.000000, 8193.000000, 8237.000000, 8239.000000
3119, 64328160.000000, 2387.500000, 8223.000000, 8240.000000, 8256.000000
3120, 64328320.000000, 2265.000000, 8241.000000, 8248.000000, 8270.000000
3121, 64328480.000000, 2143.500000, 8244.000000, 8251.000000, 8281.000000
3122, 64328640.000000, 2028.000000, 8220.000000, 8237.000000, 8257.000000
3123, 64328800.000000, 1920.000000, 8194.000000, 8212.000000, 8218.000000
3124, 64328960.000000, 1816.000000, 8170.000000, 8195.000000, 8192.000000
3125, 64329120.000000, 1711.000000, 8187.000000, 8181.000000, 8179.000000
3126, 64329280.000000, 1615.000000, 8207.000000, 8171.000000, 8174.000000
3127, 64329440.000000, 1521.500000, 8243.000000, 8163.000000, 8178.000000
3128, 64329600.000000, 1434.000000, 8252.000000, 8158.000000, 8179.000000
3129, 64329760.000000, 1367.500000, 8266.000000, 8160.000000, 8188.000000
3130, 64329920.000000, 1339.000000, 8272.000000, 8160.000000, 8192.000000
3131, 64330080.000000, 1347.000000, 8263.000000, 8158.000000, 8192.000000
3132, 64330240.000000, 1363.000000, 8265.000000, 8162.000000, 8192.000000
3133, 64330400.000000, 1367.500000, 8262.000000, 8161.000000, 8189.000000
3134, 64330560.000000, 1378.000000, 8261.000000, 8159.000000, 8188.000000
3135, 64330720.000000, 1445.500000, 8256.000000, 8169.000000, 8195.000000
3136, 64330880.000000, 1606.000000, 8252.000000, 8167.000000, 8192.000000
3137, 64331040.000000, 1827.500000, 8245.000000, 8172.000000, 8194.000000
3138, 64331200.000000, 2043.000000, 8246.000000, 8192.000000, 8229.000000
3139, 64331360.000000, 2207.000000, 8223.000000, 8190.000000, 8230.000000
3140, 64331520.000000, 2322.000000, 8203.000000, 8204.000000, 8210.000000
3141, 64331680.000000, 2390.500000, 8161.000000, 8202.000000, 8191.000000
3142, 64331840.000000, 2444.000000, 8128.000000, 8194.000000, 8165.000000
3143, 64332000.000000, 2513.000000, 8106.000000, 8199.000000, 8165.000000
3144, 64332160.000000, 2587.000000, 8100.000000, 8206.000000, 8174.000000
3145, 64332320.000000, 2616.500000, 8066.000000, 8239.000000, 8198.000000
3146, 64332480.000000, 2641.000000, 8250.000000, 8242.000000, 8296.000000
3147, 64332640.000000, 2675.000000, 8549.000000, 7897.000000, 8076.000000
3148, 64332800.000000, 2718.000000, 8101.000000, 8088.000000, 8039.000000
3149, 64332960.000000, 2778.000000, 8106.000000, 8217.000000, 8189.000000
3150, 64333120.000000, 2868.000000, 8110.000000, 8236.000000, 8211.000000
3151, 64333280.000000, 2943.000000, 8112.000000, 8233.000000, 8203.000000
3152, 64333440.000000, 2982.000000, 8128.000000, 8233.000000, 8214.000000
3153, 64333600.000000, 2987.500000, 8137.000000, 8235.000000, 8226.000000
3154, 64333760.000000, 2989.000000, 8152.000000, 8239.000000, 8230.000000
3155, 64333920.000000, 3010.000000, 8169.000000, 8246.000000, 8256.000000
3156, 64334080.000000, 3046.000000, 8184.000000, 8244.000000, 8252.000000
3157, 64334240.000000, 3066.000000, 8213.000000, 8252.000000, 8279.000000
3158, 64334400.000000, 3045.000000, 8220.000000, 8254.000000, 8286.000000
3159, 64334560.000000, 2981.500000, 8229.000000, 8250.000000, 8288.000000
3160, 64334720.000000, 2895.000000, 8195.000000, 8233.000000, 8252.000000
3161, 64334880.000000, 2799.000000, 8146.000000, 8215.000000, 8212.000000
3162, 64335040.000000, 2691.000000, 8121.000000, 8200.000000, 8178.000000
3163, 64335200.000000, 2569.000000, 8130.000000, 8196.000000, 8184.000000
3164, 64335360.000000, 2435.000000, 8121.000000, 8195.000000, 8177.000000
3165, 64335520.000000, 2295.000000, 8142.000000, 8193.000000, 8179.000000
3166, 64335680.000000, 2160.000000, 8150.000000, 8196.000000, 8189.000000
3167, 64335840.000000, 2030.500000, 8146.000000, 8193.000000, 8186.000000
3168, 64336000.000000, 1906.000000, 8148.000000, 8193.000000, 8183.000000
3169, 64336160.000000, 1791.000000, 8156.000000, 8195.000000, 8186.000000
3170, 64336320.000000, 1708.000000, 8178.000000, 8183.000000, 8187.000000
3171, 64336480.000000, 1719.500000, 8200.000000, 8170.000000, 8174.000000
3172, 64336640.000000, 1845.000000, 8233.000000, 8156.000000, 8176.000000
3173, 64336800.000000, 2068.500000, 8281.000000, 8145.000000, 8179.000000
3174, 64336960.000000, 2303.000000, 8326.000000, 8129.000000, 8179.000000
3175, 64337120.000000, 2486.000000, 8358.000000, 8123.000000, 8183.000000
3176, 64337280.000000, 2595.000000, 8371.000000, 8127.000000, 8203.000000
3177, 64337440.000000, 2641.000000, 8383.000000, 8132.000000, 8214.000000
3178, 64337600.000000, 2659.000000, 8378.000000, 8135.000000, 8220.000000
3179, 64337760.000000, 2690.000000, 8377.000000, 8129.000000, 8205.000000
3180, 64337920.000000, 2732.000000, 8343.000000, 8124.000000, 8178.000000
3181, 64338080.000000, 2749.500000, 8342.000000, 8124.000000, 8175.000000
3182, 64338240.000000, 2706.000000, 8328.000000, 8127.000000, 8179.000000
3183, 64338400.000000, 2576.500000, 8303.000000, 8143.000000, 8184.000000
3184, 64338560.000000, 2401.000000, 8309.000000, 8184.000000, 8235.000000
3185, 64338720.000000, 2239.500000, 8733.000000, 7943.000000, 8193.000000
3186, 64338880.000000, 2124.000000, 8431.000000, 7920.000000, 8002.000000
3187, 64339040.000000, 2069.000000, 8270.000000, 8151.000000, 8186.000000
3188, 64339200.000000, 2048.000000, 8225.000000, 8196.000000, 8213.000000
3189, 64339360.000000, 2036.500000, 8169.000000, 8222.000000, 8220.000000
3190, 64339520.000000, 2016.000000, 8137.000000, 8238.000000, 8229.000000
3191, 64339680.000000, 1982.500000, 8127.000000, 8245.000000, 8235.000000
3192, 64339840.000000, 1949.000000, 8107.000000, 8250.000000, 8229.000000
3193, 64340000.000000, 1934.000000, 8115.000000, 8257.000000, 8243.000000
3194, 64340160.000000, 1959.000000, 8142.000000, 8265.000000, 8269.000000
3195, 64340320.000000, 2037.000000, 8164.000000, 8268.000000, 8280.000000
3196, 64340480.000000, 2137.000000, 8182.000000, 8271.000000, 8293.000000
3197, 64340640.000000, 2215.500000, 8188.000000, 8274.000000, 8300.000000
3198, 64340800.000000, 2262.000000, 8178.000000, 8272.000000, 8302.000000
3199, 64340960.000000, 2284.500000, 8125.000000, 8240.000000, 8240.000000
3200, 64341120.000000, 2285.000000, 8098.000000, 8227.000000, 8210.000000
3201, 64341280.000000, 2264.000000, 8091.000000, 8223.000000, 8203.000000
3202, 64341440.000000, 2236.000000, 8100.000000, 8214.000000, 8194.000000
3203, 64341600.000000, 2228.500000, 8099.000000, 8219.000000, 8200.000000
3204, 64341760.000000, 2247.000000, 8118.000000, 8221.000000, 8215.000000
3205, 64341920.000000, 2286.500000, 8122.000000, 8217.000000, 8206.000000
3206, 64342080.000000, 2315.000000, 8128.000000, 8212.000000, 8205.000000
3207, 64342240.000000, 2298.500000, 8135.000000, 8210.000000, 8205.000000
3208, 64342400.000000, 2261.000000, 8136.000000, 8209.000000, 8209.000000
3209, 64342560.000000, 2271.000000, 8132.000000, 8204.000000, 8199.000000
3210, 64342720.000000, 2370.000000, 8131.000000, 8208.000000, 8201.000000
3211, 64342880.000000, 2537.000000, 8136.000000, 8207.000000, 8203.000000
3212, 64343040.000000, 2719.000000, 8136.000000, 8202.000000, 8198.000000
3213, 64343200.000000, 2892.500000, 8143.000000, 8205.000000, 8200.000000
3214, 64343360.000000, 3033.000000, 8146.000000, 8200.000000, 8193.000000
3215, 64343520.000000, 3102.000000, 8164.000000, 8212.000000, 8224.000000
3216, 64343680.000000, 3093.000000, 8176.000000, 8215.000000, 8235.000000
3217, 64343840.000000, 3032.500000, 8176.000000, 8209.000000, 8229.000000
3218, 64344000.000000, 2949.000000, 8182.000000, 8199.000000, 8207.000000
3219, 64344160.000000, 2856.000000, 8174.000000, 8191.000000, 8198.000000
3220, 64344320.000000, 2748.000000, 8192.000000, 8179.000000, 8180.000000
3221, 64344480.000000, 2606.500000, 8218.000000, 8162.000000, 8172.000000
3222, 64344640.000000, 2436.000000, 8249.000000, 8159.000000, 8176.000000
3223, 64344800.000000, 2232.000000, 8313.000000, 8192.000000, 8242.000000
3224, 64344960.000000, 2014.000000, 8742.000000, 7914.000000, 8172.000000
3225, 64345120.000000, 1834.500000, 8398.000000, 7945.000000, 8011.000000
3226, 64345280.000000, 1749.000000, 8286.000000, 8145.000000, 8179.000000
3227, 64345440.000000, 1750.000000, 8252.000000, 8188.000000, 8213.000000
3228, 64345600.000000, 1773.000000, 8244.000000, 8190.000000, 8210.000000
3229, 64345760.000000, 1749.000000, 8243.000000, 8192.000000, 8213.000000
3230, 64345920.000000, 1673.000000, 8239.000000, 8209.000000, 8235.000000
3231, 64346080.000000, 1571.500000, 8228.000000, 8213.000000, 8230.000000
3232, 64346240.000000, 1476.000000, 8216.000000, 8225.000000, 8232.000000
3233, 64346400.000000, 1400.000000, 8226.000000, 8236.000000, 8248.000000
3234, 64346560.000000, 1352.000000, 8232.000000, 8246.000000, 8270.000000
3235, 64346720.000000, 1342.500000, 8243.000000, 8253.000000, 8278.000000
3236, 64346880.000000, 1369.000000, 8238.000000, 8259.000000, 8287.000000
3237, 64347040.000000, 1395.500000, 8208.000000, 8250.000000, 8264.000000
3238, 64347200.000000, 1395.000000, 8147.000000, 8232.000000, 8221.000000
3239, 64347360.000000, 1371.500000, 8108.000000, 8222.000000, 8193.000000
3240, 64347520.000000, 1343.000000, 8092.000000, 8214.000000, 8175.000000
3241, 64347680.000000, 1327.000000, 8082.000000, 8210.000000, 8164.000000
3242, 64347840.000000, 1346.000000, 8086.000000, 8210.000000, 8165.000000
3243, 64348000.000000, 1407.500000, 8091.000000, 8213.000000, 8173.000000
3244, 64348160.000000, 1483.000000, 8097.000000, 8214.000000, 8182.000000
3245, 64348320.000000, 1513.500000, 8095.000000, 8215.000000, 8174.000000
3246, 64348480.000000, 1505.000000, 8104.000000, 8210.000000, 8169.000000
3247, 64348640.000000, 1511.500000, 8111.000000, 8209.000000, 8174.000000
3248, 64348800.000000, 1603.000000, 8115.000000, 8207.000000, 8171.000000
3249, 64348960.000000, 1796.000000, 8115.000000, 8209.000000, 8175.000000
3250, 64349120.000000, 2070.000000, 8112.000000, 8202.000000, 8162.000000
3251, 64349280.000000, 2370.500000, 8117.000000, 8202.000000, 8169.000000
3252, 64349440.000000, 2649.000000, 8116.000000, 8201.000000, 8166.000000
3253, 64349600.000000, 2864.500000, 8124.000000, 8203.000000, 8167.000000
3254, 64349760.000000, 3012.000000, 8128.000000, 8213.000000, 8188.000000
3255, 64349920.000000, 3083.000000, 8134.000000, 8214.000000, 8195.000000
3256, 64350080.000000, 3088.000000, 8135.000000, 8211.000000, 8188.000000
3257, 64350240.000000, 3047.000000, 8137.000000, 8196.000000, 8157.000000
3258, 64350400.000000, 2983.000000, 8131.000000, 8183.000000, 8136.000000
3259, 64350560.000000, 2890.000000, 8148.000000, 8179.000000, 8141.000000
3260, 64350720.000000, 2770.000000, 8140.000000, 8184.000000, 8141.000000
3261, 64350880.000000, 2624.000000, 8122.000000, 8196.000000, 8137.000000
3262, 64351040.000000, 2484.000000, 8174.000000, 8230.000000, 8217.000000
3263, 64351200.000000, 2369.500000, 8565.000000, 7965.000000, 8127.000000
3264, 64351360.000000, 2283.000000, 8192.000000, 8009.000000, 7980.000000
3265, 64351520.000000, 2228.000000, 8138.000000, 8189.000000, 8150.000000
3266, 64351680.000000, 2197.000000, 8154.000000, 8211.000000, 8177.000000
3267, 64351840.000000, 2177.000000, 8194.000000, 8205.000000, 8180.000000
3268, 64352000.000000, 2150.000000, 8256.000000, 8188.000000, 8192.000000
3269, 64352160.000000, 2088.500000, 8309.000000, 8172.000000, 8193.000000
3270, 64352320.000000, 1992.000000, 8342.000000, 8168.000000, 8199.000000
3271, 64352480.000000, 1877.500000, 8366.000000, 8165.000000, 8214.000000
3272, 64352640.000000, 1771.000000, 8388.000000, 8167.000000, 8223.000000
3273, 64352800.000000, 1676.000000, 8415.000000, 8174.000000, 8242.000000
3274, 64352960.000000, 1574.000000, 8415.000000, 8187.000000, 8261.000000
3275, 64353120.000000, 1472.500000, 8404.000000, 8196.000000, 8264.000000
3276, 64353280.000000, 1392.000000, 8373.000000, 8189.000000, 8251.000000
3277, 64353440.000000, 1346.000000, 8298.000000, 8172.000000, 8206.000000
3278, 64353600.000000, 1309.000000, 8269.000000, 8168.000000, 8180.000000
3279, 64353760.000000, 1247.500000, 8257.000000, 8165.000000, 8175.000000
3280, 64353920.000000, 1149.000000, 8233.000000, 8164.000000, 8161.000000
3281, 64354080.000000, 1041.000000, 8226.000000, 8174.000000, 8168.000000
3282, 64354240.000000, 953.000000, 8191.000000, 8186.000000, 8173.000000
3283, 64354400.000000, 900.500000, 8153.000000, 8203.000000, 8180.000000
3284, 64354560.000000, 874.000000, 8120.000000, 8210.000000, 8175.000000
3285, 64354720.000000, 863.500000, 8104.000000, 8214.000000, 8175.000000
3286, 64354880.000000, 872.000000, 8082.000000, 8217.000000, 8167.000000
3287, 64355040.000000, 924.500000, 8075.000000, 8224.000000, 8179.000000
3288, 64355200.000000, 1063.000000, 8065.000000, 8224.000000, 8173.000000
3289, 64355360.000000, 1309.500000, 8070.000000, 8224.000000, 8180.000000
3290, 64355520.000000, 1633.000000, 8069.000000, 8219.000000, 8176.000000
3291, 64355680.000000, 1956.500000, 8074.000000, 8211.000000, 8162.000000
3292, 64355840.000000, 2233.000000, 8095.000000, 8224.000000, 8189.000000
3293, 64356000.000000, 2432.000000, 8104.000000, 8227.000000, 8208.000000
3294, 64356160.000000, 2570.000000, 8126.000000, 8223.000000, 8214.000000
3295, 64356320.000000, 2653.000000, 8132.000000, 8208.000000, 8193.000000
3296, 64356480.000000, 2705.000000, 8131.000000, 8198.000000, 8173.000000
3297, 64356640.000000, 2735.500000, 8131.000000, 8188.000000, 8159.000000
3298, 64356800.000000, 2740.000000, 8122.000000, 8184.000000, 8163.000000
3299, 64356960.000000, 2704.500000, 8121.000000, 8185.000000, 8163.000000
3300, 64357120.000000, 2629.000000, 8132.000000, 8240.000000, 8217.000000
3301, 64357280.000000, 2530.000000, 8539.000000, 8008.000000, 8188.000000
3302, 64357440.000000, 2450.000000, 8341.000000, 7929.000000, 7985.000000
3303, 64357600.000000, 2403.000000, 8132.000000, 8171.000000, 8152.000000
3304, 64357760.000000, 2353.000000, 8127.000000, 8222.000000, 8204.000000
3305, 64357920.000000, 2291.000000, 8129.000000, 8226.000000, 8209.000000
3306, 64358080.000000, 2233.000000, 8142.000000, 8225.000000, 8209.000000
3307, 64358240.000000, 2194.500000, 8150.000000, 8222.000000, 8209.000000
3308, 64358400.000000, 2159.000000, 8158.000000, 8234.000000, 8223.000000
3309, 64358560.000000, 2104.500000, 8165.000000, 8235.000000, 8230.000000
3310, 64358720.000000, 2028.000000, 8188.000000, 8235.000000, 8245.000000
3311, 64358880.000000, 1940.000000, 8213.000000, 8242.000000, 8255.000000
3312, 64359040.000000, 1854.000000, 8223.000000, 8250.000000, 8276.000000
3313, 64359200.000000, 1772.500000, 8226.000000, 8257.000000, 8289.000000
3314, 64359360.000000, 1688.000000, 8236.000000, 8245.000000, 8269.000000
3315, 64359520.000000, 1594.500000, 8202.000000, 8216.000000, 8228.000000
3316, 64359680.000000, 1501.000000, 8195.000000, 8188.000000, 8187.000000
3317, 64359840.000000, 1427.000000, 8223.000000, 8166.000000, 8178.000000
3318, 64360000.000000, 1380.000000, 8242.000000, 8166.000000, 8180.000000
3319, 64360160.000000, 1349.500000, 8254.000000, 8159.000000, 8175.000000
3320, 64360320.000000, 1308.000000, 8250.000000, 8154.000000, 8176.000000
3321, 64360480.000000, 1246.000000, 8267.000000, 8156.000000, 8181.000000
3322, 64360640.000000, 1177.000000, 8253.000000, 8156.000000, 8176.000000
3323, 64360800.000000, 1128.000000, 8250.000000, 8158.000000, 8176.000000
3324, 64360960.000000, 1103.000000, 8250.000000, 8162.000000, 8182.000000
3325, 64361120.000000, 1098.500000, 8233.000000, 8163.000000, 8179.000000
3326, 64361280.000000, 1127.000000, 8228.000000, 8169.000000, 8182.000000
3327, 64361440.000000, 1225.000000, 8209.000000, 8168.000000, 8165.000000
3328, 64361600.000000, 1390.000000, 8192.000000, 8179.000000, 8172.000000
3329, 64361760.000000, 1566.000000, 8170.000000, 8187.000000, 8178.000000
3330, 64361920.000000, 1711.000000, 8142.000000, 8195.000000, 8177.000000
3331, 64362080.000000, 1804.000000, 8121.000000, 8201.000000, 8171.000000
3332, 64362240.000000, 1855.000000, 8126.000000, 8219.000000, 8206.000000
3333, 64362400.000000, 1874.000000, 8117.000000, 8223.000000, 8208.000000
3334, 64362560.000000, 1884.000000, 8107.000000, 8219.000000, 8202.000000
3335, 64362720.000000, 1900.500000, 8104.000000, 8210.000000, 8181.000000
3336, 64362880.000000, 1932.000000, 8088.000000, 8205.000000, 8165.000000
3337, 64363040.000000, 1975.000000, 8090.000000, 8200.000000, 8165.000000
3338, 64363200.000000, 2028.000000, 8090.000000, 8200.000000, 8165.000000
3339, 64363360.000000, 2096.500000, 8082.000000, 8219.000000, 8173.000000
3340, 64363520.000000, 2167.000000, 8201.000000, 8243.000000, 8272.000000
3341, 64363680.000000, 2227.500000, 8567.000000, 7914.000000, 8117.000000
3342, 64363840.000000, 2291.000000, 8137.000000, 8051.000000, 8018.000000
3343, 64364000.000000, 2371.500000, 8123.000000, 8205.000000, 8184.000000
3344, 64364160.000000, 2455.000000, 8117.000000, 8225.000000, 8200.000000
3345, 64364320.000000, 2512.500000, 8114.000000, 8228.000000, 8205.000000
3346, 64364480.000000, 2534.000000, 8132.000000, 8231.000000, 8210.000000
3347, 64364640.000000, 2532.000000, 8137.000000, 8228.000000, 8211.000000
3348, 64364800.000000, 2518.000000, 8153.000000, 8237.000000, 8234.000000
3349, 64364960.000000, 2488.500000, 8165.000000, 8239.000000, 8240.000000
3350, 64365120.000000, 2448.000000, 8180.000000, 8242.000000, 8251.000000
3351, 64365280.000000, 2395.000000, 8206.000000, 8246.000000, 8270.000000
3352, 64365440.000000, 2323.000000, 8234.000000, 8256.000000, 8287.000000
3353, 64365600.000000, 2242.500000, 8234.000000, 8252.000000, 8289.000000
3354, 64365760.000000, 2174.000000, 8216.000000, 8238.000000, 8265.000000
3355, 64365920.000000, 2110.500000, 8164.000000, 8219.000000, 8223.000000
3356, 64366080.000000, 2038.000000, 8135.000000, 8200.000000, 8183.000000
3357, 64366240.000000, 1957.000000, 8139.000000, 8195.000000, 8179.000000
3358, 64366400.000000, 1882.000000, 8135.000000, 8192.000000, 8179.000000
3359, 64366560.000000, 1804.000000, 8134.000000, 8193.000000, 8176.000000
3360, 64366720.000000, 1716.000000, 8136.000000, 8195.000000, 8169.000000
3361, 64366880.000000, 1619.500000, 8144.000000, 8195.000000, 8178.000000
3362, 64367040.000000, 1524.000000, 8166.000000, 8189.000000, 8181.000000
3363, 64367200.000000, 1432.000000, 8186.000000, 8175.000000, 8176.000000
3364, 64367360.000000, 1356.000000, 8220.000000, 8171.000000, 8181.000000
3365, 64367520.000000, 1335.500000, 8251.000000, 8155.000000, 8179.000000
3366, 64367680.000000, 1423.000000, 8259.000000, 8151.000000, 8181.000000
3367, 64367840.000000, 1643.500000, 8268.000000, 8155.000000, 8189.000000
3368, 64368000.000000, 1942.000000, 8260.000000, 8157.000000, 8187.000000
3369, 64368160.000000, 2230.500000, 8255.000000, 8161.000000, 8192.000000
3370, 64368320.000000, 2444.000000, 8246.000000, 8163.000000, 8188.000000
3371, 64368480.000000, 2567.500000, 8241.000000, 8164.000000, 8190.000000
3372, 64368640.000000, 2636.000000, 8228.000000, 8173.000000, 8200.000000
3373, 64368800.000000, 2640.500000, 8228.000000, 8188.000000, 8221.000000
3374, 64368960.000000, 2581.000000, 8237.000000, 8194.000000, 8231.000000
3375, 64369120.000000, 2468.500000, 8210.000000, 8196.000000, 8221.000000
3376, 64369280.000000, 2347.000000, 8176.000000, 8192.000000, 8192.000000
3377, 64369440.000000, 2238.500000, 8152.000000, 8186.000000, 8173.000000
3378, 64369600.000000, 2134.000000, 8143.000000, 8195.000000, 8178.000000
3379, 64369760.000000, 2036.500000, 8135.000000, 8194.000000, 8175.000000
3380, 64369920.000000, 1969.000000, 8097.000000, 8249.000000, 8221.000000
3381, 64370080.000000, 1935.500000, 8427.000000, 8153.000000, 8291.000000
3382, 64370240.000000, 1923.000000, 8492.000000, 7906.000000, 8041.000000
3383, 64370400.000000, 1922.000000, 8110.000000, 8152.000000, 8121.000000
3384, 64370560.000000, 1942.000000, 8107.000000, 8227.000000, 8204.000000
3385, 64370720.000000, 1989.500000, 8104.000000, 8230.000000, 8205.000000
3386, 64370880.000000, 2068.000000, 8107.000000, 8237.000000, 8214.000000
3387, 64371040.000000, 2155.500000, 8117.000000, 8240.000000, 8221.000000
3388, 64371200.000000, 2225.000000, 8122.000000, 8241.000000, 8224.000000
3389, 64371360.000000, 2274.500000, 8134.000000, 8245.000000, 8234.000000
3390, 64371520.000000, 2330.000000, 8152.000000, 8251.000000, 8248.000000
3391, 64371680.000000, 2401.500000, 8180.000000, 8254.000000, 8261.000000
3392, 64371840.000000, 2459.000000, 8194.000000, 8261.000000, 8279.000000
3393, 64372000.000000, 2474.500000, 8202.000000, 8263.000000, 8285.000000
3394, 64372160.000000, 2456.000000, 8198.000000, 8264.000000, 8287.000000
3395, 64372320.000000, 2425.000000, 8164.000000, 8244.000000, 8246.000000
3396, 64372480.000000, 2393.000000, 8115.000000, 8225.000000, 8205.000000
3397, 64372640.000000, 2338.500000, 8094.000000, 8214.000000, 8182.000000
3398, 64372800.000000, 2266.000000, 8099.000000, 8212.000000, 8183.000000
3399, 64372960.000000, 2181.000000, 8091.000000, 8210.000000, 8178.000000
