ECG
1.0951942474536402
-0.27680751028135175
-0.18767664403259743
0.028763441046569166
-0.09096419227139099
0.04563151616769365
-0.03860635508180465
0.1683542156748477
0.23698266865805628
0.30199821729093934
0.19498220851150674
0.370279781787219
0.3096693631536221
0.3097209749028053
0.23300803758710067
0.3152152583357195
0.10635972836792584
0.13104194442983047
0.36968193780498304
0.1297500248367658
0.04006382215462698
-0.08225281607912659
-0.0388223785716984
-0.09241730509226667
0.0003311213591529437
0.003233130105536934
-0.10143324524871677
0.007130610865576278
0.20942747008345286
0.15645818009655932
-0.04306087285629184
0.06352730956872311
0.05432515937753379
-0.01911576071610847
-0.09905379099426569
-0.009818142156325219
0.09592842812743103
-0.019213066990566297
-0.02223994842117903
-0.060886183915921474
0.23224265645258863
0.16832591522903811
0.10036401303893779
-0.09926860189983212
-0.14954670983947474
-0.1630393665663294
-0.10119298626691416
-0.01834791190875896
0.07472773500057886
-0.04455383761334321
-0.0019815015924415508
0.15634517029649014
0.023004837067709193
0.041772134778570245
-0.06579942532882747
0.013107560311330757
-0.04587033174782338
0.20449627103149598
0.018487458290039928
0.08143292952385345
0.12755839227699356
0.1641658996327915
0.06992579584719186
-0.007845782578819495
0.03460052523740867
0.07552274892397975
-0.053883828294820864
-0.030752846954919706
0.11142865707352137
0.14192494608835998
0.05106310275581377
-0.040262452264564104
-0.07108556340477698
0.03075517068107888
0.06219559820425945
0.18700699814459742
-0.05434206830360047
0.025614249097338945
0.10058062830773329
-0.07581778799838487
0.059543817522482174
0.01577444891448288
0.035115137199041815
0.16629362473622805
0.04094772028460278
-0.058506494783247945
-0.048026742266481695
-0.07409940059421338
0.18657284610380132
0.1199900838038879
0.08802094697923975
-0.07870672728967579
0.12409193936905917
0.05575923116530821
0.05561089627131404
0.177225376355396
0.04966986446897288
0.06554433344163092
-0.04773732541502329
0.05471635693586765
0.19125328448703785
0.0796944304322775
0.07533726829820336
-0.07086992152345381
-0.1392625449369902
-0.05319847634525831
0.08830744796373273
-0.038823846226894346
0.03977349178670668
-0.09003440910946851
0.1321425301405325
0.11501930178842687
-0.007633948921720535
0.06324784550117968
0.019838925275320517
0.25626021982001357
0.05154434943347611
0.0701511481953845
-0.15872084962613991
0.1003878119729845
0.2265059585901249
0.08894611314807838
0.07656380153424586
0.006407959612827238
0.03839683045341398
0.11623559070599095
0.15372660814308609
0.09383315337245798
0.1583616798602013
0.16782313969249452
-0.06146538891552156
0.05667804424317515
0.1620264699749412
0.0654965867298665
0.04356110340697851
0.03474322024178566
0.07749833281013918
0.13039124849686218
0.19666574167931727
0.03605377801574323
0.0763698060158581
0.05841870655485769
0.1732044341596649
0.05879344896759507
0.05243220949899627
0.06393347451856125
0.010451756382749727
0.011557464994941216
-0.019490099411886633
0.09349279051195715
0.1053315285696746
0.07839102144733008
0.0714226700498533
0.21149062509059824
0.08116311894745032
0.19706390010764588
-0.06533321851957409
-0.028900800669472468
0.17818855264538844
0.021613483586607876
0.19458570963220206
0.20840661853060777
0.18170496316174944
0.02217254632170862
0.07144486905888323
0.10634167679410952
-0.007771790422408303
0.13671367787834096
0.020008432528594633
-0.03551215884422991
0.11073336877226349
0.2154712607447421
0.08849993420983092
0.07125790480184213
0.14523149980234662
0.05405761581155729
0.012776598545980636
0.1121519191770881
-0.0003816193334880841
0.16870472735074957
0.05398509327136958
0.10119172385056953
0.18459614791772547
0.08573882992702891
0.059408631838426186
0.28643499851702947
0.04124054999103122
0.16420963072316916
0.15346710359576549
0.11580750963650156
0.10048656041802019
0.139047913028829
0.18411602700875462
0.1302160039775002
0.1475156797954567
0.06904982474844999
0.2896573304534017
0.10163427797006523
0.1775292485662364
0.10038813454057592
-0.014400469984816838
0.12741335980644197
-0.006895083022843598
0.2627896030008398
-0.028509893918876414
0.14954697243281798
0.09602607426732887
0.0262255822584022
-0.15777313444981855
0.18172745335736268
0.00271940355807819
0.017592318299215162
0.08773784953963223
0.11168891277436359
-0.04403484868829266
0.007017228316934451
0.23066786963636488
0.007121651171765109
-0.03710031534473572
0.3491397028897597
0.13763472542726626
0.1532986298207455
0.17835662798025792
0.06993967748750247
0.1034811659756349
0.12343656430701791
0.20627008780249423
0.11312513131481249
-0.04680685647625113
0.024313360037893472
0.13686817940040238
0.0448983450199064
0.15375396136923247
0.08880264633707863
0.11517663867480808
0.19844420587215608
0.179696632530293
0.10562244282400682
0.1614227338685353
0.029195811963463172
0.3508150401325524
0.06047224830502547
-0.026939621162161725
0.02278581144038748
0.15106322952596346
0.18325611223001248
0.03173220564935428
0.21793422796399176
-0.0575224599967549
0.003018597342218987
1.117418578316256
-0.03422522902254355
0.02313309415210886
0.12071342946898042
-0.03885408870633254
0.18985939518543243
0.09063370782523483
0.16564012211936957
0.14591001505446927
0.4345688840489913
0.22120999736851718
0.40232684673026925
0.41352774245333057
0.3394831054818785
0.35206294926971654
0.12537257766552315
0.25435174709632274
0.18590545945626855
0.09255728182538767
0.05898384757655627
0.13618740755590766
-0.03663759180448958
0.14865638533134648
0.13089033375438017
-0.03306486719314011
0.23122272634269186
0.036377523194350204
0.10965638151453555
0.04878846720122102
0.26395175617187117
0.10954671239960959
0.20033351882012107
0.18467435632558443
0.108462586920287
0.11744075235659274
0.04828993766875657
0.11622415246373473
0.12412347702608341
-0.016004441505541603
0.030923397916908874
0.17337166382431735
0.08606947531991188
0.020254964637776166
0.018898291569628148
0.1450512226659104
-0.034149598577509516
0.2545611671432156
0.03869464958774424
0.07461805411160922
0.03111714585054773
-0.03134278703038307
-0.04758522631833978
0.22577138369718452
0.13617745064247705
0.17366046145727626
0.14390029239011426
0.11116455138322334
0.2539878932228109
0.21095594688520009
0.2610478563651292
0.08334618079240178
0.04064881192301043
0.15824821239825543
0.11522942971470237
0.22603326323905384
0.21262205289311742
0.01649299481305773
0.06160169690180693
0.028437917609404326
0.11508148399136534
0.16959492081219546
0.0713579842878996
0.13579657601471704
0.1864789027803698
0.12806110853095592
0.18975794099750776
-0.026407209852476923
0.18030133831506392
0.06848121336444127
0.09309299093096055
0.08088119812329439
0.09544025130198232
0.32932937373760124
0.04205807670817043
0.22119982469005067
0.1310430789602781
0.17656645702032425
0.12074097581934937
0.11645879603420213
0.06166615250538482
0.18712286416708623
0.18260021049194386
0.07468282061865746
0.19609232690258996
0.06508408276043104
0.03722867865338097
0.017689232159758705
-0.05861183544437
0.0828686048162616
0.07050501730331457
0.24455000593402876
0.237730910255413
0.05463390705299237
-0.07072392502912286
0.07107427109756304
0.07874739312954179
0.14815845465409594
0.13587243482700573
0.03774352026095878
0.13569503655764098
0.10548328559613247
0.14800364395354063
0.13324269805757102
0.2190839985051158
0.023192717704493652
0.09032721368849315
0.0584856446122921
0.10799032556875762
-0.023440072911471155
0.030996873523028594
-0.03510733412421639
-0.02849512903886177
0.00862716664913328
0.002488153459292694
0.08569890822050026
-0.03746951311995783
-0.045324782728368124
0.12297519801129746
0.06893895806067091
-0.012407626584690662
0.10436812757770568
-0.019138801059234628
-0.030933819040425067
0.01755049837832507
0.08804905525503008
0.10940350218868228
-0.061747490242467215
-0.01849639106845892
-0.13149446212439642
0.06528037583419788
0.016176358540777112
-0.05077490757649952
0.1284819138111168
-0.005257383674739546
0.13921611097794337
-0.05455067504241789
0.06708018538766916
0.004449408888810943
0.036069387689736485
0.24100158739778843
0.11785156628040533
0.0367038238167633
-0.12471945913924323
0.09353189237023726
-0.0015588818178800673
-0.07981295352298168
-0.03876002718899735
0.1246526051971087
0.03436824490038401
0.032016881564614325
0.13801091199766083
0.018734575301787716
0.06863084552426728
0.0415594608382789
0.16715896863910212
0.21455268562369312
0.08814762326332544
-0.1676573090147441
-0.0008687204909709756
-0.04444313074340927
0.1803078763302818
0.18523507943007023
0.10064620808508201
0.2133866951362587
0.089776473938559
0.016871915132554927
-0.07619165372047979
-0.05770926417779519
-0.018566609821420034
0.05055219924005602
0.005695034140744515
0.15194779159217808
0.005788628041143565
0.007316410192306916
0.15147717674008387
0.06742284592048609
-0.07278405284650998
0.11908222914945657
-0.0041977564948009125
-0.15359943950076754
0.14214889499505887
1.0433540077108006
-0.1391977766596119
-0.18013021384007055
-0.018550096985153752
-0.09770390012113231
-0.11806775413819623
0.29002444548214473
0.10715325706160861
0.07895065970462033
0.29651298796853676
0.20875355317901625
0.21344435143949153
0.36062701462450164
0.35667317760065864
0.3248965324768871
0.3191024488437988
0.3254832014456067
0.15192801514522863
0.02837968682464523
0.0191481629053211
0.014304062907832177
-0.10570574726089421
0.07722405252501603
0.05565536954564768
-0.025442421283337385
0.0915569318261607
0.10984894008836596
0.10536256722145974
0.07515688696671978
0.006322491088264218
-0.05101181685808866
0.18859102396664915
-0.05677791031647574
0.16360202220577783
-0.015599959820042465
-0.015399286968393253
-0.13349994171629878
-0.030100579470137334
-0.016860712598112733
0.12245894185334166
-0.07080944849212431
0.04743992513704373
-0.06636452802895088
-0.12578826949578994
-0.07316794897355805
-0.06400419156611042
0.031852070931380594
0.04511968442146576
0.028625114656643153
-0.02387353778108284
0.16840784166298867
-0.05203989965682363
0.02909156427967175
0.03471518049412665
-0.08306285873849321
0.0893239213006171
-0.09742951590976177
0.09684919021708817
-0.03738165942209806
0.0846340828795402
-0.03748575191982432
0.1363227912788371
-0.05402010013686372
-0.012525623321645713
-0.18587852123982604
-0.009523937379122292
0.05094086182794668
-0.01703369766978201
0.06952670846817877
-0.05381800942318615
-0.025349846174309795
-0.3204625604685873
-0.10706652652604265
-0.11070080305630965
-0.039293988913688085
-0.058120268595786694
-0.027574039941604563
-0.10585252606221449
0.044949605854125566
-0.10832002273676541
-0.1336499115243872
0.02368461379650969
-0.005176010121200078
-0.04541891026821167
-0.08956034747235735
-0.021748224081913903
0.0069682084806144025
0.0370231577050439
-0.02342312963807914
0.17389363823963033
-0.04334911648800524
-0.05055876519448937
0.04224473243892049
-0.03609788975657735
-0.14657476905115854
-0.12568418300592976
-0.11404241073580726
0.06127600935900836
0.05110339368630419
0.09741058449771511
0.021208306735402246
-0.18033886696597343
-0.10622555353209909
0.04123165331108951
0.0598351279021211
-0.1250699089480366
0.00509891813694369
-0.05804607272639305
-0.049056182691197346
-0.1136128190593227
-0.1028080210996934
-0.03684252550986484
-0.047087616061749354
-0.20895125961335942
-0.007674236555834817
0.07643245055054942
0.005225698796830144
0.03943324784863706
-0.013040831382017858
0.1590393013585895
-0.009329716415486907
-0.19039610006714458
-0.10261064680500043
-0.11223897451243746
0.05726563494839877
0.04029404407487643
-0.03008033473450389
-0.06400044952196074
-0.028873858231703995
-0.07415320019397281
-0.13154663652785475
0.007388017666888826
-0.014500877329917748
-0.0034360159773449556
-0.06311505385724811
-0.06997277670632522
0.013598552758358834
-0.000888164434364784
0.07175404569150634
0.07241558275510784
-0.06284926468964519
0.02616994356621183
-0.05733622800592054
-0.1379104516641123
0.060922934637308246
-0.1753549331860408
0.09610136120816026
-0.145602108875298
-0.01874782280887053
-0.17001059856498177
-0.18053014546380836
-0.02656514213648489
-0.08590301777128187
-0.16558569302659912
-0.1780637270232871
-0.05701817512467538
-0.130734669932104
-0.08093446032725483
0.11311225594422089
0.10733198982343847
-0.04016337538600493
0.016336946029568797
0.028142107931357838
-0.10138700080229077
-0.04967212964750966
-0.1684129566559614
0.04292672186139663
0.01801849332453133
-0.01300281086121887
-0.09461882724184159
-0.18927886394972537
0.02052675928168053
0.05804369507673868
-0.15454754736487103
-0.14836565326812695
-0.12459984569554888
-0.15289930162211457
-0.21687811815605024
-0.09226950845087752
-0.014633665632639542
-0.03665455598301434
-0.14493049161161725
0.019054286851398747
0.12511272768174608
-0.024139698723849246
-0.017749055572387026
0.01652394375898472
0.06410669914460825
0.13025557859626063
-0.13796282324887216
0.0729951230010644
-0.07318649244809783
-0.13317997707757312
-0.24138021632029472
-0.027718622826206532
-0.11197364678744545
-0.14043446491295247
-0.06617234851956631
-0.07158724385274445
-0.07913857441064304
-0.10662879161648638
0.020119868302670943
-0.11555352904355223
-0.04838663439360555
-0.06016960895204424
0.07477338006408693
-0.05653544437472631
0.010043155310595839
-0.14616363762341858
0.05458770329407375
0.013208966870914107
-0.12583858738114317
0.0010124788417246178
-0.1253847757453252
-0.1356629301417201
-0.07329733361722957
-0.04048312207802978
-0.03959602097572045
0.0960030945580802
-0.0044995467407601825
-0.18572580755357349
-0.06505094118960424
-0.16671536577240348
-0.030757292460371392
-0.10481742214027726
-0.07738157967797556
-0.052962620923227045
0.01419132085602881
-0.058465928490976704
0.08684358931262798
-0.09389785934537329
-0.07316237955680079
-0.09334860013270908
-0.030379927922166455
-0.15222324353782335
-0.20104217105996025
-0.11302268784146466
-0.1951342478899159
-0.040330947998283545
0.016441671916908013
-0.02774378516237684
-0.14678147940089015
-0.12010361001651959
-0.07253324057199083
0.03447866501346464
-0.27438219885043486
-0.19907291112673514
-0.06438486652178321
-0.033743958178225494
-0.25233292306856614
-0.1720202276380257
0.05639705828859934
-0.11331162862964898
-0.03193651252312784
-0.15110579771224253
0.04786183920695122
-0.09743989666464584
-0.21577129948632584
-0.08455012455463314
-0.05692637492481255
-0.19279189870925864
0.01729510958691026
-0.005110277472967412
-0.09169955579361372
-0.07539100545818041
-0.05277130876759674
-0.2954275543894279
-0.22107530835700498
0.12373139577860554
-0.21593994386787188
0.49225788009656946
0.1252844450341604
-0.09352589406519099
-0.24432118815133463
-0.03229197074506296
-0.1400120060460982
0.11131111447338096
0.011254811912393248
-0.27261751284465646
-0.22444948553861457
-0.7618163118706123
0.0337022673430689
0.12755416801220068
0.08845701044175946
-0.16202672708021026
0.18813798347220945
-0.31306869514364327
0.24606006858868026
-0.39996462197159255
-0.1910578840545952
0.10779828059026625
0.06076850982614068
-0.15442867144647202
0.3461203642318952
0.8166817867862526
-0.29798760604053215
-0.36494277734792646
0.024932790870666355
0.03886751199434571
0.22007759556891898
0.2149143953560738
0.24538210766743274
0.03435501291818517
0.10340791346053149
-0.3917942408253975
0.5952556208705772
-0.03820959768236043
0.35168805800911856
0.04764157897412738
0.4579386608574659
0.004600891888334097
-0.10474975901168929
-0.2815268864341497
0.2814093223066374
-0.09414251759390779
-0.2004945088330109
-0.2563733043431792
-0.48248284213191894
0.29853285973926214
0.06882221628860075
0.09163850403601087
0.03263575333257021
-0.6019241692776378
0.002983158578652473
0.3719193956993402
-0.3978556018083317
-0.05203939776701355
-0.11249285395920654
-0.049081278375492685
0.13541463839154821
-0.21999015864694876
0.07576595174205285
-0.22310510346591894
-0.30803713178280556
0.8585356045529184
0.2723485933523602
0.149099209190534
-0.16053033222855062
-0.7530957908295747
0.026585462259339998
-0.10347936984902675
-0.35072394843990673
-0.7875782044938963
0.06040346486105555
-0.06600802771003426
-0.14344288398046576
0.10136480989474689
0.03619310248956015
-0.54171913074515
-0.2108064026982634
-0.37063558017685994
-0.3529342813830693
0.39371907710334086
0.11868265804231538
-0.28512443226625295
-0.25988538489555774
0.06765475344593921
-0.310109634316739
-0.25521910809278947
0.23191392833425334
-0.8580445019731122
-0.4672451515164428
0.14696221221036396
-0.666477195307905
-0.509292724604217
-0.2951154981562468
-0.21522339117746442
-0.18504198305988004
-0.1315410032386969
-0.18113326691599985
-0.22944112203883393
-0.4069841146528117
0.20115562673261111
-0.4510022630099769
-0.35145666180175084
0.08016704892717733
-0.25445964226410966
-0.09748242463763909
-0.077782820332635
-0.33448818557738447
-0.34215874129849694
0.11691599318147126
-0.3195193970823833
0.028393147895176815
-0.10996797464511063
0.0016370183231397828
-0.02860553638402387
0.5767637629734474
0.16296543478280925
0.1951339364940664
0.09975319438391073
-0.21796417082329306
0.2795381101629446
-0.10794131153413943
0.17284095900109075
0.03877590168917613
-0.6249440914905049
-0.42918829504746925
0.5298730915600592
-0.4565608109002529
-0.36630016174714813
-0.19602661689663708
-0.4056658591550769
0.2943220526171699
-0.05244175289636951
-0.1750023853885238
-0.11803646371102254
-0.34529824527247477
0.5737804300794198
0.10861360108601953
-0.6067827071614844
0.012569568682648039
-0.06243512179105121
-0.32755790036386345
-0.08839882226257523
-0.0868727834184455
-0.23933830634629125
-0.20410100713904095
-0.06883450417785283
-0.024465609660938623
-0.1997431182475925
-0.20848850418435846
-0.41923635359576145
0.31141171619827995
0.4197918910495001
0.2150666106298959
-0.24828767498353826
-0.9549992517323891
0.26236265655155905
-0.2678916197387165
0.15194600956096543
-0.10997998727395779
-0.040721004738615355
0.2918234449208844
-0.2511225672057045
-0.20634407112098582
0.41157979099177217
0.18299621568997676
-0.3368726304221248
0.09767738373167259
0.03204728296768539
-0.2394908574106853
0.1235071587701565
0.004754841335013867
-0.5566915604651972
-0.38251645678499424
-0.18398989465256338
-0.674308772636728
0.027451531804453894
-0.0999845116596347
0.17770546791654662
-0.16315453179327546
-0.5123138321180425
-0.2862023746238095
0.29197298216075934
-0.0030294397527113395
-0.35667648682889447
-0.35138341430987713
-0.5969923324245094
0.054566110548401325
0.4146239402673716
-0.23492542925436666
-0.3632368695146987
-0.6862803488773058
-0.17352834019723953
0.015211222714330971
0.42912948719116883
-0.38576263744576433
-0.033218336587143876
-0.13123579595253296
0.16543032587343975
-0.4536394897171345
-0.27827881627252793
-0.09853120622364975
-0.053464563998558534
0.40547652253971417
-0.4011566523221792
-0.2747578972248545
0.06084422527462735
-0.0928015448126763
-0.1564981565409702
-0.1659837596642194
0.5109261224656718
0.32399630801257984
-0.059586752571266874
-0.16235725572985246
-0.06840228397375436
-0.3739790977935407
0.40854280700989687
-0.20566799827132679
-0.09498793803875719
-0.07300991928456778
-0.16193510934935215
0.03888166543957089
-0.1785020364010355
1.1957156333033188
-0.004033915496665763
-0.27061607517023023
-0.1921225235256907
-0.13067457712896402
0.40060653670133883
0.4620422702464429
0.0796886140640474
-0.1491896899807089
-0.06690548524814627
0.2917776359989161
0.4834127044466608
0.600159921890646
0.5711171303836007
0.42930184271403093
0.1240271584912255
0.4159624060268631
0.30674072784613476
0.13186717944568532
0.4509842983237574
0.18646393206328343
0.1649942395632223
-0.5746270185468765
0.2645905703020805
-0.16581740727105432
-0.39794378518001083
0.03102164557119025
-0.37824126239580574
0.4629110991920527
-0.7369144185716441
-0.2435350595373471
0.01286498161749916
-0.31742881070375867
0.09301053715498733
-0.40222329078791086
0.005578512942253113
-0.0651589722943233
0.2432760169800578
-0.2789274223347671
0.0884448361406609
-0.28341107662797405
0.26233291284798843
-0.15731627146867933
-0.17068862296157514
0.08702214836567712
-0.19570963413114142
0.14902434976453474
-0.1285688700463789
-0.01190379679985451
-0.6111981682847821
0.6131008517691383
0.49340727660124994
-0.006702892861387658
-0.18157890689592515
0.10561202252680016
-0.1954841147307132
0.204012463166333
-0.5358513356708419
0.06944354429437828
-0.16730660458805513
-0.25415660951653724
-0.5896344252235847
-0.3821509873722402
0.02027590331576701
0.1521117706292549
-0.31554168952652084
-0.20277968288603002
0.3933356504007054
0.173364569895888
-0.13198018260976538
0.08450266975834103
-0.010201508226009095
0.5271627470018666
-0.12742894786025605
-0.1646931874291293
0.32869108352802096
-0.09371178313503135
0.39443296900260555
0.19621668920817958
-0.009092862886593875
-0.1352352856364272
0.33732481098292344
-0.37212326701641024
0.10373300266733057
-0.29285371596132354
-0.05621488122518265
0.12332485865137566
0.15021948835913068
-0.06820164776761034
-0.018209569462326894
0.16624187269467217
0.04867563307672537
0.365502390673228
0.3018401412560352
0.1230537448359977
-0.46217803132155
0.16866393184089848
0.15540267011311582
-0.1080697533319192
0.099509339554294
0.22264780158615355
0.010717193366670874
0.1897223475137876
0.05075371580004267
0.08642306071230421
0.07678967612698145
-0.07994005723666942
0.11640279243015295
0.0419888117041857
0.27509410930891937
-0.06510997264248446
0.2433800023924952
0.2673171302533926
-0.0685697725219016
-0.38877552753463634
0.14580889801550534
-0.4486539326541178
-0.08047365446992064
0.178941278507379
-0.04162114275233053
0.4157136170663044
0.327114288864443
0.041058483605641634
0.2017790566515399
0.06135583073073536
-0.1144136005087164
-0.06651411836249603
-0.016448312209856084
-0.3272820958659169
0.16160102138250665
0.025508150297267718
0.367740221123774
0.25527534970311844
0.2933039272136581
-0.24662399417963782
-0.21810192782871546
0.3274014689840352
0.17562857717497535
0.04557012899330553
0.12476990620723814
-0.2499130537188632
-0.13205488265198778
0.17062698934116172
0.7849313505628686
-0.13806361942803339
0.060694964552881384
-0.031943153993929066
0.1534825039488364
-0.14565839054590393
0.5869462652205214
0.059040725040891265
0.23281656437016726
-0.1187228942701897
-0.5138752726075788
-0.44647026964001435
0.3818520663595762
0.48856162918824514
0.003882877761068229
0.3008427720885317
0.2862276143752685
0.0795369728679792
0.42006672938528705
-0.43058940824055886
0.4916169787786423
0.5304766447135643
0.06597436969097314
0.7734925629847204
-0.4232258058567958
-0.4384063875090391
-0.3975964775324997
0.1414105541946994
-0.015858680646149814
-0.16289470611438817
0.37240826294431806
0.19881718379987168
-0.11823210837099402
0.057971084727774236
0.2749304173189566
-0.1394321200408667
0.30985069722125375
0.04703161323704631
-0.019020804301132968
-0.0013261349179054804
0.30445772540378946
-0.2155768449143624
-0.27389817715740417
-0.290402196228584
0.17049448425086292
0.05542290429170671
-0.46457980105176133
-0.034364279675464016
0.31952339719108314
0.21968250968277442
-0.15737107837593944
0.8787865772901019
-0.20041458260323447
0.4277255508966726
0.2576296135467479
0.7705604680986055
0.39653329749584026
0.03610467476458376
-0.2798833264584596
0.6777176161984084
0.3072484418538412
0.13834120436208577
0.6540774869853117
0.5971325333455875
-0.2512202018348366
-0.09051572295107951
-0.3101042951642118
0.23310026678996637
-0.026552091432721643
-0.06478448239348228
-0.13418037838780916
-0.001803936018081681
-0.18466276358063863
0.48229403121933445
-0.049826980812205386
-0.039288688202656574
0.1284168556078446
0.808377563105873
-0.0809187477922646
0.4819952304682538
0.3638917806922255
0.15369716115518856
0.3895301005053519
0.22479824791188915
0.6255335535084844
-0.1308966229147002
0.3418637827761257
0.11624017509546541
-0.07288318617014372
-0.25122115740828027
0.09789077607541394
0.22402892201188662
-0.00574562005325055
0.11544292365224346
0.651902281700962
0.26264908960174627
0.14116120586763803
0.15097465793078674
0.1440995346628614
-0.26002396389020177
0.2408095376482604
-0.2043302562598885
-0.21100909802322068
-0.019565546476764797
0.8463265906548538
0.19600725145801123
-0.22995902209418578
-0.16619004253616348
-0.2574795893277124
0.07024839726172516
-0.12944346518060312
0.30027984843228894
-0.3274746449289876
0.39341648756191094
0.5455066279204815
-0.11044156097318641
-0.20040113397326365
-0.2496341487200564
-0.3522033042405105
-0.17080196145953605
0.3423858000150376
0.22292430898773397
0.5689989017627258
0.1092833529931173
-0.2639592945237756
-0.1049565102943173
-0.18020742785294186
0.06277059042948883
0.300660202070833
0.11042782591472472
0.04141143996481208
0.08489852417605587
0.016041541740194204
0.03781151785646766
0.08500544967243095
0.011970123243199168
0.1290102373323212
0.0359872941426122
0.1033807737449821
0.046413415005893424
-0.030337702318476198
0.028519863591253233
0.17560670675825518
0.1722520934941099
0.26771476173709446
0.16819548590833847
-0.03783932254096706
0.14984865645696327
0.07377628384443141
0.09599175353848083
0.1300404213693248
0.16029658584996592
0.06793956945690788
0.003661490330980427
0.15440149598627956
0.08810649758453716
0.03342634301795329
0.21033444350274133
0.037357094203998145
0.042733079207349416
0.07626874784466525
0.2272492450402746
0.11621096498144515
0.16666040311280192
0.22740434173085056
0.0017483412729681624
0.25757614944361223
0.11823051362840042
0.17959157880148802
-0.014394829629942027
0.22621929082642842
0.01765073040019871
0.12974169582103398
0.13224719305397065
0.15983667107532917
0.0632621007131261
0.1558889035222558
0.21655844539633676
0.14788976685950816
0.06921921284442156
0.21395329843415473
0.11907181220859453
0.17804386668080147
0.22416096531388105
-0.040603266319730255
0.0965942249228243
0.11933592686570746
0.06714706464585568
0.07652288952316277
0.07383368148130007
0.1073802122402222
0.10071268689273061
0.15509164429185812
0.08981444677313319
-0.08192365784405824
0.19100334539577168
-0.05480216090365589
0.046656447926725485
0.13400341709410268
0.043261281383041354
0.032783372122138235
0.06612627147589398
0.05181274470220131
0.004757552071789822
0.15446938189338205
0.03650353747838758
0.12036043137499894
0.22353739185209798
0.026330033440073147
0.16493527756519574
0.027495974700573425
0.02249983195857215
0.13169245817099978
0.08804954053793272
0.2119049265807864
0.007589957162533037
0.02300742290805402
-0.014737076285640971
-0.06585336235832703
0.17324359371594272
0.0789490400282856
-0.01170073244721409
0.19283115399440387
0.062224608344610494
0.18174593877040407
0.009970983030837072
0.33010385295811284
0.12635528143380786
-0.08031616114957352
0.1525309127415341
0.10117977957784198
0.0374167288437597
0.10893907058552897
0.13542344004366652
0.17255615515246486
0.14139921474703185
-0.028974532083149124
0.010459029527688221
0.08439239660359402
0.2697164197177856
0.11593260631914402
0.08950057714644495
0.09404488987373696
-0.03266425609000015
0.08833383879757813
0.10016971209064261
-0.05311256885170251
0.11653226651585788
0.13566191626660834
-0.003004034830174543
0.11547368392047602
0.16038700978451098
0.0771631512828297
0.03763485155842188
0.0165101160286813
0.08111246515023846
0.028946948931592956
0.18161149814290672
-0.020619652805607916
0.10712526418069511
0.04975207496112115
0.03025373209707992
0.09474076836104658
0.06422707182331501
0.06253749868227365
0.06922800010187782
0.15313324903465264
0.1381791375061152
0.15739542834602988
-0.11449691190864059
0.22358083551236965
0.1101199723595737
0.09298990850799739
0.1242274594860655
-0.03965381533668556
0.22123818722084182
0.18170478172187732
-0.0769590524644205
0.24238877483430232
-0.05198051346284287
0.00915842970078909
0.04574745295665457
0.03389635851030956
0.05925928197568189
0.11103849241011873
0.10664094967587018
0.09448845643264796
-0.05587890788984659
0.12124166542569806
0.08693398107377479
0.1019424111118282
-0.03137407089464793
0.05353509219861877
-0.039627495289864464
0.2869645299313673
-0.009724737533190725
0.14299863922326436
0.07722961924477664
0.008650060120543306
0.06137729109174056
0.12155596519326785
0.03911408741206418
0.05320554773550814
0.1498422275733888
-0.013235547485055954
0.09238489319714248
0.13165937317398935
-0.04757152431959659
0.0922656486843268
0.13698585792676876
0.07460181287736713
0.07358810078303418
0.09125997989429689
-0.00732176782238346
0.0027622896968823585
-0.14711623673095198
0.15304197647152268
-0.007866027824982205
0.23475382800951689
0.09250712005849426
0.17312626127683553
-0.14323321377118617
-0.14275154720522162
1.0940254171464139
-0.3942384062383916
-0.032997663013938416
-0.1247063298417639
0.028154178882841115
-0.09971469526081979
0.2472449694723949
0.39180985517849987
0.2952136502047845
0.23092581575552878
0.2921414207239614
0.2259917839846737
0.2502924294449511
0.3747678849541486
0.40434463822262723
0.2171337661947114
0.21556044714759084
0.29459898109891286
0.06766044898938016
0.026485774952384536
-0.03326439725482813
0.1533280708798851
0.03435415106970793
0.16643998005108615
0.01806621141513317
-0.0493134650939752
-0.0424212636502972
0.1814005799777201
0.18409716982862256
0.07167431954164111
0.1254091594991948
0.07243084914678555
-0.16162314403820954
-0.03305550688948245
0.05972913877248061
-0.028989062313575946
0.14184254779214434
0.10100091919671081
-0.05618998772435382
0.08465853311347576
0.12465077443170783
0.06798413066709905
0.06741257329831352
0.02519048068709687
0.008304836629152768
-0.02464975087346414
-0.11755497789059624
0.12103965579291354
-0.06645181737768567
0.008204245070978125
0.24943472203994815
0.1129732333992662
0.04588393022712165
0.09703446912585849
0.09604867353422804
0.13759060474084328
0.046295295640389394
0.03917641653975651
-0.1201077184748709
0.20779850190299354
0.14612434095774923
-0.0508084183960658
0.035074894737132115
-0.06161785955601326
-0.036390412405551256
-0.2633197552226802
0.017702303957455933
0.07493579363410628
-0.10194159418894883
0.008826847762325793
-0.1019248327783782
0.044744512717042356
-0.0921244436491588
-0.004145711242691743
-7.984491415667823e-05
0.07721425035558456
-0.08072650406190308
0.004145703592973253
-0.09709947477481491
0.14569972256559416
-0.11508531095646747
0.08415087872552426
-0.05008809848433951
-0.11347091979819852
0.03818479806015393
0.04353665919746764
-0.12091290148707765
0.010272075781627641
-0.10106633311427463
-0.019444303659742534
0.019170952799162467
0.14182633510312712
0.10254802865248824
0.044302335835413015
0.1327625888117027
0.12934657790831014
-0.09441179050308246
0.23406944927524412
0.002587652821199218
0.0509224825582888
-0.1166751996501504
0.1651857156864315
-0.04945802769516827
0.0237654432791963
0.023956443684018478
-0.03660984807603188
-0.16531978537862008
-0.01584222109456142
-0.10478969822339046
0.1471117455739801
0.016700450218172794
-0.033341160486976745
-0.0015913837674109907
0.04588778891013101
-0.12608082842877888
0.002753820827783573
0.06116588538436772
0.08499055548737797
-0.05107059285350514
-0.07684221365294999
-0.02562170991393746
-0.08923831807108491
0.16713904486423276
-0.1599040298383851
-0.03280078231758475
-0.11493337489349545
0.08220052859268712
-0.030830523408736002
-0.08281994791746304
-0.15808776384883738
0.00305302979388844
0.05292176898264793
-0.007817310011342882
0.007849599222067356
-0.050254000817957056
0.08331637375856715
0.180318241289859
0.09824993608207157
-0.13763189857508987
-0.0411725604001872
-0.021797837366211985
-0.10008896077661665
-0.04798530529716929
-0.09135576355760039
-0.03590845886683811
-0.08339335171481263
-0.10770267098167566
-0.0302044936698694
-0.028516588155068533
-0.11967983768724064
0.01004915752810849
-0.07038454567478633
-0.16858583769874286
-0.17232312235980268
-0.03654407986760894
-0.02463515892019244
-0.08181977350393392
0.07961984870796268
-0.0376079329998815
-0.11568735491352017
0.0063603708984288285
-0.09211134529048606
-0.09551519682268789
-0.05111966783041745
-0.028148227391657718
-0.08504444761522786
-0.08059030968276044
-0.017756912234967615
-0.12923710251275164
-0.05208380918486889
0.02738583187649595
0.11697877265490475
-0.07598897095682665
-0.008966167465216043
0.024415918320203234
0.011974866293203455
0.08816416914194869
-0.07593580058830743
0.03298132311789886
-0.037884286453945974
-0.026792937416645547
-0.12407842986629601
-0.05277561615866572
0.06361891128510758
0.011266080870281837
-0.05311696511773067
-0.12242309611849943
-0.012622757954032442
-0.14608394568377425
-0.003350670800521975
-0.07022945318542613
0.01870529431420046
-0.10651876685518631
-0.030995000729540475
-0.012488440672916205
-0.12100260290985772
-0.03459131779194516
0.03884426842630471
-0.037328928695653366
-0.03542191453457677
-0.15092028298368584
0.029358278455349954
0.03404566948881186
0.045989823730900166
0.023365189468085606
0.0036229801773436585
-0.0481670352156939
0.03563648725882669
-0.15111206455301643
0.06278412630375325
-0.03682703839582025
-0.11513746494682092
-0.022835722392161542
-0.021696787936385006
-0.09071166523726651
-0.18100742345591914
-0.041406872032035955
-0.0007177406925242963
0.07527090056498721
-0.19895798475722692
-0.1312499381679253
0.027107547237127785
-0.07353866381208593
-0.14858936531915343
0.06372801062786462
-0.037037938010435534
-0.0074381827120165445
0.021144474008319078
-0.06868610030514563
-0.06653016334755371
0.008382423440284573
-0.25199161719881547
-0.049259120888154075
-0.09526991578115254
-0.05849655199143311
-0.15117767674654647
-0.03729103597192562
-0.07309266863511314
0.06692017326948785
0.10443253780271883
-0.05462689247627485
-0.06215451298612337
-0.0973831000425606
0.013826448140211181
-0.05170750362309765
-0.04192685398751603
0.027062338962098476
-0.07335178329570008
0.010942867695365746
-0.08835938771377214
-0.17388359491164074
-0.04534504433727773
-0.23624684034778323
-0.1563199816498349
-0.005090178075984567
0.022972373161284615
-0.17034750734819432
0.07470844581963393
-0.09548614477885904
-0.08211760499658019
-0.12006420338978227
-0.05639237280845394
-0.007377266214889863
0.05524044803254019
-0.06580889168815349
-0.044024330612501134
0.1387761064553448
-0.11515919639171071
0.06671240602419495
-0.10244550733100599
-0.26796699198729257
-0.20102360379182388
-0.3009222177993095
-0.20904253264154266
-0.10466459310330815
-0.26506253421515796
-0.08464831838652831
0.002982950675535903
-0.16707118281922692
-0.2374802010903212
-0.09395756924222227
0.06588729706176634
-0.14343410424705538
-0.2907420306586061
-0.09874482328577137
-0.0769436979268574
-0.2834414156764576
-0.07682866188883902
0.9897365768122447
-0.30182286623480825
-0.1864016899323316
-0.17384284742603145
-0.11600181934324565
-0.016251191166737185
0.03569966516546595
-0.0033036834699735895
0.007902014728375178
0.060264408460324645
0.10259467486391591
0.24506770820056364
0.18882712881028857
0.2735638154795571
0.04676103669265716
0.1607716256566935
0.07700904020575523
-0.02165080297630169
-0.014057131529740821
-0.09081122390479915
-0.1716117861250435
-0.1472089880823954
-0.1527570311890451
-0.20099514226684817
-0.07672172907909616
-0.09071562874373508
-0.09736386722402332
-0.14946071727566218
-0.0429802252147817
-0.17324937803896565
-0.11880957867483219
-0.09809447689338474
-0.056665866777624065
-0.17609281334135807
-0.23757816207424395
-0.051442284096313844
-0.07877718775969124
-0.14003363054921494
-0.09875115103394154
-0.17955528958375438
-0.03274053362734583
-0.13468224841297946
-0.16484538724546297
-0.08744976150603251
0.05268142119093967
-0.06867791203602557
0.00020291046962042647
-0.2344157624871674
-0.13594123369391042
-0.11231395486233853
-0.06147685340540366
-0.04122633998143411
-0.25731229618152773
-0.24102627222969603
-0.1905073697960214
-0.14539282966970327
-0.19890633054822562
-0.034869128734795
-0.21510510672712807
-0.16813941568990873
0.023798268494306732
-0.10630834483588944
-0.12250109632869696
-0.08245278995020282
-0.014413468472693966
0.18921373560003923
0.04575770736188664
-0.0945838578187452
-0.03973685796574394
0.009826321047292863
-0.0077647943056734225
0.00868172074168981
-0.08973393734029424
-0.059077447235994306
-0.09296456479904944
-0.224845050477383
0.05527943432482334
-0.07191237968943995
-0.14355045911419534
-0.1086235928646951
-0.012985225663469296
-0.10339652266746265
0.03449944237214164
-0.0814332043663637
-0.055136002364221684
-0.18867136542124952
-0.146386071468205
-0.023125705428342386
0.045693957935666496
-0.06919081315444581
-0.05326807967879902
-0.14244440426424732
-0.08855622164695208
-0.12271265299695808
-0.04028474475531507
-0.18458165295226972
-0.2959117223125538
-0.10958801153817525
-0.04315150731044107
-0.11638837995156714
-0.08098623179330806
-0.17503063441453873
-0.16396942225739353
-0.0346685214411644
-0.03998109485303685
-0.2401877144660447
-0.037396170905934105
0.0644493920559914
-0.21245108261870893
0.024215579437064677
-0.20702154588420252
-0.04254213216667176
-0.12195879940214928
0.012863556802069576
-0.03860283875762517
-0.27063662951135853
-0.11386128802822167
-0.162256978021504
-0.07688745135908095
-0.04718931828400045
-0.08277756982765162
-0.04122709797803329
-0.12321613197983508
-0.06041637178301151
-0.23338369298834158
-0.17821061151937045
-0.19867119365218716
0.047432750534313436
-0.11573566337630467
-0.14181385456655077
-0.1130594411770708
-0.15201437269575227
-0.26026496235284546
-0.012418112797114425
-0.2903436958549105
-0.2952646332282532
-0.22760585323313348
-0.11399892457179306
0.00877680939429927
0.006706401935196227
-0.04445749268452677
-0.1574688597225391
0.00468293332980857
0.03103718185859204
-0.08499075418758353
-0.08310905986171162
-0.22338516343486745
-0.07672956731039189
-0.0540838941719928
-0.18198547411792837
-0.0462744393836763
-0.08848244098953738
-0.27698819981231415
-0.1412857128116382
-0.2012553899745833
-0.17252493333288932
-0.047197626918884336
-0.12973810182811696
-0.021280364560883447
-0.11975909277719152
-0.06990016479069813
0.10828664984315578
-0.11247153161835412
-0.0038329666123054357
-0.013870784795248225
-0.18550328910587838
-0.020961962314090872
-0.07178783671550826
-0.043013827039955224
0.05294377227632975
-0.2178411660542839
-0.20646877916474587
0.02939267593098989
-0.04629456853327572
-0.14879938853730235
-0.034457012169085886
0.09209208291341793
0.06983631812453743
-0.14114875062703572
-0.0849866084673852
-0.16139964945887464
-0.048030163445769866
-0.10352507375552952
-0.05828384768406358
-0.13639462932934282
-0.03405337468752497
-0.033606296597283494
-0.13866023020395518
-0.17502871607862863
0.041399141837900874
-0.017212352560902998
-0.0905831349863858
0.009958075244061781
-0.14348357168723197
-0.09200537882386352
-0.037148467787963796
-0.060637726768821676
-0.18017061240179563
-0.010106102021296949
0.0683419016957635
-0.09742968365604958
0.05563639964964673
0.053005545624115274
-0.14600734258837822
-0.048081552257357295
-0.07607929170615679
-0.1459535761136088
-0.24852654261768964
-0.060994051265610104
0.029528036250052216
-0.13008109721226252
-0.13743198672406648
-0.07651243963144817
-0.09090632609531747
-0.017266380352838964
0.0576441238063967
-0.03501194492175824
-0.10917308551884528
0.06144070680262132
0.0634232639729921
0.04314307309327785
0.01286539106303014
-0.1576532212711036
-0.005672522292180925
-0.2542284493413613
-0.06823962580840226
0.011980106023832128
-0.03898399629284588
-0.09619947265441034
-0.03515296609627834
-0.044694366306191564
-0.17519168116100586
-0.039224184225400534
-0.21904467282779683
0.01693341001785352
-0.10247300295059687
-0.0614646292556939
-0.1288261381736488
-0.03203875680228483
0.07920196227418064
-0.024950638526629737
0.02147759288322454
-0.09399356841121782
-0.006752940271851263
-0.036874624738005866
0.10157232830979418
-0.09621884929077701
-0.12390761079819748
0.000386982370136027
-0.14013736811037933
0.013046816622431248
0.07467807116275252
-0.014954511921255607
0.0015110741771435857
-0.11172952571592953
0.10670424936655983
-0.0958783736884471
-0.09548139519437945
0.11108670270308568
-0.049343841042351094
-0.1782306926267619
0.10083641290839648
-0.07277135298852258
-0.0988251598233544
0.01016674234777062
-0.1567902514145429
-0.055668955730789255
-0.058395318307076415
-0.039663238413197424
-0.04347986818542972
-0.038601275095695296
0.0033956175856939726
0.07014690839029675
-0.39373268995120436
-0.008683392760453448
1.0498093712876677
-0.24993168622088968
-0.20492957728659067
0.039817798336462804
0.06910358687509574
0.06916484741688864
-0.04483493605128121
0.05833289492381363
0.19461642285913278
0.0881279603925626
0.1843533948508474
0.25438898624758594
0.26988853609838476
0.3202648055261426
0.20264025771734928
0.10866991009514705
0.2196333499960572
-0.019165246759093632
0.19169070342249295
-0.028117733460869546
-0.018802979053305295
-0.023750620437397004
0.009200822551293057
0.11452961745602953
0.09821391753674336
0.00031285831066071856
-0.007227566449241954
-0.02558763795778359
0.07711332699817687
-0.05024286145806544
-0.000843181954094975
-0.08341191258095837
-0.05104644588293298
0.13771614302728452
0.12118564706513263
0.005199959325248373
0.0792681963693537
-0.06239727313231431
0.08581384192046382
0.11897273649409694
0.12701071298179567
0.0045440397869738434
-0.08105075784650821
-0.006448928507138543
0.06695511877602985
0.0415330917921107
-0.0028003122053019665
-0.02806452674741633
0.21536375703812222
0.043450459852712064
-0.027965945871556628
-0.18758082579623805
-0.09665606612806005
0.07108230812726432
0.018625655815444418
0.12138802934109402
0.0699528879557024
-0.15266327396288
0.015236652986295956
-0.059941336705181335
0.05095184092133117
0.06545321205026268
0.009150398872062083
0.07967310011667174
-0.013845172250857497
-0.08152471141783862
-0.0951472483426673
-0.059266089792158146
-0.09601557630374473
0.14041947257592774
-0.14663072320631634
0.053763274663136164
0.07655372866295579
0.08024179279478813
-0.02736788782217413
-0.15504339797064606
-0.01851883063054752
0.08804611502900003
-0.0838875767191238
0.05502251238070423
-0.009320993598077067
0.24565359424845779
0.06022797466122852
-0.07546935888393004
-0.08372494135449506
0.140418464710733
0.0963707965422416
0.0058585776082835175
0.03437152609609607
-0.006923738393847426
-0.07825774289340129
-0.11622186110713831
0.23420138784707314
0.09612775340731994
0.06659120070475945
-0.014445350081566943
-0.012146027911985588
0.10457168381172205
0.022386560833813678
-0.09905238981350081
0.08081248329551632
-0.12456012624049616
-0.18219624066080412
-0.05470744215324564
-0.0337061149207878
0.11796305337674183
0.14033465015620636
0.01659556611561396
0.14751794596559464
0.2037742765431088
0.1341557072056065
0.12965561580288468
-0.004702673879347141
-0.0065821852738168485
0.1141178899532668
0.17821445187590407
0.006202740961116476
0.07509277562989321
0.08396716695681838
-0.06468969384793664
0.0618787618605082
-0.09591316286748222
0.07755575880695179
-0.011441646046010244
-0.022884663627146196
0.13498930578365934
0.05119672636848646
-0.06521841926936284
0.18764215798185477
0.027422104614403486
0.14446586334550796
0.03171658181129217
0.14613383378864758
-0.05032414537127147
0.21956002648359413
0.005982103756586865
-0.03067610457893919
0.14591683600065442
0.0280068667400191
-0.005277575100583624
-0.1068548327064057
-0.10181873245741062
0.016168329539932358
0.1693302158600741
0.05346896793903266
0.11299782713882114
0.03528469870005525
0.17370551064534606
0.07348249643633592
0.0390938405663047
0.11280477170421163
0.13897837177108907
0.13246570798270021
0.00618373820279812
-0.018630059131073268
0.05962469452382115
0.12632080878746688
0.06488191259231324
0.18748126597728573
0.00034343795648134057
0.33992822530348327
0.02099429112861357
0.1404832699687611
0.09461885568962168
0.10923111101201952
-0.059569255636009136
0.11873236327526678
-0.060146160685113
0.17712815949463287
0.04726934708455892
0.10720264719453985
0.16304643143004496
-0.13254385904087435
0.134737428381848
0.03870153754140767
0.1263902470547527
0.0452207045450697
0.02167854826215148
-0.1247013093225339
0.15920829018084598
0.05700904594690775
0.08501598269426872
0.18029529596519392
0.11369601237036864
0.2448878285943637
0.05965637411366401
0.16143499349903281
0.09941673509010286
0.09331689251547728
-0.020271322756258578
0.13848818283769748
0.2067954696760348
0.20741322592400174
0.0066145867260426205
-0.02927530324760788
0.11503882954154089
0.15491416613213527
0.11810983457687363
0.10486035651904241
0.007775600724534731
-0.016720722296834037
0.08472363512582883
0.11628024099486123
0.03478081982617097
0.09579065306140469
-0.006698775659110326
0.20596630347896572
0.2213755303115271
0.16902681826958224
0.16576485327461432
0.13304118710406138
0.13158477891890857
0.16363833473321698
0.10036163878905584
0.05767173697474483
0.09063806281255372
0.09911016973454344
-0.0807640453734424
0.07262802388954383
0.08067442985319943
-0.006804221176885436
0.06601768824262008
-0.006241138537888241
0.011561545839508067
0.08987014336355831
0.3092393031224534
0.003965043021002451
0.08789866323039236
0.19379699504568068
0.07858988302879175
0.08602213934225618
-0.034775732513623134
-0.056250432688228214
0.14468718880901915
0.2474157055839116
-0.024482706328918025
0.01852807251543198
0.10346942016525838
0.06786461589494137
-0.01179544664642318
0.05097934337530385
-0.0995551903383828
0.05746821945101827
0.0738648742283661
0.06399874592115101
0.19821097080480332
-0.06069362333339204
-0.00854105142626501
1.2117775627278091
0.08953923285546826
0.007399998836017307
0.04770696328006153
0.06993087493467803
0.06466886644937411
0.1677032975489925
0.20189175723001046
0.25407210747510467
0.4850121497576311
0.32916736793175166
0.479211401285103
0.46445468844327
0.4156573408326099
0.3046301070745869
0.45462744599722693
0.06358972315918349
0.48694377622039253
0.0865101556397075
-0.061595559685476586
0.3458747442669344
0.1470757053967407
0.16381714691884008
0.1401244942456222
0.05364257996949478
0.1719217055048865
-0.006021841873990491
0.10735166714239919
0.10392965312846168
0.1849742865954236
0.15288132542584784
0.14315909214560416
0.08220787545616828
0.1116149586435204
0.22552288520859598
0.07780668575027627
0.1667014494202756
-0.05899208377619275
0.17905012259087244
0.19208923791842722
0.0556489874379401
0.23644675342687665
0.015972110891969205
0.16096346834548517
-0.02225739863163105
0.2509302410159695
0.1371527216395905
0.16525884866053003
0.10840057688710925
0.19521178415377632
0.20610120106647128
0.03142641289181705
0.10754127591437516
0.1852810631006152
-0.03987329980420247
0.23457790402073403
-0.002911256737775536
0.17788904848456707
0.0009458916416407309
0.1103026598830752
0.14740686617937804
0.1255672687281542
0.30352906322195006
0.1966286112697952
0.1085300833026506
0.2812006634969203
0.11616676388337147
-0.06701160556745694
0.20118325413883942
0.18112318155054172
0.029860752970046672
0.21236071183744523
0.04471864199200953
0.06091440160932307
0.29893662330957443
0.05492389714007908
0.044560752970088026
-0.00016932167464815684
0.04763325512637881
-0.03182286981255397
0.047151761729791214
0.27014924134774443
0.22634440437748016
0.19852019469054216
0.1478495896411966
0.17974410160368431
0.0810438131101524
0.14654822626860203
0.15469762703834072
0.21118631769837248
0.021104304203018592
0.16061856786791304
0.265443918453702
0.1599627792931685
0.09021408965956745
0.029139896314011857
0.16550065674052755
0.03970655823516215
0.12984672563054062
0.09341458436360851
0.20042924262357115
0.2299537339510675
0.12457496506346873
0.007149286412499331
0.10533290188740768
0.06183132186003751
-0.027521406332974604
0.14829290128889377
0.0107943923248945
0.16218462029691355
0.1652668434014978
0.06666995962810608
0.02244696670214083
0.05408659232337973
0.17981335373849408
0.10213104828226154
0.11455675796201227
0.24531847547207725
0.0566653509721481
0.08115641593306266
0.20876604345017707
0.030805633998299192
0.14199068525226155
0.12840466057220767
0.11041836610683128
-0.07387505612083695
0.07854542421176955
0.002700804346402741
0.06284438231831219
-0.07400630956743787
0.12828732510446017
0.13054899399402325
0.1536284798487176
0.12079119622809559
0.04781644486784477
0.1361647400921518
0.06278945553951229
0.039860883733759296
0.0403784882159019
0.12853663334362578
0.2286108592899877
0.18742053236168998
0.07764433156135682
-0.047385844306121166
0.08894971808181983
-0.02661499618028157
0.20815407698604682
0.00776624257652718
0.08282579931432252
0.06195405944538472
0.11367562485676466
0.0766647084042962
0.09510148084164974
-0.05408460657395829
0.06455971904749574
0.2019460870542751
0.21497163108809747
0.09472999369245662
-0.09135966779825903
0.16340009541893735
0.1789343961236593
-0.06245846775649394
0.07953093323516211
-0.10630460470867045
0.020392733281605707
0.19567898662276212
0.1315080857595805
0.1519926874055494
0.04456303096758464
0.04129261696797888
0.04866705176612924
0.0704092199097362
0.07995446741489066
0.07188910774175288
-0.04997986918910556
0.06034675212480447
-0.018819420448387233
0.015546391478361156
-0.13956830082717042
0.052119115828206226
0.013941187274303019
0.1402882149514127
0.023941734867672343
0.06896688833207637
0.039684360307538066
-0.028063251806566325
0.0612525938127471
0.029785140223914375
-0.13882552680271365
0.030560729805664905
0.1392138061397969
-0.0005755187152676894
0.02613971354016901
0.11967350834719717
0.13712535987781924
-0.09381002302965852
0.04666593726278991
0.1175808691906852
-0.013165702409373294
0.021387252116042116
0.15624072379611925
-0.08307840442075892
0.16669538822702187
0.24296162303506127
0.06458533045361892
0.10689432359853
0.20088143168975092
-0.006236240782471175
-0.09384735923827256
-0.03407895438581869
0.03687963555306861
0.09118678896662719
0.10632542564296228
0.11639912859357421
0.003234288265417065
0.020542975944943188
0.11797416649751055
0.10836784957271545
-0.013954775097938577
0.15591513847839245
0.04552973890645674
0.11093260292222612
0.11543087777643882
0.000568387864852575
0.09688631309008515
0.05555978754615194
-0.17095441741982595
0.04294444192532786
0.21522956804543125
0.040249798247845955
-0.07163343372675554
-0.10927893117660145
-0.005978486746941514
0.1910560694703764
0.1371665893394142
0.16662661946367682
-0.07628188827797608
0.10986329852856792
-0.05584080434157594
0.0504659633125224
0.04009927518836144
0.024067039991373267
0.13228322129886155
-0.062274711367268254
0.01500032619929194
0.05176883866834481
0.13261534885803578
0.02191337300957763
0.04323873263849172
0.9936034308810301
0.03562732776035413
-0.06924034304876776
0.04465981444408662
0.03688932781825327
0.15519863605155207
0.05695083647761019
0.17414148158472995
0.2358953399587069
0.049700161191653935
0.34455270714111275
0.336450067142775
0.3316101772369739
0.3652129454444626
0.2680453724775672
0.02670055121547965
0.10550390747620145
0.0664469268874068
0.024922787083235212
0.08670730562405989
-0.022983542806979666
0.00028875315100137904
0.016944183255458305
0.014388883333887735
-0.04727958002782155
-0.041655530854138076
0.06112739626432609
0.17932926576624406
-0.04820089287079917
0.02465801182134111
0.07354674569621304
-0.08427129901407548
0.15256867082590275
0.12899902279298084
-0.060027641551823385
0.1354481785480254
-0.1373979459761107
-0.09074582359858156
-0.05501061120787028
-0.0031273169916948684
0.14148713270853505
-0.07386755428738152
0.13091184016282378
0.01459993811075054
0.12773220478574687
0.007756813362515053
0.068316654760559
0.084156936523511
-0.06012469188391624
-0.14620206181858778
-0.04878700162893003
-0.10342106049380187
-0.03700321940827022
0.060566523143094686
-0.1852522469791097
0.00021161751579370364
0.0991764223795201
0.26269988233764335
0.09131492578903479
0.13067714981717748
-0.1486977349093852
0.12780197609318117
0.1129161969431492
-0.06322682492209414
-0.17959607605002006
-0.06366850862996645
-0.029228632127589426
-0.08378393252913703
0.00489155983454714
-0.02007214571746438
-0.004184917300621593
-0.05677129870580157
0.0051899076531394875
-0.012627371814057107
0.016995410265734572
-0.02441584758663236
-0.04380306352693775
0.08645053604260702
0.058961588828296885
-0.028039434140288068
-0.045692488412502716
0.15292850065909955
0.10140719412226634
-0.169729306080667
-0.09044216111224963
-0.0839794856402962
-0.15946185464908885
-0.06698329822606852
-0.020553565890225917
0.04921447346467593
-0.055107218724478706
-0.021082447537112678
-0.084393691182819
0.17302854757143657
-0.2246208005337911
-0.08705789885850307
-0.08096954613186114
-0.13610370390746857
-0.14987319748991146
0.012993106343916545
0.07530880165982612
0.10668496121103047
-0.15970457057067755
-0.1126355910370474
-0.11457562186084386
-0.023179776981444883
-0.18736381398333507
0.007146411378608171
0.02809360518072554
-0.06045441772579778
-0.027018295360952075
0.007857281071660255
-0.16089720739429486
-0.04992675683670814
0.053907360233405005
0.01177098790168353
0.054522424517861934
0.15096011698975387
0.03405638279984291
-0.10365490098173039
-0.026345086671996986
-0.010391008664614322
-0.06523823899156775
-0.09898768215239409
-0.037060261269701036
-0.21449396942223564
-0.10428090632222037
0.01745340286338598
-0.12447992023614288
-0.1304758447749809
-0.1583062829211508
-0.005655611436921566
-0.016975212296596952
0.06936153971749127
-0.0068985499658206564
-0.06611299915729768
0.047689589058380576
-0.1287478582541847
-0.048436353373958844
-0.23109334246814212
-0.02795469823932164
-0.12818496546509167
-0.03756974295199184
-0.039216274378101094
-0.002043000608401707
-0.03603856728689529
-0.024742866486836844
0.05645787130059873
-0.1448162621877675
-0.14796053280549837
0.01059998326145535
-0.09309863840375503
0.0192388551151306
-0.12671645887645988
-0.013758964108902337
-0.04127088280373707
-0.055099604271050914
-0.07008832546116138
-0.00590983190822969
-0.12671913849785846
-0.3297692834175688
-0.11432816116544728
-0.13035912154832024
-0.015455058122533102
0.017380548684192546
-0.36580036668962723
-0.12698170171873663
-0.12748510452774287
-0.20217149008697094
-0.009078845745712619
0.035652404697013654
-0.09437229365723804
-0.042758618028192315
-0.15233498905906592
-0.16459686857674222
-0.1769627475647007
-0.027876569072560073
0.001859125173635942
-0.037158309044884506
-0.05815737325963312
0.014612560433574687
-0.3534582440083602
-0.24309884766267573
-0.04579012159638466
-0.08025525357689148
0.05079349463165668
-0.10015999328377556
-0.06737184757384039
-0.16807658959095362
-0.07362838560952649
-0.01938913014290216
-0.10265934222394797
-0.1605235189857027
0.02173841266434931
-0.17289499182551216
-0.031031183110111743
-0.052926233530540975
-0.18870857415186024
-0.05543457430589405
-0.07171921489217137
-0.17214435348829538
-0.14870717416086174
-0.03618312116070365
-0.20749469716078262
-0.16708883965236082
-0.031782093783336775
-0.09669478955096095
-0.059926152788662035
-0.15238497846940066
-0.1266180277424021
-0.17421871108667422
-0.18765966886927532
-0.13510312413622844
-0.09365221471262036
-0.06471328415828345
-0.1112596292109674
-0.12437614078411414
-0.18797218387727654
-0.07461996961317896
0.047955324787781695
0.0882978199796103
-0.16091046061757908
-0.23744170913896523
-0.14858596618602077
-0.0480853999896722
-0.09168949175049748
0.0010766806948845076
0.017263857136359875
-0.06938161420946826
-0.16324742987195245
-0.32851648889136126
-0.20352969644322105
0.004208694835168766
-0.15195525687575812
-0.03511060296661345
-0.19692384315225142
0.023841405369345467
-0.2004347981524855
-0.13383419141698238
-0.1643639406968569
-0.0809859458208865
-0.11818031734260193
-0.3429190640706751
-0.11588983524821786
-0.18659195767134146
0.0036331729750382624
-0.06120240423620704
-0.20542229928243955
-0.1831324867812042
-0.15401014958280995
-0.05433972275123517
0.03545807368443872
-0.10857707705685911
-0.0879216377553465
-0.006120725486728443
-0.1834621834958024
-0.17293013989127615
-0.12998885628307622
-0.011744456982259774
-0.07113074057540689
-0.009113057150618747
0.06889486327308932
-0.054103172362868934
0.0003247325238443233
-0.07915020199338241
-0.14862900749305022
-0.017511085731763618
-0.20209438829976747
0.03878583604857298
-0.09426994025073157
-0.19999289510438686
-0.06986285624909772
-0.19038259321052575
-0.018991260360656098
-0.021803385829950686
-0.03584817000015267
0.08204247591178737
0.0358914428012137
-0.2175823734306343
-0.1343571240427832
0.05345726599726583
-0.08763713239184524
-0.18747350910294713
-0.10371627747342627
-0.03617361802768168
0.013043429174518242
-0.23586203534139585
-0.23013958737507234
-0.21470373019550176
-0.07025627406163445
-0.058091028778443056
-0.01676999562773354
-0.23680306314834812
0.034319927207871775
-0.09568912825230165
-0.089889452992877
-0.07581309000875876
-0.16783257975135343
0.07006844686161012
-0.0638179919276313
-0.1711502928737879
-0.05179648575321122
-0.14245812952778825
0.03319842076508782
-0.12642267951201652
-0.1459780509226434
-0.1346976062873496
-0.07350228148449381
0.04712750946377907
0.028758626987492805
0.1047355367693801
-0.06035013453247615
-0.047724353678656836
-0.14634697032588112
-0.17159792133816096
0.0568197544868726
-0.0291655725100389
-0.07217930333054344
-0.039144656944447895
0.0026587502379665506
-0.005620436271239954
-0.14640357302828938
-0.12382475217283322
-0.022686706252442623
-0.09344878660645461
-0.1203960041572593
-0.07203119363115777
0.2335156984734587
-0.029376398412858024
-0.0421430195882765
-0.22194357622702796
-0.23297135150971304
-0.07134166264619657
-0.10267400096166471
0.8460768582597192
-0.24811441573258036
-0.1013156823058912
-0.14220060431697415
-0.029247021726131958
-0.017612951337271435
-0.04797882242598357
-0.06270451980574135
0.11707949229427458
0.004732449660868568
0.06476240849931056
0.1345992390901142
0.2766879452870637
0.157983833588298
0.09568079976094153
-0.02602308600810474
0.09365689064090496
-0.09497249716124867
0.08942917745578127
-0.16967724649412685
-0.05024027944420446
0.0226524132351672
-0.1429311390458965
-0.12261362505351808
-0.08639562151856017
-0.16302854869246142
0.01286786995447381
-0.12074598036800707
-0.2006115013964447
-0.03256722001252279
-0.02441006749730351
-0.08191761362852933
0.0022896770568923697
-0.17111509977804795
-0.17225870020653616
-0.1478861504419857
-0.2969992797349883
-0.10903362750074852
-0.10279698484068409
-0.0754709762387592
-0.1071618394842273
-0.024532225217295534
-0.03517687459521638
-0.10009916914792993
-0.06710771647956804
-0.0177548443403739
-0.134615537149682
-0.19214522596819536
-0.04501945071003932
0.013159190809671692
-0.142690174135881
-0.17505490003612034
0.025134405303265647
0.15771380352376396
-0.020098002464680305
0.09642255492069307
0.07362132466203362
-0.08553562772691894
-0.06525801889481238
-0.035183042229543306
-0.03802328521721001
-0.16451858234230138
-0.24630770239074395
-0.20409129949748428
-0.04412920456834422
-0.08695053817824058
-0.08173203471078595
0.05795688038431086
-0.09221500845662597
-0.07159203695416597
-0.05919318923263373
0.06686622542173254
-0.03522521730036468
-0.024772779597347923
-0.11306944634896171
-0.006468271593652347
-0.06381025307372651
-0.1981857135760532
-0.08200754234872334
-0.006496022952381469
-0.11928192496500317
-0.03968496228968316
-0.07762298144259225
-0.03447784926600513
-0.18972618921516404
-0.09520732476692564
-0.05706678573065933
-0.16221303126000403
-0.03821327175660106
-0.04631622604888924
0.013956282951805829
-0.13184995735171556
-0.05598274242758946
-0.022120969315569686
0.18326842575033941
-0.14283972783665705
-0.15798409377555453
-0.13141708249863876
-0.13003474259650216
0.14286149142334234
0.07519876900842895
-0.06584848790937646
-0.1199006000720775
-0.11285100596854768
-0.04325540175840487
0.011403945486945455
-0.0006458758042118123
-0.08987949249883011
-0.02965594747854555
-0.04071052399687262
-0.05940888454448915
0.02305242574867543
-0.13061015270784737
-0.07400764181651272
-0.011716118979464847
-0.12311578871082277
-0.06581817101785231
-0.09225341496943414
0.004684554353030473
-0.13829414218368405
-0.07029607521496303
0.05369813211996033
-0.11952899001653669
-0.15248488667565033
0.08553449870779384
0.09622518842600775
-0.034483991145343784
-0.07131458840960192
-0.1112505896231463
0.001366578206106868
-0.08240678921739156
-0.07408561124769877
0.030119791062590814
0.08237287831326451
-0.16369326073730978
-0.16872464356061148
-0.010213160605030174
-0.1002247930855364
0.10485053018678683
-0.024592323488958547
-0.051959587358587925
-0.050027420107095766
-0.10710663507433968
-0.043252734545605506
-0.12711991263964503
-0.06153418190688711
-0.05914431002183982
-0.10813876414304353
-0.10237751159527814
0.20644403895839775
-0.14277850362573788
-0.02188360485876846
0.037267340872421895
-0.17001080450983685
0.011954393596213007
-0.08813762768854382
0.18960395701468358
-0.08584893644063915
0.04376680075378067
0.04195114298450965
-0.041810610186251915
0.06612986514599496
0.003850289957469343
-0.06887270723635777
0.052649096050743985
-0.08400440648806923
-0.04507807749738757
-0.1519329612216539
0.055382348638482015
0.0034576942964743736
0.05362094533482502
-0.13314205398457343
-0.02463588581679829
-0.08935718085525113
-0.06307059972814263
0.04968489950356811
0.008363826324153868
-0.11938635408493134
0.0065030654960055514
0.03702023069101593
-0.06775159470523565
-0.1037462381410699
-0.021261602610080196
-0.08021900169697009
0.010606914082735714
0.029579621169585082
0.012601194677524578
-0.03844948090167376
-0.041462472686619026
0.20269921049020434
0.0003556483945344035
-0.084869073087126
0.1695670754871879
0.03307067562915238
-0.08313233152582661
0.002614107496029713
-0.0528922388236724
0.02005136221862108
-0.0408586152321243
0.017457923081940652
-0.019834704362104737
-0.014966298196984425
-0.10856944543387469
-0.1088256458268437
-0.1220353424472637
0.10967531495440637
-0.10011721333389616
0.023330978271820995
-0.034895358251673406
0.06082116315939881
-0.1425664916820406
0.10415229187372127
-0.01666439079145081
0.009069906674613184
-0.09565833301624319
-0.21175839511516484
-0.05008815533361917
-0.013354811828825896
0.02628320982508873
0.04903612288387631
-0.08755140755917688
0.10387244039601322
-0.12409868189223745
-0.0908818046025213
0.019651174898850328
0.07061705793797961
0.049268471448988466
-0.042672577159185016
0.13588766751706916
0.012032180719952448
-0.07726332363378788
0.13825013544942244
0.03838480180409795
0.1653602846617678
-0.10735653384191994
0.04990376245093253
-0.04589287069757449
-0.20163916006580235
0.04311648470617374
-0.02426596829490131
-0.01722900816597029
0.05697133358222657
0.05539729806739392
0.002808888985156726
0.046556466781485895
0.07585216828173862
0.21895668044769895
-0.034143848399608885
0.07389944895853248
0.0902450740588993
0.1445879282700348
0.1332761850624416
-0.03790435593337016
0.08666953739874662
-0.0208549825541395
-0.08893372807193309
0.10065876032302289
0.1548244708809828
-0.0572991427218308
-0.0647381429369042
1.034292241497923
-0.06083376320560159
-0.0873739253115057
0.05790178673224118
0.07866832111671795
-0.02095935321685445
0.04898327838210715
0.028401497035953724
0.1433169590331928
0.24563734531408904
0.24419952639973658
0.3337013115572642
0.3536180962447575
0.37577096329665727
0.3046227205071856
0.2786104671514084
-0.01333685286470207
0.1829247622870965
0.17081709241980197
0.21959148177759147
0.07708268780549063
0.12795773242834926
0.14564408176424068
-0.062456870037356775
0.09007499873956945
0.20245450323414846
-0.02221758364439399
-0.007847456184888593
0.09387022134846008
0.04830101584073869
0.09498193826003257
0.19015107797968792
0.07826348841939125
-0.09444192071741031
0.09103216996456062
0.08555514250694199
-0.10684606234046157
0.014717616806115358
-0.016078114516514024
0.16284785303484056
0.13426454150481376
0.006018076969104787
0.12586944953639653
0.18942790049465502
0.09952697977200672
-0.0169447448645594
0.18284022473114786
-0.06732498511338564
0.061685731441217674
-0.039639185881404596
0.04564165533970259
0.012316095222374125
0.013486573964589445
0.11730145946059484
0.08484183606699294
0.09024031671382206
-0.05997410004061596
0.025446428011215473
0.07439689510037294
0.11887566017858182
0.04361497109220508
0.20174484301964213
-0.0751863081715854
0.06011768918770366
-0.11793989650891173
0.05957702885799441
0.09600092155289228
0.09856468734945849
0.09363258842326938
-0.03638129351540011
0.003904059541293317
0.08961150453226599
0.14229168745019066
-0.07381698613794498
0.29764097702511555
0.26454354717212686
-0.12980796172859888
0.19769572679251635
0.04966593866272276
0.046664913403509374
0.039031124375477094
0.07441528167926476
0.08655191911616042
-0.11138687032362708
0.23418208175921154
0.06048902210141387
0.09418251164875142
0.09051548536438622
0.029633700890623088
0.027563753928481184
0.10308666773767552
0.020053807807177894
-0.15116800941236386
0.07588509157242225
0.16623434849397833
0.10731194829355742
0.17718771636976555
0.08381355150054842
0.01949912972081752
0.14423505710649462
0.18038799620197915
0.09449050497120426
0.06907976557494168
0.02475304052214026
0.030371291552489833
0.12398376969745914
0.14035556141434197
0.005387310445047588
0.07379897946186167
0.1681963942326904
0.05816213070277973
0.08464790849489282
0.26949191138413503
0.13966782653929716
0.20747349071819232
0.11646657769626491
0.16955068820387897
0.1031762405592073
0.272885824402457
0.2087556835767725
0.008204566594934279
0.10288817683495978
0.06826646400369821
0.04880041740786925
-0.061235127956465046
0.06670363569118107
0.13962417646916567
0.1618495318893869
0.13284648438117413
0.07453927470735049
-0.04265359395948923
-0.05133584250291143
0.02194276546731881
-0.044821212225808024
0.11873008729611403
-0.10794990044420887
-0.03689598117980586
-0.016762087576674203
0.1316427067442115
-0.034588988383494654
0.012223031447473665
0.013151789130894972
0.20256453344219194
-0.14502805428359833
0.11827989617283012
0.17910140018720186
0.028713070614300285
0.2543651124378943
0.042304520727872906
0.19812250706376594
0.0672247352452114
0.10045214437483449
0.15540471795242122
-0.002329143377764617
0.0049492809814564165
0.060727484463116495
0.13812223089743092
-0.015718170490071015
0.0027635090943162605
-0.07452100608926522
0.08704379954589762
0.0791990322414387
0.30716149447981655
0.25256865545159646
0.10664139985402188
0.1660585434427025
0.12029087801116002
0.1350958782713951
0.045459257496581494
0.09466640032682856
0.02449398948997103
-0.041796653209644985
0.11285163077850172
0.200649529071462
0.03520148943664475
0.0709664242461607
0.13802546692535492
0.2639566098524845
0.012035727597146176
0.17763456209646078
-0.06510909658468302
0.07786586782687312
0.15380346243095783
0.02326923210538781
0.270675129548835
0.14638785379669766
0.0675232196748709
0.23955329024137995
0.03748576930400165
0.0571497699911959
0.13194579033642068
0.16166114210503071
0.02814182378428419
0.13792949739222857
0.13533142308468277
0.09099691603888223
0.2653502543798429
0.15300814163261303
0.10560301923955766
-0.022751235667006875
0.14299524773304015
0.08519933045842296
-0.013008740377961528
-0.03577418056329493
0.13272827811433027
0.2013690706779978
0.08089677604697267
-0.005220245587475594
-0.09392446549589555
0.09016117480379567
0.06445000116454508
-0.004213186984370065
0.02790664647021074
0.11856334833198069
-0.019054802054607536
0.23221224451372985
-0.012209909805962024
-0.017040419594031922
0.16191661217384593
0.019445738380680852
0.2064958944340859
0.24809731845052846
0.11033202333455397
0.11090717059477119
-0.04243194912293112
0.11201616035167837
0.027864810116880967
-0.04425979765990069
0.12209631750919867
0.01225379083299069
0.1945038129165143
0.1521867572962115
0.019504982964171094
0.009505023297937468
-0.04387030716980635
-0.052379434224583354
0.1333289599306424
-0.01141235623640613
-0.04785147547120615
0.05515714710066631
0.19683359050542693
0.050024561022577095
0.1668183790000893
-0.04087770082328143
0.057866404504234116
0.2015328217857303
0.25700827838541995
0.012805708344217959
0.03159847387093749
0.18863396119695386
0.29262903503955945
0.15384505430980927
0.06968600875080262
0.07935504768575621
0.08269188883310423
-0.038152547661002706
0.07791592506447008
0.007218187886885025
0.20972149804817342
0.2041768704760945
0.024574922080251402
0.14102925503584413
0.0224472917916686
0.07772240066112696
0.0882388856939606
0.046547754062826484
0.2105512071590177
0.07226031910342022
0.03815973617148826
0.0707690028543347
0.15209280601082792
0.15030463162860108
0.007966602268341214
-0.06370012087258212
0.1434813480078734
0.11496808119641719
0.04692460802273272
-0.057061506593123895
0.10109407932254727
-0.005796355734646194
0.09493849466680444
0.23078698515280227
0.1860476027644034
0.1271770515150495
0.37593776343279806
0.1445483989155017
0.23481162361518196
0.05374745556442915
0.2225447443234197
0.09319463613967276
0.01801616292579327
-0.06392237428437997
0.9833920382648376
-0.014016928362347136
-0.003905126367007721
0.04058062822488784
0.01100057848999722
0.16607678292553832
0.03558907515052573
0.09337716956322628
0.1376402671286749
0.2602100093877968
0.2826101342714079
0.5250469101428582
0.37567565783379164
0.23754370911903455
0.31630586524488996
0.21097211966182058
0.1981982236715108
0.17334746826001787
0.08392631850244411
0.032175161266054075
0.00033709072260441897
0.04499570141057257
0.07344977496076212
0.1441245905977146
0.07551034894837139
0.05697776466571279
-0.018152200912934763
-0.011865021853077112
-0.06122286117906642
0.09417213358783652
0.04610083940040616
0.021526477242630827
0.15077320007434503
0.10572550117853108
0.04152415572566752
0.14377111301747236
0.06747467548054344
-0.05976055154731054
-0.045923420839593526
0.060159500756462654
0.033166234597546085
0.14297876691593475
0.07964206606866372
0.12422641998133373
-0.15589859595818917
0.12999310216992194
-0.05600216230426402
0.08376563025456768
0.00296478764754967
0.12794969293375755
0.06381734167536782
0.0026247179159766265
-0.10095710629737416
-0.04160307456162906
0.17145319813035947
0.03585561731634826
0.07673579520719069
0.013531729496073334
0.11276147617411011
0.19357849634747637
-0.036435271694031414
-0.0017539865345604574
0.06160955659599309
0.09598022576866094
0.14638416868448742
-0.13061063325754094
0.06314913395765692
-0.07027199245027899
0.02846274490522414
0.09479779435045622
-0.029438288098738774
0.014781889771206633
0.1608976537607735
-0.028453578437127154
0.19478372099746394
0.015176539911504004
0.0017192491277847124
-0.05051566249111235
0.0757036188625505
0.10090500971484634
-0.04658168918651734
0.10595731342847689
0.10089218815284803
-0.06195196027914126
-0.11956724503249763
0.1303058111389705
-0.08202923510258606
0.1326550413572493
-0.10612468895809063
0.1571960721660009
-0.007246777052042193
0.03769569321997631
-0.04683971863002206
-0.09790451496064631
0.24028390547257444
0.1753772092784014
0.017653017213758355
0.009007966323749513
0.033038237521589894
0.12887132820802147
0.04271801863509969
-0.00570729155879357
0.04793629894540221
-0.01707946134973714
0.019683379474024015
0.16827995875332138
-0.08157541268604261
-0.08988652469255978
0.04364739069156799
-0.028359820385789915
-0.08611138889608051
0.08951809243997114
0.10119284194292702
-0.05167522774376482
-0.029368333953077225
-0.020363554252080217
0.021010917668710296
0.038992149337049115
-0.08270378674989864
0.10295743263398563
-0.06483061752105883
0.0024657305538188824
0.14257741753228068
0.05519889267540426
0.03511334432847822
0.2275896935324925
-0.03194258536997249
-0.0359224756579518
-0.07508948173999763
0.1720092735611687
-0.04321156364356077
0.12220853457566502
0.04977096534389758
0.025509446401438273
-0.02441065276912703
-0.03336537474462191
0.1314891148357541
0.09746950736544621
0.01134337809776561
0.14526093332498854
-0.021001978067629466
-0.028127040519123542
-0.013967377174873181
0.08363171311140342
0.006346701347028385
0.01333816801837206
-0.052077856057296056
-0.1905038961278755
0.13675337000374818
-0.02144603055266351
0.042222752777232656
0.12623882475337148
-0.06647405901568962
-0.010273074927259783
-0.04226915253793127
0.11194135835945421
0.05259892628893385
-0.09520008075623057
-0.0606306748171051
-0.1401292886967578
-0.10237180541094609
0.029723701893903796
0.04229329130835387
0.09926263752421384
0.021169377243923822
-0.07554683748616624
-0.08910186002947634
-0.01668786861007458
0.06428825630032543
0.07149193040120005
-0.00571403126706861
0.08428871956965427
-0.00806662123593479
-0.19801232792323825
-0.006030106819597439
-0.005031174214185401
-0.013240145440184732
0.060011508295440094
-0.062483239521929815
0.09652723137615518
0.03120753731012702
0.04402110358362379
0.03860837093941466
0.030899273615667962
0.017416634753510216
0.14060683598392687
-0.04060344634193665
0.10137790758452248
-0.028616979065788795
-0.022735315389330074
0.024356225605716507
-0.01649976819925161
-0.07431939264613058
-0.06234584049298954
-0.11534580839353356
-0.04774550455498751
-0.15432564517862452
-0.1067348486055081
-0.13302363141825554
-0.13421124569488513
-0.05785291361003475
-0.0518886625456724
0.09761782726692189
-0.06756261959416715
-0.0058175891343213645
-0.014780902539809525
-0.07016636617409587
-0.09083969627506447
-0.1042128264307026
0.07210028308936159
-0.0563358743959982
-0.12346337530964333
0.027523866355549598
-0.08523399065740232
0.11747424044484026
-0.024997984206703475
-0.05163981868151903
0.07432781315037332
0.030880212099824063
0.020562432847396207
0.005553005019824288
-0.005247675091100135
-0.03247801385354934
-0.19038993651738562
-0.027786191754238243
0.061236198260577475
0.0644415443566688
-0.019008054331762288
-0.09626033727102687
-0.09099284053965175
-0.005140620567099852
-0.16332026592498466
-0.16554894734641443
0.007291253794800841
-0.06564184701419422
0.05527656352253244
-0.08900716006720631
-0.0958781744398639
-0.053701623629045174
-0.022504346427519466
-0.09409106769744663
-0.007219503467047521
-0.026204463171478412
-0.026738340057593356
0.03893335777345931
-0.019097296360068967
0.09534779871394106
-0.1651042408216022
0.038284642577650144
-0.30278817014721693
-0.19693081746340058
-0.0946763273594857
-0.016273780428432923
-0.24117666779578595
-0.0993770164449687
1.0799198355708441
-0.11178686287145828
-0.1397709660897553
0.012270880391256414
-0.02549492160135404
-0.034184003959724714
-0.09951953646028715
0.039312734529817185
0.0867272977838543
-0.1419838407239299
0.18760985438543928
0.17997817115711895
0.2646493964590851
0.12998750036730788
0.18287572371860172
0.2753924977656409
0.16173200201265878
0.0017716368241847292
-0.11392370133173813
-0.02829947908075823
0.04718639647500422
-0.10258630590642162
-0.16064843992754785
-0.035654805676166454
-0.13933505358361242
-0.18381017090978496
0.08700346466719999
0.05824616382401855
-0.1725966034624301
-0.09246896970190492
-0.1085963361203647
-0.0919678979015548
-0.06502729246496033
-0.04120990221457576
-0.060324346548614384
0.013112362548250392
0.08526446006136339
0.00839635754382427
-0.23148327732821053
0.04298296100744824
-0.16291804688711986
-0.07341013419850978
0.005066451286969267
-0.21271265955179447
-0.1534638450654052
-0.09177377741411814
-0.1452519619076173
-0.11797702018710211
-0.036934299117529275
-0.14651548368791606
0.022287679879787095
-0.12784228374547585
-0.12608996982224044
-0.029835201224811127
-0.017598225532117068
-0.0821040605852837
0.042353450135964976
-0.12282523773246051
-0.21163747831198265
0.001358169604846346
-0.006962766268826248
-0.11551438841859256
-0.08627706375941022
-0.0326588222257793
-0.14573486265056423
-0.26757629413328765
-0.1231674405314754
-0.06931465645599219
-0.005167209844663706
-0.14234132200318608
-0.12657286382072971
-0.034771509301931305
-0.04672299863758017
0.10381816582666598
-0.06004879018165456
0.1331910677963266
-0.10519385810143625
0.15074654781867045
-0.058500425466488974
0.025472301219793006
-0.04475075881111809
-0.11842782176107464
0.03507094025358168
-0.08321565962137359
-0.15719282158477121
-0.06275318903209205
-0.17330642742691857
0.0038623417083381295
-0.19421843885233675
-0.1482881681767412
-0.2654817347368385
-0.07754731069761027
-0.17273414579977348
-0.1539468954217949
-0.1747656492719722
-0.05852928355054461
-0.15429535261186172
-0.10489504896538672
-0.06070110020067711
0.036814921342966836
-0.10869059886183394
-0.05278575732041652
-0.10991849433447086
-0.12348608829673612
-0.11560925504783325
-0.28260696369810406
-0.049943447550220045
-0.16281091918619672
-0.04403179428189803
-0.2268746862165953
-0.043946212809602196
-0.10073036481078279
-0.1261803040513898
-0.06823898822174242
-0.059149162928515235
-0.13982921961041347
0.017343909369737953
-0.21650926983634428
0.05603222527930514
-0.15782725197170433
-0.10568530893840197
-0.2544765952794526
0.0014473921967474435
-0.11715110184178706
-0.027678168029851083
-0.15068095529988562
-0.05910646306653805
-0.12682057879747405
-0.038211111807826034
-0.25635067765718844
-0.2920276205314544
-0.05546224047400448
0.023876262275001975
0.0818704683428
-0.15130574425222978
-0.020044741217979264
-0.10697781893613673
-0.036187515595065486
-0.0011826161536748342
-0.08918735584133984
-0.026404373372574383
-0.1731700245651281
-0.03175791988706511
-0.06041273657950501
-0.007214508299155986
-0.32934535249311914
-0.036746582682546436
-0.10530898009401672
-0.012576881092590197
0.022094877673343546
-0.15546677103057283
-0.192712841491398
-0.32736870197700774
-0.07038010909027918
0.05040606342159068
-0.014458170270581272
0.02583077261460133
-0.22034867077953377
-0.052155381999830254
-0.17581823567269578
-0.2308580866304842
-0.25054735717689325
-0.1742130299504982
-0.1587660321917052
-0.15943187067570144
-0.08554916878323861
-0.008662460929419108
-0.07203637507057446
-0.06697294828784264
-0.059143941571757876
-0.027085735013981913
-0.001731264011790995
0.021425644599715618
-0.05433114459363416
-0.15060018325964722
-0.05061638338623047
-0.16899042460195987
0.03834034937360009
-0.1926894907109451
-0.15837554786040725
0.05863135531568618
-0.022926060064745915
0.022505455112040523
-0.02439504207179391
-0.2235698700368225
-0.06956864467327253
-0.06333597154616347
0.07802583974638613
-0.27704689148703576
-0.08076841840777452
0.011122566380203688
-0.17256151010957702
-0.0906022951126921
-0.309525529615887
-0.11695872878632094
-0.1318412377456538
-0.12362817672921905
-0.08492521154844049
0.029062745564558054
0.07522945045788794
0.05364013620954455
-0.20286198061248284
-0.08989105180354175
-0.20269221930798348
-0.07754313750550085
-0.00844182405563361
0.03076172261152521
-0.09162148272638632
-0.07499574731326679
0.13740989602027256
-0.059713531480678976
-0.12028286846464209
-0.036474080618615595
0.019108276600033433
-0.21649173073005562
-0.0848382528083402
-0.057003821419218025
-0.11077100490827593
0.007488884936776102
-0.02571955648223896
-0.15890501248797212
-0.029556663491511502
0.0795970238153406
-0.03941747947670428
-0.07161165669876446
-0.05470601818395368
-0.09440137943422078
0.16915390941063946
-0.05728360574962443
-0.08503756401978124
-0.28635876119315407
-0.03774036393902461
-0.000751838339239877
0.09488630484234375
0.036597513096285436
-0.20971966839894313
0.014847680795246856
-0.08359375722647534
-0.18864563609709017
-0.1669224877703233
-0.12840195183841596
-0.0568564211895861
-0.0601562390888465
-0.024350249178178032
-0.28264971121410243
0.04860772997698744
-0.08917406103596585
-0.19169538026639657
-0.08028335492571699
-0.11774549492029984
-0.018124809440806286
-0.10376325984543297
0.0502933806163017
-0.03705965066549637
-0.0928606571861007
0.11520237777332515
0.010749753104234011
0.1247850709019267
-0.11029303717139949
-0.07113320603832217
0.14289420727690255
-0.19676060187497948
-0.08191549606452055
-0.07444258627056013
0.01912516735607503
-0.18817146952188762
-0.044817591737988896
0.008559747748784041
0.06138537601242998
0.06670131794505554
-0.01708958159676536
0.0009999002425767067
-0.16960359041272258
-0.010982496036636626
-0.29189343667372947
-0.019010926739812438
0.06705221070441376
0.057472318396842345
-0.17188295897684158
-0.21505745171324875
0.002342639754866885
0.061627546723457424
-0.09354252992860858
0.07385903099076528
0.9383020297527216
-0.17574068262601905
-0.22381175829179975
-0.06602806575654646
0.030249552918886716
-0.1330962882726651
-0.01091064101956674
-0.01377198137551481
-0.05651281181783323
0.18677972468865595
0.29649645376047973
0.17363084412186433
0.2669368453217762
0.2671826286764928
0.21831100071666934
0.2147323839114476
0.020699732750505975
-0.02495633522131087
-0.03744195762750424
-0.021516991250854343
-0.06665192274466687
-0.0018471107869668033
0.0048808868374578054
0.10263479222427738
-0.1342125470106929
0.04101655444754919
-0.04469545618392642
-0.01934183855076521
-0.018288924531294243
-0.04656972525564188
0.07698779447662539
-0.23015978711934643
0.09755427390938344
0.0346048836948573
-0.16091741972659024
-0.010617444765051623
-0.10005817755074989
-0.18938023037124552
-0.15341930408070587
-0.07476822740389283
-0.17903574341380682
-0.019777672018684377
-0.21579751528643293
-0.0009662814604490741
-0.011120366132992148
-0.1914601311753752
0.03859471940316591
-0.08359638252802512
-0.12077069927480985
-0.15446648048823153
0.014911830337293937
-0.014793908668884224
0.054461510620376
-0.05249747722813545
-0.07469492343563006
-0.0055100330559163455
-0.03954837143230366
-0.19628014555459178
-0.002846248604835913
-0.0492795901844141
-0.20978295791123847
0.06452735856779324
-0.13363332818531864
0.01767181056670809
-0.05766837471712818
-0.059945315712598896
0.039659362025599984
-0.10422459375494653
-0.0009993643594631459
-0.12410516849545197
0.045764468509804375
-0.10946631109326323
-0.13509298030282552
-0.22334350895956837
-0.07088962978879282
-0.15756444197696984
-0.02521253481714696
-0.07541196663973021
-0.07682929318487391
-0.1673658431684325
0.05137181410273607
0.06002160051538373
-0.08200604115495683
0.03984589942477521
-0.07888004166943746
0.03885008191201708
-0.06604856798128778
-0.12310088415078739
-0.05379311847172607
-0.0660155842586845
-0.041550140026977114
-0.019278524702859047
-0.05167986849565087
-0.01583473286846815
-0.0017759195582995081
0.09511333390248507
0.012300068112019783
-0.14744320049056356
-0.06444696179595787
0.17803436274621598
0.040145232314623615
-0.0617002489400993
-0.10517698225875775
0.02693953903996879
-0.05595178788443097
0.05019179620603803
-0.11954137310718682
-0.05848538323416015
0.022412473098167893
0.05355835364645628
-0.06869971137336583
-0.0822623939830855
0.12803177899324242
0.0793969486998768
-0.000864072324979621
-0.05665237826904598
-0.05720694612867703
0.04586087844146162
-0.09233492749899172
-0.015281684671715156
-0.14277921199142232
-0.04160849195319371
0.046632331268563726
-0.09013232376823142
-0.07263678412876631
0.1439084531009194
-0.027224481839822394
0.03778541712362972
0.10295060335895698
-0.0005342978157552494
-0.09377604955919486
-0.012484848386487621
-0.05627714757434109
0.06872175654665919
-0.06192617007939291
-0.11274387844486068
-0.18328452183476396
-0.03464937250187916
0.06853401211503102
0.026384432019061235
-0.0657851501036064
0.1283263211492249
-0.01889947244345415
0.09242954711496314
-0.061955426832139636
-0.12990694688518148
0.039383663325204876
-0.047606540792550764
0.048442120339328
-0.06209560979247972
0.0804755089221795
0.002224179472360196
0.0217312882450736
0.10925097412877267
0.11260686768992906
0.1346850322407378
0.034952089146170776
0.08134939187553787
-0.09801001075769848
0.04508772292171653
0.1988883185478906
-0.12945890156345008
0.18760013971022366
0.027403193458800778
-0.006813625653439376
-0.08153469003588709
0.08008540074923438
0.04340476565746994
0.013392521685102902
0.08563219749761009
0.12854409785493665
0.16659141036622174
0.004102578537174467
0.05022894373054082
-0.1110577626311886
0.02236724170925308
-0.060975266920222586
-0.059131986065352145
0.08087061254615316
0.06830492553956216
0.11977197652768842
0.13619494412740393
0.13830217382087476
0.13683219400445565
-0.04274185122337085
-0.011264060832741354
0.03350306709108883
0.16492608730102495
0.1548111322008508
0.2426754721194225
0.053371432608447275
0.0922771730278921
0.17843624509576214
0.08443552188389528
0.09444839599604617
0.14032949509225465
0.07322742614292375
0.07854266740574015
0.06389328593421613
0.02151688710005291
-0.14448526667443437
0.18193381841762038
0.2004499319151087
-0.034086835196147136
0.19588328758789603
-0.010275739840414688
-0.09655138803808605
-0.04207889613437907
-0.025277442570005193
0.04639255263325966
0.00896665477872912
0.030953884147548964
0.062490733683248596
-0.07961989529176859
0.13426899544574789
0.02016718905492461
0.03774837046447739
0.004029591661198241
-0.04402606129661568
0.10744667972099597
0.1326171548748402
-0.0029760502967484392
-0.04184403063253772
0.05800835449338846
0.029604798784979236
0.09922166111378647
0.166948144630375
0.17613195072104945
0.054394759574614364
0.015283657674275149
0.005755856741400188
0.02829976156959684
0.09948646312997508
0.08953790647723356
0.1866092913356126
0.12922339675258288
-0.12348931040616408
0.0516188305299387
0.10073944462746784
0.16585210827703467
0.13516724761559967
0.017238024103116763
0.18384345818873918
0.09910304844606559
-0.04374902280012177
0.1317586385850541
-0.1016118467391756
0.20142606605890223
0.11398115510111312
-0.049657359688006025
0.029400589051815293
0.23707349283774937
0.1908441263701944
0.23328242543276406
0.030461096099931043
-0.017577344817642865
0.10682781102248588
0.01999291819117594
0.1470990637741391
0.01318387382433879
0.19137068992756767
-0.06558998366624322
0.11595255231285106
0.17903107090981454
0.020046334460803963
0.02099392522835756
0.04838780377346881
0.015355480278507999
-0.03506058480747454
0.17611933852954137
0.09687216407218194
-0.0056198858011026614
0.2721216596016862
0.15210322288639172
0.28051635568444483
0.18193223496965907
0.15614637574012863
0.13119552088612246
0.03399009454144657
-0.07896197882600317
-0.009294519447622648
0.3050628756218029
0.15111111010317252
0.1415986686987348
0.05616895294291315
0.02976748967422288
0.15425879368678985
0.16883550768183453
0.06944016680591145
0.21901247548941163
0.08403194546108565
0.048954735178516055
0.04212007144378361
-0.06423279707677931
1.0335782761759835
0.07251294584472115
-0.1482849060855812
0.07167798358217564
0.25723399065710606
0.1340525593853636
0.31855890931558306
0.1934775152231651
0.19244860885637652
0.14841364249425518
0.39063771422810856
0.4399325099513491
0.3338598497388665
0.3160546143154049
0.31501790352734127
0.2305044680107847
0.1280653336280801
0.18143130080540468
0.0028154208469325093
0.12337303979132168
0.022388129864982884
0.10595419646065346
0.0562947263847164
0.16312887995323339
0.06702473134361223
0.08588306700746377
0.1577274076141056
0.13933168684285735
-0.006064702313972825
0.02156878782478526
0.16501494901016284
0.014139128115668226
0.17817023648137037
-0.04516328530316126
0.10659707648846074
0.17806120152577914
0.14639420785128737
0.11132526250183185
0.09294752719651547
0.007225450355333243
-0.05588791107361883
-0.010918422038250414
0.18620817727053554
0.14670325017940794
0.15978520508939836
0.08697575329334162
-0.06373797752644328
0.07936743079050751
0.05182764806020658
0.12947626314801353
0.11524154597188274
0.10364259806805257
0.13278570622643823
0.11848485424741398
-0.07811747703550585
0.1234749495453983
-0.0367957161063065
0.07343665707682326
0.06677091740152703
0.003268177569640332
0.061707590127423176
0.13183653924859648
0.10584173887071663
0.17212048603778873
0.14875085573705749
0.08377052709861192
0.11505362617055939
0.11140540759924594
0.14226434181484032
0.2033393571108481
0.0649932526450197
-0.014431134591818384
-0.03936470254775573
0.07063354698148988
0.06277329488145453
0.2917989525660302
0.04089151562392785
0.1499460682307376
0.2042682580330596
0.1336939757763954
0.08604070023864233
0.09387227196900544
0.09981353445161198
0.1576409277178193
0.1539689064759021
0.10329212606923104
0.01344794059780266
0.09659496404514008
0.12527062105160505
-0.024176098488483552
0.042481737303612585
0.05609605129538831
0.1438643142318852
0.11910992955147105
0.09920499465172565
0.17170143424247503
0.22461300211526836
0.2204291955116791
0.1321105327222635
0.04815203765020199
0.055500347101320284
0.25889220515412426
0.11560266559389547
0.1413604954120845
0.0864604278999914
0.2956679112033875
0.10268925000126275
0.0386390508485232
0.1126164475747952
0.11085435097603699
-0.0026679981682551646
0.0726447118246844
0.011166646624397092
0.1392083161604712
-0.00024619546287044103
0.01511340314451795
0.098851339105526
0.12481281003676513
0.23690259399003982
0.04520211127647113
-0.018915747764358698
0.16585435553330824
0.1612016954447672
0.10087808214356492
-0.13419741750809508
0.3557963399686312
-0.06501624492614004
0.03507645433289786
0.02403740873038901
-0.0007388905620391018
0.01296794129712936
-0.051199519133856425
0.030527254904772753
0.10926129302245387
-0.10614502790308586
0.04207672503103486
0.24728749137196288
-0.07694553812017313
0.11274390780496746
0.00964429736362575
0.0934703664489156
0.08735251149769227
0.12154212736017295
-0.11434622386824295
0.22569340018831835
0.0336531509348665
-0.04026498604001451
0.15908509385441472
0.13513393943166774
0.16250272415068862
0.01129221463171902
0.20946352074280183
0.16028276535381503
0.24071849065831974
0.07937933163579547
0.10713721248955911
0.01198081969613106
0.24510765604451373
0.15595319445828915
0.15280812165634133
0.11438004860356255
0.16630892526716967
0.041204851887371975
0.12902824798698342
0.14272864145917943
-0.0449325357208685
0.04764278998293613
0.0683874926374148
0.04741987251008535
0.17095873133279668
0.1881066549940353
0.010009095441989274
0.14300609389733654
0.04638831708782735
0.11396659685868876
0.14971558269492796
0.10798138648619318
0.023880583703673894
0.0641857629347008
0.07409711608388074
0.005842508662906032
0.05022444388224361
0.14585163124870257
0.05047147959860081
0.011688310824917156
0.06419710642367722
0.0014061205441307928
0.15807509411898085
0.13237827845174666
-0.015674447143782494
0.1405635823836178
0.16452593894094547
-0.036827464544471014
0.056965841224051406
-0.019374965909227104
0.05331596636176604
0.1854107224217941
0.0754593822151205
0.05732847254263625
0.13494143770090228
0.16330784746235866
-0.030174460281143997
0.0846145074906692
0.19479112960141073
-0.04390796443551023
0.05167098636837305
0.08793905291308629
-0.06951143985020794
0.16072308766867027
0.03996760612340178
0.06632953274328743
-0.006169774973544567
0.1937071592486219
0.022271761527315213
0.00750962090096044
-0.027946676819072605
0.14579177081925748
0.01982715108404491
0.03254063931522817
-0.10202031169333659
0.14209762064091958
0.03919503245817606
0.023460507010137827
0.36681328423481663
0.06345966722676762
0.1583591802782801
0.04321351167146601
0.055278809642516066
0.08852315727704907
0.06554998632556563
0.02018486794527871
0.14426754944685255
0.07212016957766676
-0.16722397127996583
0.07558550001780485
0.2156358646825016
0.052958096289225355
-0.10950201743935237
-0.05415576140453243
0.0007217240655396084
-0.059932859547240175
0.1181306259445294
-0.05980702229121019
0.0112271367490797
0.22566954199701866
0.05198246008464634
-0.09828844652526357
0.0616029123658428
0.1023910984597549
-0.27063071037550157
-0.04959914600409209
0.9226488036716143
-0.11159259676176496
-0.019247427174790284
-0.023218897555812038
0.009381981351616008
-0.027177118388126753
-0.02084678243147474
0.14745892627600335
0.17717847816586768
0.1933280541419546
0.2466643435328169
0.16589082187351326
0.2492143761079933
0.3765533423230245
0.40419555013998826
0.212218088815053
0.1867577107747642
0.24148772442460126
-0.08219509794126834
0.10005138137667736
-0.03749878157917338
0.08773190320165872
0.04692971459124584
-0.002920182714346131
0.024450875732147104
-0.13711573148357575
0.08299287439696189
0.03511494252523797
0.006692565605348633
0.04800582891469738
0.09584172021172224
0.008168607878892635
0.18201412304770792
-0.13956658290151921
0.18916358373511957
0.07012272540341558
0.10988150636623856
0.11844852586279465
-0.02497705955248774
-0.02350685381694142
0.25816149371936886
0.18520332919438315
-0.09371197558968769
0.0009317454204229025
0.10174099104529301
0.07424605661427133
0.1656902965111814
-0.08961611427418671
-0.05752957405889068
-0.044833584960748754
0.21499484399103738
-0.01907982235954645
-0.006490820781792429
-0.1162935699626802
-0.0736199689298069
-0.07627441194413628
-0.08277191262588586
-0.05424760411183809
0.00718478252513636
-0.13578150264715597
0.022156681330311755
0.0029101414493456386
-0.03461785363193805
0.1634045028695702
0.0646426803975678
-0.15351204392231582
-0.05764573765849955
0.04577420655147868
0.09797270077643973
-0.10365416898820153
0.12875196296923014
0.02833047498766457
-0.0007426170181380753
-0.04979055924379531
-0.08666869209552318
0.19655291979126732
0.11002052494808404
-0.10730984296174352
-0.024496107731179367
0.011621400221579469
0.03952930482991732
0.022817390227251533
0.052371262718574736
-0.11855962926565025
-0.0316910901463069
0.013034604099215294
0.23164766802763684
0.0657504648097423
0.004482287506134238
-0.029120799587852624
-0.1461678355315528
-0.04069172859014519
0.04622825653136305
0.11021705006579116
-0.09221890985807862
-0.13935427222847963
0.06343887511726837
-0.1215560545151851
-0.010166638789158905
-0.11089221442862796
-0.018639852116699877
0.11862194812376974
-0.02558495604659766
-0.002873417873818309
0.10152245493643756
0.14049674108714733
0.034954133081136464
-0.03237747395734107
-0.09147453010631096
-0.012936008324236086
0.134667009462917
-0.13074754210078662
-0.17367537612270273
-0.024313780604994978
0.11052624826870898
0.08344783942044988
-0.14592309459826375
-0.19897392381950046
0.22907936217306396
-0.02623770544251405
-0.2554832661315112
0.04013410232540562
-0.07089699652558282
-0.10513488408957586
-0.16378569421431957
-0.14531683060279213
-0.09563954457449933
-0.04992873629900925
-0.01924164942566332
-0.13415636437294537
-0.04924850445322138
0.06573904267535793
-0.044494151072842304
0.06575722742685844
-0.13719945181632892
-0.19259785062039458
-0.09766314723492196
-0.12079748374743884
-0.10276387348220958
-0.17653565191884324
0.06574103397979571
0.20543649777608466
0.06271978446444394
-0.0005053679378706072
-0.09292290276145837
-0.14284930019816605
-0.0649324478849796
0.008391267319978662
-0.1335286062551862
0.15856560965015673
-0.08951952205449829
-0.17569288336419733
-0.058957514101925
-0.13433293340706753
0.03772186414623868
-0.04613441597826046
0.046437924469251254
-0.10493929234496946
-0.13189017680656137
-0.04101338457960243
-0.11662964407157658
-0.08430109310384007
-0.012639291129817223
0.1252785307817675
0.2335106552228879
-0.1503036551313421
-0.030136414282430878
-0.18152207468102508
0.028797440051849622
-0.061159177676027826
-0.10660769252740138
-0.1888716189742709
0.03648674545590279
0.013997049926843731
-0.08847869133020222
-0.10382482576749187
-0.02518153543505377
-0.20555150529984983
-0.09139136474170215
-0.03087764236328188
-0.040466055115401245
-0.027340695491607316
-0.037294315193347485
-0.27121461104687195
0.12528161864684748
-0.042066751666227906
-0.1512697744401528
-0.13232652261499914
-0.05399953531969189
-0.052510674359617406
-0.11109718032993529
-0.22688800937315728
-0.18059962066147872
-0.11493012541676087
-0.13087631454347376
-0.1347842534275288
-0.22994872031070623
-0.0269665949219976
-0.1208116637524165
-0.1266941827935511
-0.07251902138005901
-0.05624409866386436
-0.1197280524743157
0.014403131471713973
-0.14994898563136588
-0.1681207877213856
0.09198961943528453
-0.092657051505599
0.12111536345752366
-0.021377677973385543
-0.00955412078920588
-0.002741614954613336
-0.21957682091331748
0.06463639173287183
-0.1441011094910574
0.001351015835435232
-0.15169211109169234
-0.027586302261893146
-0.3156154626743735
-0.05174608256804358
-0.03885594928868354
-0.13699214771756538
-0.06460811574282092
-0.20908248371377036
-0.09268717398665013
-0.11474734354851185
0.03855447240833976
-0.1556706565439607
-0.1658012743055443
-0.028125569507169997
0.038044524010969694
-0.1335658202683687
-0.041422575337685286
-0.10481328245730306
-0.030338652681967136
0.05255725801501185
-0.11762511391472708
0.004504655963403631
-0.04324302076022071
0.15711410023761563
-0.1832199170563012
-0.2075571265566391
-0.05962397396423598
-0.13941063747143775
0.04795881879543891
-0.21832277965947008
-0.18171402466582995
-0.019674949459111593
-0.0878186859009061
-0.1076143810416148
-0.02860272655561514
-0.23900021013222159
-0.04515386547391613
-0.18230926237846518
-0.008666609375669501
-0.1661815302631826
-0.05562210894946244
-0.17480090934536546
-0.14722113127693154
-0.10772829753771876
-0.10715357920740591
-0.03167341615213499
-0.0021748938526960776
-0.05828482206187003
0.06718985740442841
-0.08981404818416931
-0.025349034547776525
-0.1391950811851238
0.018916669226679367
-0.24592063341367637
-0.06302512821746103
0.07019172572073748
-0.23317303405636505
-0.042598026752142304
-0.1558209849310778
0.9918258955599832
-0.18624311495783924
-0.1877434550427041
-0.2899896537388762
-0.12477881734840068
-0.02855026967860578
-0.08742621713290835
-0.0828162952843768
0.04578601160301586
0.0686180136652086
0.21612963677435473
0.12503724085402135
0.33086556762185143
0.05021735723590956
0.1412027166696687
0.27697930596520837
0.09525841050840768
-0.07194689662274739
0.11251363842014676
-0.17360621714853414
-0.12678570020584726
0.07663346397048051
-0.2361126595083362
-0.15049797876240711
-0.041415044470885204
0.013075302072062145
-0.12053685845984799
-0.20462856353436518
-0.12738851944681737
-0.1997872390427023
-0.027267344442860206
-0.0893406793832302
-0.20941867163210334
-0.14330458713436178
-0.012949225206893664
-0.242729072269037
-0.06696132623806562
0.04563704479110893
-0.05368814180700013
0.004043121185633533
0.08220537966277872
-0.04082205443961074
-0.28405304970521744
0.029580956160026206
-0.21872823524194934
-0.13089996760358347
-0.05829393542636971
-0.04380824183564397
-0.18319611135520358
-0.19718513297155046
-0.042231254320151956
0.010627275810330863
-0.17427247940178137
-0.1341378945217237
-0.09852137248976821
-0.25656264508361426
-0.227319026524504
-0.23983316677272548
-0.20866263451958297
-0.08011680360062237
0.042143440259030954
-0.10360601377744788
-0.03876713398648356
0.031808821999921535
-0.07605209700039184
-0.08206528751468185
-0.13129963134327974
-0.11959317475803655
-0.12967247697841297
-0.17460804701579508
-0.22669945769790412
-0.026378390870342036
0.11391575047725289
-0.17083488972796446
-0.05318749629621632
-0.15593653352625336
0.033747747659554836
-0.13366949211424298
-0.10350372011037244
-0.1114540518581043
-0.2043141675701079
-0.19764579219987624
0.022622222646978954
-0.06756891312447824
-0.0025463231063772573
-0.09056862961758036
-0.040267965865084944
-0.23231816062510036
-0.09284082309583573
-0.22770924741235266
-0.14474912569005238
-0.14928621299103334
-0.14172127753636454
-0.07197094663299806
-0.1003770083376356
-0.06456992026738412
-0.1533532731961287
0.04189035422181592
-0.14760637817780098
0.01861367082759588
-0.06263932292552611
-0.014792388584656951
-0.15445880762758335
-0.05768609616620532
-0.06404409971582277
-0.19674100851347215
-0.22016639149043682
-0.12023891821814177
-0.029612079605959706
-0.0688863927622651
-0.22651718020995815
-0.04265083017187454
0.09017077841620685
0.01960368012594417
-0.11158590389128024
-0.18690961872599185
-0.04300946545364775
-0.11097018406440978
-0.13777129103540106
-0.03449923923760204
-0.11824126584261961
-0.22878108525860777
-0.023608051614644923
-0.24722350658976874
-0.057135170757965495
-0.0158244241845949
0.034311445391970744
-0.08488747438620399
-0.16330520599405507
-0.16107682949009772
-0.34376275658183414
-0.25613207285668804
-0.15897759776247739
-0.004750975587798828
0.027861631936826642
-0.2168809230343302
-0.17916082275592676
0.029823426058908115
-0.15703546130994
-0.08469025892753093
-0.035888393021523635
0.05501588593636225
-0.05076579759788377
-0.048475879256485166
-0.18825956198966448
-0.09205019456408038
-0.16585780810872564
-0.19918895420014907
-0.24173907925080607
-0.1699507825571816
-0.01946790048840455
-0.16972967847880066
-0.017965863479594744
0.08035027231766123
-0.010092006942962958
-0.132205413188709
-0.1427328272964291
-0.07249022955198185
-0.027123397038384962
-0.13895210775933636
0.07322196510179273
0.023616407030675565
0.04956711590191498
-0.07841613473061881
0.09982822389260933
-0.03046425843347044
-0.07915520391737302
-0.08151716930425294
-0.05005803181947047
-0.2503554464828965
-0.14137526231247327
-0.15229337752669964
-0.04687522016921937
0.0866074532492169
-0.2890087578322448
-0.28739814545729536
-0.12573133272225712
-0.11943532501199797
-0.26838025195159493
-0.12188977841301232
0.05942455298077533
-0.13007982355369616
-0.12578386241241335
-0.0681685656166119
-0.22799303596075132
-0.03560311075618932
0.03702725394197421
-0.015215554983699392
-0.055040355956896304
-0.09692229806654404
-0.01620308671939112
0.006367350535380789
0.018244278098105908
-0.12496934710114072
0.0034195016461688876
-0.05385497709870549
0.055412616303960924
0.018055851133056425
-0.05869844842133429
-0.029214168097131375
-0.06270877816440928
-0.07132768631486656
0.09450253439708856
-0.18241384290608426
-0.1950153912375643
0.16601761089029335
-0.09776607865800867
0.05915436876668423
-0.033232737503310295
-0.15373849715878748
-0.00996570795077703
0.017663822455482765
0.1091402543005128
0.06062718533840739
-0.12424999857901914
-0.019829677823579285
-0.23151339205758617
-0.20005473527974613
-0.09913060319577169
-0.2258276601670644
0.011598694548508155
0.054989807672749996
0.12809568143642794
-0.19240764034920735
-0.020079902053649037
0.005909988713313302
0.05174072803393643
-0.24346922032794374
-0.08126308296539396
-0.035263509072862194
-0.019475460164087053
-0.1289113104773103
0.03557863652642568
0.03320548328896297
-0.022496853881219088
-0.05233111432165262
0.007374120099631433
0.0725747099204023
-0.09490259721925676
0.08398925697144025
-0.0506418083663156
-0.08033861997290424
-0.08559861491210188
-0.265438408894744
-0.06089752040814431
0.03103854869504323
0.04259903027290156
0.08498854290097117
-0.06926373286939935
0.02145204024180257
-0.17343673607456886
-0.02431747404267299
-0.12782348479487318
-0.03256757778960985
0.06301911498493672
-0.13999164635042002
-0.08355322829646283
-0.055873796396481004
-0.20264977176048718
0.029486894259581606
-0.15964084754086738
0.04660173667986958
-0.09988230240666338
-0.122694473407627
-0.007925322647317181
0.19447462041900798
-0.05413673317139799
-0.07299971782680562
0.17637897409684394
-0.018292807475765383
-0.06539519603260883
0.002368970831404929
0.054607227192850216
-0.16962050417277286
-0.08228415162443999
0.1082072902954165
-0.09977854085116715
-0.09467345357958616
-0.04542567225853845
-0.1014797553414036
0.0165330015765691
-0.0686945354071988
-0.32018278242195836
0.10760830629942504
-0.1377925748915424
-0.00027182656929072326
-0.00041548767891495895
-0.03360368815881178
0.04491309329472088
0.10296027421881572
-0.08194835075125977
-0.12495055108303411
0.09550312315357948
-0.008417194858483246
0.12610214904819453
-0.17980469097241297
-0.09616931869895186
1.0019872364303677
-0.11452756272605052
-0.2784821944191558
0.050591999714348725
0.06638542851558897
-0.02055512432074448
0.07807970984512805
0.07354715904592632
0.03433481175100196
0.304991840277395
0.27487135656070316
0.292501757150522
0.22287662005286185
0.3362356996881792
0.41543397610096433
0.38872332590728687
0.2761434334739581
-0.05877323044404571
0.0200010658596297
0.09673550608623491
-0.06327275747908778
0.033239150870315606
-0.03834928319787946
-0.07038195653331297
-0.06023675432319725
-0.0704099567047879
0.056282929281352166
-0.016527082830070084
0.0390626987922862
0.27525932446970947
0.08577045997588177
0.1702101561167968
0.018074683547802912
-0.1872235161322699
0.1012541566486183
0.08723492335041155
0.14171246616789063
0.073807771294058
-0.007274623036965723
0.13586184794041706
-0.07095667917522255
-0.10593674570217582
0.08978753461016559
0.07750497551532831
-0.16992956977150214
0.11167294459902014
0.031816936061128905
0.1163041278304918
0.04120811240257538
-0.035670651581067254
-0.007311547548267662
-0.05753335329743599
-0.013075791235612873
0.19397224278861716
0.13441696176841758
0.028845424755672873
0.04353394184350952
0.07104635569816883
0.05251527456216058
0.14471055153057719
0.12143899310101579
0.021465735917600388
-0.05553502421931525
0.0055409079897235786
0.020202947824063906
0.0048736814586147065
0.034511166231873044
0.03861993638310849
-0.05915723757009651
0.13781815894470903
0.2362292641612588
0.007778791226723328
0.1767353438669699
0.09818947873289485
0.17560620479748937
0.012719477014925679
0.08848405356194744
-0.07023543726752296
0.08047500115207382
-0.028329267574281586
0.11090639136215463
0.13434339247256552
0.04143820010788767
0.14807249163402267
0.12978305684637506
0.3026636884525115
0.40351001542437176
0.06146825985267705
0.10931365186585093
0.08278267963455406
0.06185888130492684
0.3022154784187274
0.08230915794026565
0.2425722018494697
0.11088905741689514
0.08975061441658046
0.03504709045761182
-0.07521352570784273
-0.020029470890933057
-0.023806617502631605
0.015992786488299784
0.08974141279285656
0.2213745169474473
-0.014736022517665572
0.13147543153595717
0.15311151335677317
0.13924681662450022
0.10779058595584695
0.06875265919130896
0.2153044340172789
0.11915205890942362
-0.047877105420534416
0.13189122397780825
0.04937656470611783
0.06819427436790267
-0.02583356138549639
0.16029189191666499
0.07989588108895497
0.09899723371395681
0.11204788383440843
0.03569094151058259
-0.041962626016772
-0.05195011795391519
0.25738438814281284
0.06845217739194837
0.09888579118031117
0.15135725901404856
0.07748006379504799
0.07960960552640467
-0.04061046751383192
0.06268377246698237
0.029723122282818523
0.0543570584850325
0.15630287853772504
-0.0669116006215956
0.16490080332918167
-0.014350026368320404
0.19221561820826033
-0.1151326265423775
0.1612497524091981
0.09394442725661822
0.07842587437019112
-0.11143644327117547
0.12284438724698482
0.07768960280089354
-0.07054577882718771
0.041618745374859496
0.26065025461384406
0.11195912172357514
0.15027470557497313
0.07921376453646338
0.12715190730649953
0.07316782367800931
0.15064420912909682
0.23291992500765066
0.08529919748560856
0.23060378420578176
0.07570778692023897
0.06136638696291556
0.08236090600209313
0.027260490193657824
0.08794298444165674
0.048654945762266914
-0.051695705929227426
-0.016544524035090186
0.17675088161400238
0.06377432436610503
0.106928612851828
-0.0484918221586266
0.10953816260884025
0.01441353387031312
0.12923468864042187
0.06481091847584455
0.08504383077198512
0.20125817811731678
0.04470878033850761
-0.10337856475472593
0.12686092387930106
-0.025499252748947376
0.2951739021274149
0.16476451113977592
0.022656891128298537
0.08377805976843793
0.10207286218447928
0.15513093723269017
0.22372803020143164
-0.10326677955329536
0.14975005647699816
0.08151999050028216
0.187352025318523
0.06970493193103396
0.1893217979254543
0.028410723085662296
0.06053270525633142
0.010939891962479534
0.11199577524275439
-0.031101571108306275
0.08261949730496061
0.1053957654590553
0.061062571093001346
0.1294442821164081
0.10076728529205382
0.21674985907762173
0.08603182280295663
-0.15085146930149473
0.012508052744378356
0.09771726195890788
0.13793367001577506
-0.058575837604002354
0.08136315241922111
0.03937047863022093
0.07773645065319934
-0.051768009776316765
0.11742439935825795
0.25779086918349814
0.0814862308696357
0.08694256662620675
-0.002884268140690871
0.21973658253851544
0.14953814352977088
0.034090422351716346
-0.024015366827926377
0.019126026912111127
0.04117802799430076
0.26876677950797423
0.20656018178801466
0.015637401953624716
0.016359238072396892
0.24611407858332324
0.13573045983612694
0.03059290499726111
0.11539343007445459
0.1087602108072994
0.2710690818760363
0.12070328330805877
-0.14951568661206954
0.006950282594299639
0.139862814722379
0.10784392687940525
0.22348722399115306
0.15564795571806564
0.13833335067651203
0.1143669219836647
0.22360180869165242
0.08098343063934511
0.020780514202394795
0.18798946355866936
0.17371496072484283
0.1241676437793206
0.2921240161971047
-0.11979645100581121
0.0019358266159515622
1.006105037990692
0.09451382110300803
-0.09750161894012903
-0.0527880505993204
0.05648923654554351
0.0306855676188119
0.18971284535940902
0.17141541123687754
0.17554969525128716
0.32326235710621914
0.2720339995784926
0.40375071063228746
0.19658858685128341
0.3059464974637569
0.1097920129868113
0.24841425939699768
0.2754393922759123
0.23508984060026816
0.11171720899694249
-0.00012463627294014012
0.05144536208317828
0.08424142593679504
0.08604330922538203
0.0698134323604327
0.06652108433268349
0.044856780112776794
0.04187813628106846
0.1698915648117411
0.13923920820642322
0.1397511281916378
0.10000627117179085
0.031851667309890655
0.003211328400337443
0.005742562882435659
0.03513639705629778
0.07198370744855676
0.005018179594056815
0.21791989992048355
0.16125747390265896
0.18036628280050088
0.06305491228543945
0.05398817265486097
0.12440052360813708
0.10566747712370789
0.20547632740678273
0.20826670138996176
0.07565102070303871
0.062157587837828814
0.1261016284941414
0.0668417365032794
0.07023313817998982
0.019797961745307333
0.11142522114122053
0.1240137370122749
-0.0384339573583968
0.04162808263863615
0.04194869756348826
-0.03342233563742342
0.18872778306006976
0.04234729480983191
0.0062903989857746034
0.13118863536843806
0.06597758513627446
0.2281402456469694
0.07904757606486637
-0.0817173872064344
0.20605259513644683
0.026923945210487008
0.053885321668585257
0.12006777929015161
0.23983425589435448
0.16766602981089404
0.17624845983397774
-0.001731737588994517
0.062156084294508473
0.09208625045126143
-0.04481189389603005
0.022502606430250774
0.1749775924659589
0.02067130244413208
0.13795995950092804
0.05318042499067931
0.14942653719212173
0.07247720520925457
0.1075801789712198
-0.01111038994030246
0.12798543377917004
0.2225054651683256
0.018452900135965886
0.15317617974071257
0.04797431720148813
-0.06997671669321269
-0.013124028474548743
-0.03351374785999074
0.10696178376427203
0.20343381929756277
-0.15387436988606848
0.03333879689280925
0.20019668972360782
0.01834534479306773
-0.06836414480443556
0.08063658456537423
-0.03410463864279405
-0.06543058087854736
0.023526733643345406
0.20379962765274
0.03362972177001998
0.11757889927619763
0.1552205696917957
0.0112375644917391
0.05009152878931676
0.058336279608543165
-0.030736734786673728
0.02725321563906051
0.04789588340071921
0.12290197584871085
-0.013221088246372456
-0.001341604376783198
0.02466075134753451
-0.005371641714680561
0.10088393352352308
0.1035623707994551
0.057196400944515946
0.04855396735555874
0.16955231603406162
-0.015713341859513744
0.1254328729370656
0.1437549886972016
-0.026853213048704305
0.106586880642622
0.09850704409572092
-0.061924111976095444
0.22061568080429256
0.03457749154288607
-0.0734598503122859
-0.017892333395735704
0.14835859631000237
0.12566177852426907
-0.021635858131107744
0.05338828692271635
0.04462657684996427
0.12643907851109748
0.239092614831356
0.08990605919223377
-0.1633318106507232
-0.05569844663806692
0.054115789427827785
0.0796623035314653
-0.08829847674851163
0.08041635908934422
0.009899464549017349
0.013072387241758188
0.15600265280670517
0.008849503692088777
-0.002480542214303008
0.02493684508240798
0.0006324707348609668
-0.10248869740572776
0.11795657615316403
0.03401893664560728
0.29826369790664853
-0.00750960138622267
-0.062264571583666876
0.10095016793296983
-0.08960183655836905
0.14731614917156644
0.190175199979309
0.06895693794147045
0.008992647275521612
0.03835619455274425
0.22289502622688973
-0.07044127499706354
0.031327449749480506
0.030019154992240844
0.1108516820986884
0.003296579997839638
-0.16902500799127645
0.035765718889005454
-0.0064991501070267785
-0.04231986348298332
0.004672777675610883
0.08504860223169608
0.04479318706101575
0.06609148645376203
0.29767334650677124
-0.017176541947612596
0.003291422135668097
0.09218355120212379
-0.08448639946661143
-0.05342540923918348
-0.045873539709136144
0.09167258166676005
0.002969749810911984
-0.1647640776127028
0.012072313094786867
0.09003123070342016
-0.043604707211110566
-0.0847555367428397
-0.03445083674067933
-0.0743533001208912
0.0678357823407426
0.0443630864716943
-0.003728108020328587
-0.05476889575706873
-0.005494013821556443
0.05957224813737928
-0.032858540599508955
0.06498425888381279
-0.04227724554682995
-0.04252504509273957
-0.0391678888882394
0.09441405070195534
-0.013118145047560675
0.16092637404665194
-0.03430362189029201
-0.05022213179706991
-0.0700311145626896
-0.00932123095228582
0.04100808374919952
-0.06340617240674931
0.24559905252563588
0.0055969216095790725
-0.05363661733334999
0.8628547863059279
-0.0702576361727986
-0.10594739917811863
0.12190303131230283
-0.03571108867771925
-0.07643446957808642
-0.11385369521261765
0.009863536856007438
0.1606125814576279
0.055854276377948125
0.31274474161655014
0.2675919655463644
0.34261002026346804
0.45689140769364583
0.21508685999184562
0.2622517129982799
0.20861663626454044
0.0676571502335499
-0.04211902626144398
0.05719746325932101
0.1014233624073568
-0.06323002796469551
0.02659153319381061
0.019203187945215184
0.0014230828970742933
-0.049284657959092114
0.05171397627982469
0.02757367291699525
0.06114460495483768
0.013217345303811552
-0.07169326577445814
0.15433367594770467
-0.14357347146956395
0.06095979485485098
-0.09773637835026465
0.016119628839878667
-0.13900859222233777
0.058289403459715367
-0.054228178014128776
0.03817770856029065
-0.1158919535354979
0.018056717098166235
-0.0250521258360306
-0.08439949362210213
0.11429933737230172
0.04222170723249466
-0.06369160473552647
0.12418543531170594
-0.005019428193299808
-0.053360615597798394
-0.0934779791957003
0.03943402476065448
-0.0007861949150677963
-0.2091998796875514
-0.04778284715365569
-0.0049604031431455045
-0.0910022661428162
0.045310790013948166
-0.029054911678485944
-0.003520055174721492
-0.0801160808093545
-0.11909679653815942
-0.19367282324958002
-0.022743558759818892
0.026764329105842914
0.08586886505430275
-0.01520740469174928
0.1326203336756428
0.010524052680943408
0.1276992835449473
-0.03764607724754766
-0.19086019989702027
0.046855400809545214
-0.004858022796913546
-0.11913512686319122
0.19252909429656798
0.001251340286208276
0.09076071546786284
0.029157249336848788
-0.004433980668064448
0.07948335655062103
-0.10032997891942094
0.0026186578828193835
0.03598427682298713
-0.09762253179767677
-0.01563051556821358
0.053410250307342644
0.08688460271925763
-0.060814242164521436
-0.0833398247451783
-0.10870761335832528
-0.024589903518901432
0.02707378899634416
-0.12661732749564955
-0.06614821553236969
-0.005383279536380896
-0.06681067812309045
-0.1069909447762017
-0.07861738976179836
-0.11832631441888665
-0.02653984173136846
-0.04347397417378918
-0.09855211828771279
-0.2336256424354998
0.13160453257968252
-0.18424788978643655
-0.039257012801803555
-0.07230219457637024
-0.12063247524648565
-0.11853849246831813
-0.11199971919421517
0.024258096738871457
0.08087495570632966
-0.1517138067787016
-0.10899487284644195
-0.03132766735089419
-0.11302553070830507
0.002449552805013508
-0.08435291842056833
0.052365438916943674
-0.16029490376027258
0.07772601798588247
-0.027471486887011468
-0.050994766566688284
-0.024674556162231354
-0.09861063939329362
0.054796748674526566
-0.006937880142424038
0.09755302388817794
-0.024567163811191554
-0.0621182923046066
-0.059301029829930206
-0.027478021690173632
-0.1360603472737793
0.0030197099936433713
0.09461587024585694
-0.022045941968675285
-0.09486285623631598
0.04098183053085011
-0.1913073721913104
0.013984523452731268
-0.25063444679550484
-0.06636928066639222
-0.23904504547170718
-0.21452219155426897
-0.07734900843134676
-0.05952725483493346
-0.0007876760590695281
-0.11470857876794097
-0.12133113779324436
-0.13060808281147426
-0.11015665872123354
-0.046591982352889784
-0.02983563274485957
0.02378660973288424
-0.07332349274877598
-0.04622825355207652
0.03763566740653587
-0.15274546265680744
-0.0801569307372689
-0.007121493401098883
-0.05885489716441253
-0.016905273845013495
0.017746976879943824
-0.12151162212190109
-0.08282868250121304
0.029142625443031908
-0.0964829419714274
-0.09446223288506557
0.08789074796462411
-0.16386233123156113
-0.113568909505287
-0.015469726887453461
-0.12533062932078798
0.03494148504028004
-0.16694772294376972
-0.3346875972716127
-0.011930762986681609
-0.18869078747519058
0.021683625065180928
-0.11316488503053071
-0.1663541739663208
-0.10533372055769821
-0.10819457931119475
-0.1295683082996901
-0.08957597151230913
0.04324787741708906
-0.12707614549416216
-0.19352752059095557
-0.18478041225074776
-0.1330605791253872
-0.297565296723051
0.004509950544591218
-0.21985866127381093
-0.07886454938906437
-0.02613202996358463
-0.09657233337506221
-0.17728223531449222
-0.2493828532179644
-0.09001128954637215
-0.24066487246850116
0.0019464957307241543
-0.1674011960621412
-0.22144794052921463
-0.10379626733683539
-0.22314500495200362
-0.052906134439388165
-0.01218548607924197
-0.13217316262109594
-0.018971178757037424
-0.1603257640446582
0.03321112673469326
-0.11745356100357465
-0.14786765318326542
-0.10203227945422899
-0.11623359633639617
-0.04408097090616228
-0.11986458989040372
-0.15409508774662165
-0.20534819519524972
-0.0319305442261323
-0.03911972358896952
-0.23126475906466915
-0.09451525908776882
0.05470376996190164
-0.24183948697136776
-0.01324241351699959
0.07440449417110707
0.03703502988594157
-0.07953333149828737
-0.21649213707299145
-0.17183279115898437
-0.09313687002269576
-0.1702019714577976
-0.08183274842840993
-0.2700602575822494
-0.09052807635112367
-0.16897417305423396
-0.0750476639438838
-0.11779836416020929
-0.16715542435549852
-0.09787412148024639
-0.11258640580323914
-0.14797696711061947
-0.13735027681467993
-0.09994990156576167
-0.17535864833096187
-0.27503645284506006
-0.053176329133238574
-0.2776158328984737
0.018885438363391377
-0.06875433705839679
-0.21870572841906827
0.06305244920210745
-0.1958088331677606
0.11586570934485227
-0.040847797410712317
0.0009450254968124405
-0.17801009720949063
-0.004583333494690214
-0.23510198645106423
-0.1076381255043003
0.020684712402781663
-0.013993194154853228
-0.272385894528418
-0.23725028421144956
-0.22353830256246576
-0.08199977571994838
-0.20227656716839298
-0.1661297783356855
0.0411903149931305
-0.11835188183946414
-0.07152485897889796
-0.05208846546695509
-0.13960519248002284
0.13170833243016894
-0.12987111730499273
-0.2110012589287089
-0.11054365453258876
-0.23586576490849037
-0.022155422008659442
-0.04942139428296194
-0.29378594955400744
0.7879475679493013
-0.15022222288692383
-0.31839246328482
-0.09274360789990319
0.03981103063013246
0.03531154013329697
-0.13748693464927644
0.06057295186431538
0.048945269120858934
-0.009130530733033812
0.0631560892398608
0.02117381862917392
0.2572165088481248
0.23679804766350396
0.10303712780537802
0.27622701681035705
0.11066212571641626
-0.2318105881594305
0.02975242736511091
-0.04023512948597223
-0.20894100843260988
-0.024964137319190866
0.011920538886585272
-0.04286924861760833
-0.41110291599027593
-0.1760343963908192
-0.011520065605665389
-0.07622068250255727
-0.2663801600081722
-0.12110110296961658
-0.15914666273446815
-0.043901134446856074
-0.05370581020667473
-0.0014616405541621885
0.12285317713583777
-0.051010533096326124
-0.0699977812489846
0.04726479572999563
0.05429000210335978
-0.23215713138720379
-0.0941445735179668
-0.07726133145913194
-0.19273694797690938
-0.1443016190886771
-0.07585105061215557
-0.15379663034993474
-0.09403523013585054
-0.14888046389467116
-0.01954422189613496
-0.11367296728661991
-0.17907835142070389
-0.05538095040522732
-0.04527748946539704
-0.09617035274804889
-0.08495722927403906
0.11606803502639966
-0.08868949666173914
-0.11727162152132228
-0.03675576453154552
-0.24316257489082943
0.05340596000011755
-0.0796538684805414
0.05771024056242979
-0.10666418875479944
-0.12047150854812216
-0.047525659009142136
-0.012679055215513282
-0.3035061927024728
0.061008159010871976
-0.01484737810055213
0.05568363167845852
-0.12339566263448357
0.08191146581684634
-0.14482435123817955
-0.06103977190888667
0.11492131451988843
-0.17060398194239448
0.0855315510003832
-0.05052081756185459
-0.08093911399591815
-0.10381960077013969
-0.14066567173371103
-0.07937401282894874
-0.04643925004517305
0.03246130376074083
-0.1863925784919735
-0.15112183123793627
-0.22017472927662196
-0.0069704088717228024
