ECG
1.0306512567655144
-0.12876989528448096
-0.08385045011322204
-0.13287708649279223
0.0009165399061736525
-0.017934953041807845
0.04158150841833187
0.032558682564621876
0.08110818294744526
0.12746156272119863
0.26037041092506097
0.30803699174659716
0.3085457746467504
0.27195478697592823
0.29123379367980073
0.12057323392768302
0.15596171820835106
0.1499186759657345
0.04960382536385469
0.012160602429498808
-0.04837408808172048
0.06929922518126719
-0.0007939490385651445
-0.004592850238967019
0.03287628172376574
0.0048893566578179885
0.0756994506460039
0.003783726099304715
0.020022297703868604
0.015352499174924355
-0.05609927397825576
0.0010562719152558998
0.14139953348252413
0.0801573903166521
-0.03000972115755768
0.021428983107849426
0.0019450283215636556
0.06009353193557034
-0.002582668987788011
0.021591625487441184
0.04608579113246784
-0.02775912690405392
0.06544420197986289
0.00776837041694713
0.02899884695511804
-0.05509756882406078
0.07103396073407542
0.03437486964852218
-0.00034035343483963115
0.0356230746337816
0.03058918873133409
0.06571725336744513
0.09523664999257132
-0.005464437074964107
-0.057017461996449685
0.15444535714341937
0.08772469202066932
0.1307430552016626
0.07032131475933824
0.06867072971537422
0.1368830076422001
-0.004824980743129849
0.03600951639189819
-0.06782290063461353
0.00923676735573322
0.029079829048211357
0.012038654358894105
0.02812671736658555
0.039385549734914434
0.06579334171501483
0.10121096185402814
0.07269356331619978
0.07557562574642021
0.11706555041276796
0.08526873215570371
0.0915394565631632
-0.02171351600294196
0.040195658003771624
-0.06221504838940077
0.05346890541982331
0.08258481732399378
0.19098967893202834
0.07278304489662502
0.0901721513610359
0.053948055716568445
0.0365477417308698
-0.024434451088915163
0.09991751521330519
0.07802809521828209
0.051771734987674164
0.09902857852432742
0.10106486275822973
0.09409384094134837
0.030147265003714438
0.07992009433946966
0.16762924463698087
-0.0045412075257576096
0.030772321672801268
0.09230658378208043
0.10014803597717564
-0.005719272960049308
0.03065567339642434
0.03750642776700049
0.025419863283874577
0.03515626679451789
0.10198770450956035
0.11276398589980725
0.16380169698616803
0.11396586963904873
0.07569743715997215
0.10669223406131254
0.13623512751739436
0.03983757911441324
0.04167248185341617
-0.0037697115297680023
0.02966473406686393
0.01835001195043013
0.09702665805750878
0.0842309677312576
0.09682991912884104
0.03515464194450666
0.05176401881751708
-0.02352114945946543
0.10011836909139858
0.08667331251342268
0.027188107678557345
-0.00515106572765732
0.12331132764553784
0.09197439258023223
0.10913852840106583
-0.021605159433061558
0.05541254055475686
0.09127227741130975
0.018934573310375055
0.12180977036143957
0.02301222938272235
0.13111217409246506
0.11468474358441427
0.13236621443384816
0.03276602275531088
0.08880070165837527
0.08552746045766825
0.022629712849128007
0.13691450440893332
0.10861598053164731
-0.012659015967765641
0.1046492415156874
0.003151495011921579
0.20389860250975803
0.06088302784359366
0.08845154617469815
0.08055040196809428
-0.0006481541014408954
0.11330985695023325
0.05046244035704615
0.14533166465610858
0.07577962441967787
0.12007948991173457
0.03173539263222385
0.07362702879948224
0.03577087925508091
0.03735663747433185
0.15177094917415165
0.07801238420102809
0.08736594707365174
0.13185405464548228
0.054634390231364745
0.0033007680955195323
0.12543707204925855
0.06871125465679329
0.1040772204455793
0.11751967273838969
0.08157805047462874
0.08076503122633978
0.034666689703249674
0.13074279538751588
0.1375109818244436
0.11266779646677287
0.05870322948936748
0.17324758751489017
0.07146550371715722
0.09655088561094821
0.09970238489732419
0.15353278614586963
0.06912524653770662
0.15703362137548077
0.14450097823542613
0.08994017074980115
0.16651628416828795
0.08197783808881878
0.057349091280815605
0.11535186144768214
0.16143887618229746
0.06754276814551158
0.13109385470814316
0.11490743546818104
0.07295598981399967
0.07247735405860012
0.09249381137692836
0.11671736888998029
0.14721689985692105
0.09093304575649452
0.09811420121729442
0.10048237866812118
0.07411862137443337
0.13106141967789603
0.05327919729448767
-0.01183119594756564
0.14048882154405137
0.08553410273563379
0.11726581068556291
-0.07896166983479165
0.0933883411374225
1.1024883373102372
-0.14139222377456948
-0.03417467191591708
0.0989027479968293
0.09587858344588697
0.07374757465715386
0.04516494208729449
0.19797086380385198
0.2007953197898081
0.3108025169069507
0.35877596553031255
0.3754856417379642
0.29172065481081766
0.3511563055323223
0.3900285735587461
0.2762102075746645
0.254170172194853
0.11954893024184537
0.14741761021230762
0.06822301404791065
0.013541577192813486
0.15355756148049318
0.12115699970166277
0.1382792584899172
0.15690208346844098
0.12513534582164978
0.10519894290163177
0.1297126324813596
0.053323316190024804
0.14893189838701065
0.10832652159807436
0.09660773960894574
0.10370625617462854
0.08844111238529682
0.11993236540796838
0.08287507982317452
0.1277100351990416
0.11468721379167364
0.10705601225075861
0.08592547320898436
0.030746669637479074
0.06864000963369951
0.07629269494004805
0.16651994699782702
0.14663502026107478
0.07657166362098264
0.07093139262528012
0.026214007034733117
0.05735899521485967
0.13139096243334605
0.14562073419945193
0.04894817348522849
0.060962924891569945
0.08998891649167168
0.17200087820547966
0.09395988636247822
0.09601923195777838
0.12963427483821463
0.1120424625872081
0.18302435155270524
0.1457241031485143
0.193398251102834
0.08707949708125264
0.1004932867211167
-0.056124530791632654
0.13858091063201922
0.10725786145477106
0.0828757413816418
0.08796610760307409
0.12839721301830978
0.1522812162606183
0.10080034827171958
0.1005837520116445
0.020824451803381855
0.05936936053800666
0.029024041265468037
0.0732681980600693
0.16120445302061087
0.08019704091173568
0.10031356198030421
-0.009437023331243063
0.016566626934578332
0.018128923001850095
0.08266931506090432
0.12502877026443132
0.05033451755059421
0.19105250805034296
0.057365052701384124
0.015739173246016272
0.12255110089880222
0.026510604435044577
0.12602601760862692
0.051051765653589085
0.1580938146347341
0.050045567277034096
0.09875641718329053
0.06762552538741776
0.16563142316058796
0.1415789838482845
0.10018257423205341
0.06229656598288662
0.14497501929212692
0.046479674848615406
0.07121230851367341
0.08247410010731518
0.08288124482704629
0.0455723311191111
0.13967086903049553
0.08437504764477718
0.07070848729603488
0.09176831006698018
0.100410659154285
-0.03854805109162315
0.11400473370255905
0.12590442592259218
0.08467829673389543
0.145641895439943
0.09039367127132009
0.11489795764330502
0.12315559239016506
0.036365615587455505
0.10993796464445271
0.17213573233163293
0.09485478321438623
0.02284894497412608
0.07644012384582823
0.06540476289196114
0.1739340795418195
0.14365463354914076
0.1877886586010435
0.12954132703352744
0.029526622321192464
0.031602474742697256
0.13769440650615433
0.04224116091406051
0.07592375197538496
0.11324287147131182
0.09328885584147013
0.0396055866964019
0.0551403485528106
0.0805518536445472
0.039576328350193875
0.15185561736894182
0.13225401232149991
0.15111521307728376
0.04358649734432037
0.0731862425990713
0.04723552226906873
0.17851778171587884
0.12805545701546817
0.10639913069053371
0.12845075901095893
0.06174323204059927
0.1095284406838003
0.07686722018289315
0.13894690120471295
-0.009229076251766388
0.06249486378891149
0.04044341700535902
-0.02140521159707892
0.0395074136985824
0.11317176524847662
0.04912859698009156
0.12630789007802928
0.037708771129404614
0.08082583639985642
0.0172632002001281
0.07298912469992185
0.12467040940027156
0.13644127849043153
0.0943673215940933
0.021953409201880977
0.11235718757137553
0.10848677947201021
0.07023783435248236
0.11942108525707215
0.03896119129751817
-0.00518033826109833
0.05556553429482745
0.007456545723691414
0.09171769214448326
0.1029628118097741
0.08217650316395271
0.04762110002590675
-0.0273358950208612
0.06989958194087009
0.08257222530117807
0.08313495650574912
0.10649062393366349
0.08654673793308593
0.07128044840511881
0.08011360114372548
0.07165588687414133
0.038870761820210833
0.0574386994641256
-0.07464147942924018
-0.05221136124061717
1.0778711890053252
-0.11508408795922258
-0.04480065825418955
-0.06298539557528032
-0.03696298266129981
0.00400155236521256
0.17347099182009307
0.08897593445844434
0.22091126984297427
0.22476359795490222
0.3345488081801421
0.3348571492325596
0.3769351840051317
0.3535514657745311
0.2152827539724515
0.279820123797048
0.21556344677725722
0.14478490712363212
0.1006333610161434
0.08842439786371806
0.004513731904393421
0.06792585124597843
0.06912516628660703
0.1608721686747397
0.027157553272527408
0.011120800002342994
0.14584220238374926
-0.050329279299681534
0.024947677050508467
-0.0068204643044992574
0.05230571993038626
-0.006036531179680581
0.015227603255716482
0.12299003032912616
0.010707196777919346
0.11511502245637475
0.03722789968716028
0.10316448335482478
-0.01627114539458427
-0.04606368840936191
0.012570832665775019
0.026933937102568997
0.0021396720280507965
-0.01608714897433287
0.08802493399140969
0.015012779107574602
0.13304733806367594
0.08727772497732883
0.03103288897105421
0.051714694651597976
-0.03341715155378208
0.11915790104782249
0.03881910751831757
-0.04409878180009469
0.034706081787228324
0.008686229057914841
0.03591251979482757
0.09523265694740839
-0.00047410421927490676
0.08565241424644487
0.013523571368327467
0.0852214705275871
-0.11284779997072497
0.06300684145113028
-0.019719695972778468
0.005839739283898655
-0.07851425645065294
-0.05084857044467969
0.0435491510567052
0.054741326023539365
0.003389632233075564
-0.033890412710159336
-0.06203051903574034
0.1294225721328823
-0.05121212633682977
0.04919613066726585
0.08209874354771202
0.015424651421676648
-0.10391535526058968
-0.02469682265856191
0.03574548222036521
0.015151150855560711
0.05093115194907526
-0.02234635856844431
0.0045445301113762535
-0.08009295647734543
-0.006282867584656567
0.014146367342463545
-0.09540476512902892
-0.03717889608651744
-0.027305205418402992
0.013330350662579085
-0.03950061408472544
-0.022327750841138642
0.014500836944921679
-0.03077523994431738
-0.08511811171359995
0.028308007376799893
-0.11627647302133842
0.063259185502912
-0.009405507642887431
0.006230063242560579
-0.02932618240757464
-0.007220465778818509
-0.039736200964618065
-0.06042859998328224
-0.04083928713055885
-0.08363969898645585
-0.007428932190786596
0.06947035023055587
-0.015302130532136887
-0.03643865054466844
0.09809506034253387
0.005808729630865098
0.06047603729318445
-0.06751743631146168
-0.034648010591096165
-0.03424412874991237
-0.05459451314386926
0.022135908619508437
-0.10447108746324446
-0.03426040128096362
-0.03641726119147655
-0.04490118766252271
0.0029484321415985462
-0.005394874263799122
-0.0011826364937579902
-0.15852944008100125
0.05240302809961451
0.033104556904213295
-0.017696206511614195
-0.05338891814442852
0.05884542141103627
-0.014572840263017495
-0.004983614192771373
0.036549867059024216
-0.04155439833809507
0.045273276836190895
-0.01111278992312396
0.03413854754468605
-0.10336487887516534
-0.010518992111598964
-0.005079347754645698
-0.05629039346583741
-0.0948802793374526
-0.033269203328580584
-0.006059486966910926
-0.08974647139798289
0.013630623600335762
-0.05250666880857474
0.023541565358204952
-0.1392459188779595
-0.05863101150911244
-0.16389019549740153
0.05730561036493693
-0.026912281442112967
-0.029850074373904887
-0.0715078643032949
0.034393710385134134
-0.015381810239334992
-0.05300473369909011
-0.04331410794192832
-0.0012019828537225621
-0.01335453064111133
-0.08762015563606668
-0.013410577918835202
-0.04141231023542188
-0.09441860612117639
-0.052603977405746814
-0.031547884303826185
-0.06827133335615211
-0.06074367744885855
0.005000328404063864
-0.06628030233983322
-0.1768729992676644
-0.06612958121990566
0.054488352669828086
-0.10986348557077302
-0.01957336055172284
0.008075627058908089
-0.04145124903284594
0.005316280247677531
-0.12182899859068372
0.015629097468270417
-0.11926865419438583
0.0033352316965379325
-0.14999119089850096
-0.04058436891808951
-0.08105014928619657
-0.002719560769285888
-0.056370965076598285
-0.008803056972278532
-0.012465536455604234
-0.17180043576604914
0.019915029407677434
-0.09881563167456422
-0.12938102127194978
-0.0003391792200254165
-0.0398000743531903
-0.1590901715722688
-0.10836591494388785
1.009325033691288
-0.1383629860821426
-0.1631520913875714
-0.12385825051419516
-0.040594059180519
-0.04784810929150995
-0.03559056106344623
-0.047767781496654976
-0.041990159897207294
0.1589717854004609
0.24177963641705072
0.18562812662749992
0.277502959858154
0.23136886266251783
0.15106781818085738
0.1240955621921959
0.12072367071356695
-0.02292628465511566
-0.022503506839579676
-0.11201922437867301
-0.08816808546384791
-0.08396780960400321
-0.1105905693006298
-0.09206952073893467
0.03970234530330194
-0.09470644750576677
-0.18407283692082882
-0.09839613230254016
-0.14642994896169115
0.0049107410151750935
-0.062234546065183936
-0.07164283620978867
-0.08878309271570971
-0.0690252627025584
-0.0683665486717848
-0.10227025097026926
-0.06847576824725574
0.00699225420643973
-0.0029779215233515788
-0.10687217199243154
-0.10807777982704617
-0.04133832564837012
-0.06202255023388285
-0.10129139334363224
-0.08815631470999942
-0.07540036304059235
-0.1465567865726936
-0.0870755636042814
-0.053217026891394154
-0.1170591171408942
-0.15595967315403686
-0.050852655590022285
-0.06312226536598955
-0.01441687662325189
0.012245423944869577
-0.1045417123313447
-0.03951341268846526
-0.04415408732650551
-0.0604936873523793
-0.08074539515984663
-0.003414017833200722
-0.1220035055481262
-0.19344687031711824
-0.09914787555997918
-0.009925128579091308
-0.08542031051853669
-0.21970305672205626
-0.13519308022679985
-0.025259699836405858
-0.18608457229653763
-0.1062350105218626
-0.1290054478235316
-0.13617903005774956
-0.12639644554411808
0.021544095721135192
-0.07171934996800199
-0.10283075271139357
-0.0395169475875794
-0.14935527665645432
-0.2142416727540288
-0.25771144479366487
-0.10785972527461321
-0.07316267960291689
-0.12996439807794405
0.0580052521794452
-0.06971512043280922
-0.09813663383405676
-0.11917304741143857
-0.07341974174821611
-0.14258800559407186
-0.15121111343884497
-0.210537190654707
-0.0805133802896906
-0.14982784418277645
-0.12008443587725197
-0.10874748537906813
-0.09516034536381804
-0.015651817972594198
-0.03861898867376975
-0.06192100437814435
-0.044389914471680524
-0.12606367663314647
-0.05514354942606287
0.007537881225258905
-0.09022581438901678
-0.059744928247426984
-0.055899262843473144
-0.08730003737965764
-0.14905779396270621
-0.10626984490628762
-0.06498609510433107
-0.08420375370230646
-0.027586876650558548
-0.17591812336308377
-0.15533067248132024
-0.17962249765850125
-0.13509664557980172
-0.11084732554106205
-0.10725459076364882
-0.05786734521237702
-0.02539785302836589
-0.05230144256397777
-0.13950907647878794
-0.1614656980652376
-0.07002735245754022
-0.18961294147100077
-0.11446924972500967
-0.04846191775200143
-0.11768700881016741
-0.06596715612567994
-0.1346610451600802
-0.1289252988077903
-0.18767689318708858
-0.11199404176460347
-0.0865036880096895
-0.04142641267755652
-0.1690613426163673
0.00015155762638011105
-0.06575284076863061
-0.10001966204120842
-0.12684897446284016
-0.09309348153904796
-0.03230746109439153
-0.15502880401549335
-0.09729991969333993
-0.051405634994773554
-0.201759337515657
0.012081758703145026
-0.1347960211213256
-0.1292218148042273
0.027012828540158434
-0.09434995067811223
-0.022893563180586052
-0.0757700101174853
-0.13939607760720268
-0.061258588426413414
-0.13714525892713691
-0.0770042436764631
-0.0909892824846238
-0.11176028699419328
-0.13751903739637664
-0.15077910054231308
-0.08792873949603573
-0.09409763257960871
-0.0430065213744752
-0.1619178935120917
-0.11550320880498241
-0.08959418286751374
-0.12705189668676076
-0.06801400675486766
-0.025279517884018984
-0.1840175699053116
-0.07007191156007829
-0.10897890846938016
-0.05260773668573926
-0.014888936076339954
-0.14488116297354026
-0.13134554613408378
-0.052158938786862286
-0.11499439788637432
-0.04263215231549484
-0.09606327535090357
-0.14371599164995955
-0.2014599363882376
-0.13496167561854938
-0.04771269302319988
-0.1569977406138038
-0.030517908656697915
-0.10197120440170322
-0.015517764131042458
-0.07894720845089341
-0.13251340992745572
-0.1301160360784691
-0.07820313317235128
-0.06919023720095478
-0.09365468213567286
-0.15347493266841267
-0.13250317677967158
-0.08917663983713606
-0.08576674781450279
-0.14846807791476646
-0.10011158537434862
-0.1139186875020064
-0.007396326771843362
-0.0559851168701923
-0.09239779130203268
-0.09659181201690266
-0.10027438193945841
-0.1483100711090879
-0.17520639187635254
0.913133989969438
-0.30624260878364584
-0.16477348087573165
-0.09828292556351215
-0.11318004663618325
-0.05044808782856668
-0.053652138945099306
0.07476795031953647
0.08138912704690421
0.1332645116535528
0.1919933907892051
0.12847487301847638
0.2205572445651623
0.24954188785112622
0.23144036792784195
0.12312042981185262
0.12035660665475958
0.0010667725201377609
-0.11005159518611858
-0.10302568856338629
-0.0837826077171784
-0.12203168314878757
-0.1301927546501642
-0.10059579646621913
-0.11645812179792307
0.002057801744079088
-0.10314952966152963
-0.053504866959957834
-0.029310602223384982
-0.13150945266993688
-0.062363029195381794
-0.11619516036814342
-0.11725028367574843
-0.012217596143459283
-0.05384217379118229
0.021456269902396158
-0.06944548774121616
-0.06934107002129718
-0.04025202187478952
-0.13969196246328447
-0.13475297590133967
-0.07605762733478003
-0.029114334640338392
-0.12480914577206434
-0.03848242824272079
-0.05940957969555164
-0.06603070985098951
-0.04784322236990613
-0.06983572213997077
-0.002083284031406951
-0.049296949724475014
-0.010741797149285706
-0.05384482064724495
-0.07944424556160415
-0.11006197200394731
-0.06007580184825539
-0.08346881209875531
-0.16185396717268455
-0.12386415976527626
-0.06247524796874389
-0.07601987956222866
-0.06907959438128977
-0.06673218862229405
-0.0967357343129896
-0.024057998340845613
-0.08582451821865889
-0.06446583791269792
-0.010089644868852311
0.025947981063757036
-0.020395148159318054
-0.015471581488528036
-0.13175505287610506
-0.0890174636652059
-0.02186580804321718
-0.045358286998207084
-0.17424189666547565
-0.018586987020861916
-0.09617524315912021
-0.03580857454918524
-0.1903520917930454
-0.11013595188852479
-0.12225008705437118
-0.1448622085120168
-0.12328369593696399
-0.08679822781495992
-0.08599943598213414
0.012705060219035766
-0.18142204444620455
-0.09707507697808913
-0.03548524068310943
-0.032646794614579394
-0.043804492574680796
-0.08693753037750968
-0.0921575610501908
-0.029927356341294648
-0.08653953205542776
-0.03674546994362113
-0.09411165452080913
0.005204875271286054
0.017138805134489232
-0.11355542977566414
-0.15229116204631687
-0.023614631852900886
0.021671422919422298
-0.029745591015116785
-0.04915815838858882
-0.05079981928488661
-0.017932116049136502
0.01196835352606846
-0.07158909764032967
-0.06450124229330804
-0.0767223135495006
-0.01397456576313041
-0.08572975403667255
-0.061529826257555396
-0.018981392652447505
-0.06617127091948487
-0.033027125815150576
-0.07487839203394189
-0.03569862627690712
-0.07333825835020266
-0.0837991374729011
-0.021819557498299523
-0.08844976737680663
-0.031017264475358547
-0.058267657232647124
-0.01454886258366678
-0.04524878164038419
-0.044455244790763015
0.0033316861139566153
-0.027566984043869466
-0.016883162322703784
0.028920840431843845
0.007926161947111085
-0.026633609795262317
-0.05628103099873813
0.00028773329041386145
-0.08402871972870854
0.05735521402246743
-0.05320098076422017
0.0934113106876289
-0.05647344682151613
-0.009194742250830092
0.016909115673557473
-0.03305750588023944
-0.07951934930055857
0.053131612494717304
0.012898468887413882
-0.009965972195411173
0.03559882921330779
-0.02504479944634037
0.010165101365687938
-0.056664391580434
-0.012666116127918172
-0.029575437645153357
-0.03621415170643414
-0.030999114656333367
0.00926738684588151
0.07655557292662377
0.01388387964988229
-0.046486945046972275
-0.05237336483645755
-0.012710048144801343
-0.037822644118387164
-0.061115197336570004
-0.028865931263875017
-0.010256187553453802
-0.0902428298639752
-0.12658428468010993
-0.018898638453713677
-0.023260136316583423
-0.053451349139310114
-0.017133448329434506
-0.023568876921608542
-0.002548181450072119
-0.00031716068285515516
0.025594833542746352
-0.02117293155751111
0.0288475384380716
0.053020376223234224
-0.10874756356555464
0.11495076984143196
0.0017769421363131148
-0.0299065198974863
-0.05151745577565199
-0.05050774713520009
-0.005749322718743901
-0.09624844915706789
0.07276695570469213
-0.01973688028901284
0.03630356926844551
0.053713151927874146
-0.00015826296376661962
0.016790201831444734
0.010575718813986015
0.00022580832144263735
1.0838577437007337
-0.19123444165533146
-0.053028287710275075
-0.04424261937311107
-0.009599563378035879
-0.019385114505669584
0.006141213412086163
0.11648242509740536
0.18368627465000414
0.1715519139531567
0.31982012061634807
0.2870643995108162
0.307459683586838
0.3229749802854028
0.28112669097383064
0.22235469367967925
0.22531326395418075
0.1185994225176231
0.1007795994361554
0.01607673394922704
0.01901639926400344
-0.017020596513361023
-0.03142626461780346
0.05039935159463766
-0.016798289147945775
0.024185196743828706
0.011732586031912016
-0.006941766060550438
-0.03419733195033582
-0.0615240888758993
0.02927910474884027
0.030473237707398543
0.03778958881550208
0.029781073946156367
0.05412873310569702
0.065152094624202
-0.006933557176776357
0.02260571468238745
0.12424071459206715
0.05151535202447874
0.10836636010409964
0.0026633219558923546
0.13305067325632822
0.07414471941963556
0.017104431370778495
-0.0004755078869393692
0.10423529187818488
0.060613606398311315
-0.014345959653736057
0.05196558938542941
0.005611972772984496
-0.03157820228200346
0.0646526049105878
0.05129812558310448
0.09060219466798272
-0.058126006036692136
0.027262021067720677
0.008423843188703047
0.008575045306456648
0.04927721150313663
0.10388494498125572
0.05236072218899023
0.048877265498746575
0.059582901642078856
0.045689342653320274
0.04648899504993747
0.048478494125795454
-0.007982761723926715
0.07772847197333024
0.07067767007238883
0.09148856425076102
0.0683195449684928
0.11281075599366402
0.1035414450606027
0.065276318528204
0.11461122482680564
0.06892784923091402
0.1019796782944148
0.025165076287014202
0.04816219271801175
-0.005736358973888418
0.06598272800765444
0.1099393899121183
0.034000296737067365
0.035102916133759245
0.11649236598397182
-0.045259152011328276
0.04109136606920952
0.11572325571299738
0.03681607676278932
0.05061459598445624
0.14307673644706587
0.1264179150333382
0.05651666056929202
0.07786078690336601
0.11496650735777231
0.0839637680036373
0.04609442582217327
0.15584968113023778
0.08528760200883073
0.18416961948764693
0.10900967475281606
0.11564421707532055
0.020795246853687242
0.10767017640225664
0.09959365597238166
0.10590997000586186
0.01201523078207694
0.13097936156666345
0.018137291243347148
0.13926992522580267
0.07964715170601483
0.09263800334602665
0.10043008008399808
0.06183651374485408
0.04672943105271116
0.029803774934606064
0.09291069609780832
0.03408957694181425
0.059956700590597024
0.09450113619496582
0.07983524464344896
0.1839537760805194
0.030369724505219242
0.057361742450318415
0.06698637180503098
0.11083445216755333
0.07609347242758847
0.0721265828605983
0.03556046343623853
0.07382775502719438
0.1126113915579198
0.05667127770591443
0.06519993413626368
0.06064873333268968
0.13804409876622892
0.014468624689288556
0.04447167925641837
0.007063691677858364
0.13620327883847724
0.16260735716341085
0.026742955509161725
0.1325324215796683
0.07927032605087589
0.07937218054075566
0.1625205987383525
0.046357640324062165
0.1062077432951495
0.03270053226862843
0.10745386562811216
0.05144460086450934
0.13691474603493256
-0.041713229836565474
0.13153866287014943
0.06723050466101561
0.08252131025897089
0.07306768612017377
0.06854300672020633
0.0805877704631989
0.11393809882296832
0.004765406737578026
0.055779073141484885
0.11848195261488259
0.13421315289498817
0.06956301554277246
0.060669157803887735
0.1315167006417427
0.10424574244788369
0.022159935946557435
0.039770460816403674
0.17461631556418078
-0.025210274421788123
0.06599538079611532
0.1376854464340268
0.10926099131893442
0.12123721617423128
0.11149170176020717
0.11190965164679174
0.17136349424498704
0.09293549331254244
0.1044758294391038
0.16256899745674822
0.14394225311637512
0.07296654442631509
0.14412986525125324
0.09302927870179428
0.08052390774695983
0.09633243905406179
0.1311394628424837
0.0356220574705882
0.015511968612348104
0.07513158619429139
0.10891107222249391
0.10416921050224673
0.060437781732449916
0.05044651976069843
0.1427799260216402
0.095510706543361
0.11958970756214338
0.07684510436272152
0.09807132266366511
0.08429865523842461
0.17251789868872258
0.11993859867738507
0.11607412970549061
0.13030907641866374
0.04994766135677435
0.010018025129685332
0.11304495839149392
0.05284651737364089
0.06622262019161802
1.1305975943730593
-0.003143256430414375
0.024415392717046458
0.00532762290986484
0.17238821016736222
0.07198451174007245
0.19659449748724844
0.14859981758038232
0.16890510615987486
0.3146273454064407
0.3948612392690755
0.3842058348618921
0.42011644528724945
0.40733239201273375
0.31745289922342507
0.3037364467808948
0.3289602933394239
0.17980737803664953
0.16975056181065512
0.18324144971620215
0.06425023239784138
0.17650751866463327
0.10248088117712476
0.0694170682097875
0.08648387278802411
0.141847012046636
0.09269570380250278
0.17382147576547347
-0.006949298018071606
0.046386751686446875
0.07354674402394391
0.09365862681936599
0.1440148344512311
0.19638934714248976
0.0587279087505736
0.07223067506149274
0.1403243326398521
0.13146873421768726
0.17796273089247622
0.09775544536763019
0.17893455240105027
0.12323047946445075
0.0820332417714153
0.007132745499556531
0.06732746146584781
0.04408682201578182
0.16183391097510313
0.14064228687239333
0.07627215597102797
0.1000226983971343
0.051707777737294305
0.004838355984791834
0.11566304932836025
0.1006155626841152
0.05048147990880579
0.16642521321465414
0.09739215169586593
0.18393917175947955
0.108053200168394
0.09561801880766463
0.13240588244327162
0.1578202933572947
0.1269869292924621
0.16886299964556967
0.09036588700013293
0.1012503472877228
0.1286625198376061
0.062267643253160594
0.08420921867968464
0.17680711192643672
0.049802842918500345
0.11807991995452491
0.09083421934498746
0.11520303293747748
0.0891812746552471
0.0997657753623871
0.07977747811221762
0.15631322671900114
0.07673273982706842
0.14845173055922317
0.17044819086138627
0.10695166044373472
0.08802039861326796
0.11871757050005757
0.03999233785988162
0.06753696577504303
0.16621807365673577
0.0344314372596572
0.1001580417395473
0.08876157094757778
0.07372196406833832
0.08046492860042628
0.10354196783921903
0.02897916254769843
0.04148673812206019
-0.023286463999823412
0.006956048587661454
0.0867548348504791
0.06955588640334139
0.01931875679498342
0.05301094344443515
0.028740513463199446
0.14410327514942595
0.14546465276302564
0.16142826554685824
0.07301493473171916
0.12078079112269106
0.10380103033770378
0.09215020103406256
0.11988273823552903
0.1504503365691065
0.011776750871330982
0.16013634137715324
0.013909397518611852
0.1421515554218365
0.06083446883128135
0.16986148862916983
0.08489703729374622
0.12400140202093071
0.12430383250402559
0.06565144957456047
0.017783131518545783
0.04057145266538322
0.059781544555753255
0.1057366021202037
0.06254311986680339
0.054118019449639794
0.04609761589510903
0.012350923751497794
-0.00853606627833095
0.011983362100432243
0.09788910002968948
0.039704226584636536
0.11853445282839656
0.03125277886170335
0.0730763889928997
0.028736959761483806
0.14203379753543882
0.08331080290098415
0.11160986358301586
0.03030377165364715
0.07027280338157552
-0.08658647074167737
0.07764082706689582
0.06894070401788309
0.08509929475202929
0.1323028425753984
0.003797228805834274
0.14758821511546827
0.04013600732914473
0.13408603220214416
0.07138220414272317
0.11737203383961442
0.0783383430223931
0.1120717879741664
0.00200160802925535
0.042636898728661526
0.03538573223324165
0.08903138255474856
0.038495945365265544
0.05680652080737893
0.06445332716802842
0.13584854426102813
0.022514420742963157
0.09217887054250537
-0.027967093650151674
0.008762515049863341
0.03289197946045469
0.07449584449297986
0.07024661714131236
0.05012678079780068
-0.030184179894653336
0.08014616555269113
0.04166335606602861
0.009046589436292399
0.03384216203185164
0.003856524919498734
0.03669259485898877
0.049950725775104676
0.004810957679703076
0.08958503702719225
0.06477167031616214
0.1306598100446165
0.14389986397629345
-0.022083045526527234
0.09349020652502366
-0.017548769483021927
0.010532694006972432
0.007577445630447904
0.05687523138840733
-0.03450276645442092
-0.040240947525536745
1.0776080668798418
-0.03015252585179154
-0.13640817119259507
0.0518638331012041
0.012142940873310616
0.009250762386768002
0.15230935580914198
0.14299463715897243
0.20826467943778093
0.2002145636023783
0.2554933083363848
0.3299718450175419
0.3763362603832128
0.42367374161997984
0.3134527818767575
0.318671327482543
0.22213678218454547
0.11460460442982155
0.15185054548083587
0.037089101118348164
-0.07005802075253123
0.02512760329855485
0.17710607239873175
0.058316056292764804
-0.02392295354072177
0.01304042246842125
0.04995771927543392
-0.0037968391439978794
-0.0654527336874959
0.00018449734479222824
-0.007395228332622971
0.058137549803308486
0.061768739919192336
0.026996571093964368
0.0033581906903369374
-0.029120020603294376
-0.05025864746001665
0.01746255323098391
0.013290551468522226
0.06550303682114376
0.058278564049455875
0.024323585346542248
0.01990588787218389
0.041486449583920136
0.07209157964199078
0.05795298200778855
0.0033738145078754146
0.0030909345015425922
0.02280809623858484
0.06632337989616341
0.015066601457707284
-0.05529567034733856
-0.01303793570983798
0.009805879918798863
0.10695668521354877
-0.014667617359189804
0.1605048589027547
0.0710125948985096
-0.027713441322398422
0.06624115381609885
0.06443182756841861
0.0023612969699748996
-0.01699675281799693
0.047821757026945286
-0.006738106155765533
-0.004603852682473543
0.025645943403958857
0.07085521804224862
0.09769708311381876
0.007479931447489888
-0.021089959328176127
0.007560226855660204
0.07765678624652621
-0.05503533141838986
0.016716143703437554
0.030009491381033496
-0.04864789865451151
0.05402289905110721
0.10769942943733667
0.043647504960836685
0.08116245172279438
-0.021516401546384595
0.07355173368627962
-0.014774078380237393
0.05455136645349574
0.048407038630544616
0.014652601166231
-0.0843820683952696
0.0016931960820727931
0.0008551930256864172
0.04268577042294018
-0.02539997499847757
0.03815758386621198
-0.04015349537768066
-0.06597454479197774
0.022375547961592485
-0.16762127404038596
-0.0015174727408172762
-0.013831202833866324
-0.051313256286673034
-0.061213689868012344
0.0024038226473199666
0.0033263674682520155
-0.02679006116191231
0.022593356495143657
-0.049289012354351625
-0.07822025474736632
-0.025739442602300756
-0.03440090120047603
-0.03226370436413552
0.04981536010085165
-0.048042089048194854
-0.043454043275027734
-0.03963130775206593
0.016073025248195635
-0.014059416345853568
-0.09752021206171078
-0.0662269267341554
0.048584260060646936
-0.14762623077368026
0.01933901296238299
0.03744518414751625
0.060646303270325164
0.008693508760676632
-0.06868067754364166
-0.11228395469849303
0.03613974992920881
-0.08971830854815213
-0.12025645688451468
0.0082464680970794
-0.021815563490838408
0.016843088186654365
-0.11918138494106842
0.009760692337560835
0.05495642287910289
-0.09553545609997674
0.005516683772783568
-0.11345551316212633
0.053055634505072696
-0.10179337416881334
-0.03682989593717281
0.020268277118453193
0.0242051946104525
-0.11359393922732475
-0.09287448265846676
-0.056002924357056394
-0.02182492969960249
0.03463852861795765
-0.06947702513234748
-0.022984554080974298
-0.07998153373042097
-0.015836735753900637
-0.05973783429889846
-0.04891425336661717
-0.005957099603313712
-0.1213241572850567
-0.0037725199111045896
-0.0059238641308527185
-0.07846461831597928
-0.12935837925210464
-0.0803342050929641
-0.1346934330522903
-0.016118203616396688
-0.021748335155287853
-0.10651361887074584
0.01080866069883265
-0.01615402525301441
-0.09180294251619033
-0.08187946740727851
-0.03026306453774762
-0.03898260623499544
-0.12861345848287092
-0.10904624974496652
-0.04329787295748755
-0.14987112390479337
-0.07453928928391364
-0.11630620564025362
-0.12567608701146
-0.10023070115704383
-0.08958628652730483
-0.05390338570606518
-0.10486201102957678
-0.036560287349386315
-0.021643345704313532
-0.04149198284788341
-0.11999863218000018
-0.11580859304476059
0.9190562522347171
-0.13935139184027312
-0.1305306309816465
-0.06564836617504644
-0.060387923310959886
0.0029050118583071605
-0.004141524559257528
0.028397506779061707
0.09532492150562741
0.14258803100657838
0.19426821310529108
0.1864805938385309
0.14146024769379556
0.3148903316702763
0.18038004975558347
0.139949730121135
0.015224021101314308
-0.005225950166716082
-0.041684006106325514
-0.059318056896046835
-0.05858557371922671
-0.15926739076291174
-0.020589820671694133
-0.12071423544340126
0.03634086007410331
0.03534219202681667
-0.07850620824497338
-0.08034011986694456
-0.12834750334446854
-0.03219360157279272
-0.13966391122233693
-0.055192431604194195
-0.06875357284902638
-0.14151798313849817
-0.18643809636509545
-0.08420038433125891
-0.08218180327227458
-0.11565744379264517
0.01263363054773671
-0.12219378863007996
-0.0266065629360671
-0.12130243318626374
-0.04899480376622823
-0.09133630490306309
-0.030780197001861673
0.02424026424344805
-0.12465122424372427
-0.05351490517925093
-0.07840955719777684
-0.12483025838754687
-0.07865961031111182
-0.06898402234005588
-0.11312005622331209
-0.10019855148922184
-0.05615235239348315
-0.0558946714754746
-0.09742517384758279
0.020812425832132428
0.041696224329012224
-0.1037291348479873
-0.10729214126332134
-0.13696959865343433
-0.060397260051834795
-0.13160097477508786
-0.0893349623206754
-0.11125670527959766
0.020873417059034907
-0.11505010564425203
-0.06631147623515206
-0.12228212553586582
-0.03605912155482055
-0.06253302329527363
-0.131235224079716
-0.1551323026585204
-0.10387571384266724
-0.18394467572129558
-0.1259566111667677
-0.0884015717633075
-0.14582124866282195
-0.20842493392985234
-0.052999570948242695
-0.10675741013218576
-0.0656001061152784
-0.14512196317666337
-0.051744866557992125
-0.03820688557759287
-0.13063456364786288
-0.15398964533437492
-0.014705790567220114
-0.03575773986277907
-0.1340305442504579
-0.07159902632482004
-0.10107882997830057
-0.0764928058329581
-0.13142316670803866
-0.11729150098637549
-0.07115628870025706
-0.08744389751547661
-0.07241754938654185
-0.032838947179691255
-0.0669479435001291
-0.1202295001460756
-0.11352412094190456
-0.10673932348151566
-0.11177966857739377
-0.13020805403742766
-0.08088918820768959
-0.1221509263675617
-0.07131390971704334
-0.12410556087900171
-0.14165463966848008
-0.17502535465854896
-0.052997624085392735
-0.11561844160016263
-0.08287662048527814
-0.11441363683708505
-0.11944612925026678
-0.06109432682461524
-0.13854217358272264
-0.15168094082283906
-0.10332665028843331
-0.08678865635550102
-0.030079888965750215
-0.12076667998108194
-0.11159686922949351
-0.061827710321366525
-0.0654615476368946
-0.09070358271357995
-0.08662092503438981
-0.14859992978358783
-0.06518814550037866
-0.07547009551151246
-0.04901087196821311
-0.04606151704490257
-0.20426734365039367
-0.05942685937731068
-0.07356920607759215
-0.0478290799179913
-0.10027082106430278
-0.0920577887683827
-0.15683561037427546
-0.14694189328244076
-0.07870809474015987
-0.06004130461733778
-0.09761248002616478
-0.09445524024212659
-0.12686577970046
-0.1098160572936957
-0.033290415003942656
-0.07264697134454745
-0.14360798068224487
-0.07208650267063658
-0.201322539627324
-0.03785746675845908
-0.08255131992494505
-0.06501098403126523
-0.14117843991417517
-0.08550598137054007
-0.15255363562492918
-0.07489803277195639
-0.15414000759812357
-0.11322440301665834
-0.11564961672578596
-0.09782168062501304
-0.0996169183628524
-0.02753605514993422
-0.05672606321655287
-0.09098877498379078
-0.14209110947370712
-0.15057643376773627
-0.05291440208697927
-0.05034424688972418
-0.09201405487202721
-0.17812334732853036
-0.2122926608005704
-0.06444077254212724
-0.01805983612677843
-0.17399040959096165
-0.03202221207797795
0.007616314368918464
-0.09589123457648753
-0.1906929869907158
-0.2091863472540872
-0.09288685003722454
-0.09494863593254774
-0.04839050078234154
-0.048356584001096416
-0.11724608062548421
-0.14885909197809138
0.005095819213877556
-0.027266908948249277
-0.19449204138827098
-0.09684030799270069
-0.038694927562461096
-0.1197721614003844
-0.09656375873934807
-0.11033621632847987
-0.0380975117817791
-0.09197475513282509
-0.07350336684485803
-0.10000805682409993
-0.08872556799178269
-0.09512548456522836
-0.11805074949078784
-0.19485202582339897
-0.04220456762549739
0.9505719505071917
-0.3042255709104498
-0.2690681637288137
-0.21057887366630754
-0.10732889640048662
-0.058832604717663335
-0.1317088341004652
-0.013369953419259912
0.07798618314397862
0.14115020246731852
0.09397800894639025
0.12165019209779894
0.1236478737630358
0.17501037872082725
0.21975229526689632
0.007345711064416033
0.06727883392020967
0.05599042716998787
-0.03723843669843515
-0.05359049841775876
-0.03956814019754893
0.011727013727154484
-0.041628754443072756
-0.16613059490000923
-0.03254318582194178
-0.06703872535611508
-0.08542961192151632
-0.12035517900820858
-0.09020661415956208
-0.10608541076329396
-0.20774142508915244
-0.0008586512884174724
-0.1229502425849681
-0.10890510364721587
-0.08565123430677471
-0.047241351703304825
-0.1344337584072948
-0.10808447480185768
-0.07195880952909478
-0.0026277074807895123
-0.0767857839944254
0.0010983040109765196
-0.06330166859688384
-0.05944281410849195
-0.028865154788590433
-0.16393616430509433
-0.037875633960571475
-0.12047932604823312
-0.07994335449333045
-0.10665295759585505
-0.1615675504893439
3.971120606349743e-05
-0.09498181970395383
-0.053082493579543186
-0.025055798404857825
0.03669713982038508
-0.06924696141065695
0.02367708078548854
-0.06096328835787551
-0.10704526349670992
-0.024782202426825273
-0.11474585855841238
-0.170153333745487
-0.15168103690522705
-0.0610977726732264
-0.01697696915744172
-0.07765864757736925
-0.08162470112963227
-0.03092425405176443
-0.09539601643868885
-0.07426806555520048
-0.06180100411245074
-0.039870720053351
-0.05509014987042722
-0.09837948557690171
-0.09506950653378535
-0.10258220969513301
-0.11327200022281819
-0.04194250891532923
-0.04856445068601363
-0.06348622775610074
-0.044917134804055285
-0.10910683266980725
-0.0830100419595355
-0.06305600634557573
-0.07946938050284796
-0.13770255904448325
-0.10589510975388065
-0.11503725650897854
-0.0973308741755689
-0.09505016989023962
-0.10671140901782356
-0.09330325685170601
-0.09680193147300875
0.018358414722148865
-0.10207825851983854
-0.042338258281921594
-0.07197592718915463
0.07345274104117466
-0.14523229595209028
-0.026979191027292123
-0.004760907130687539
-0.0977167900987724
-0.015641691285054236
-0.10697571147166868
-0.019999824224841287
-0.08315067594240762
0.03914527109635125
0.023380869337184675
-0.07288083908171394
-0.11197935204362566
-0.043432905320893694
-0.0713414379059543
-0.1059634522938624
0.0041629170080814334
0.024217075876164444
0.004790084689975403
-0.07134383169010468
-0.06692216106799019
-0.017299319992663667
-0.12038532123104094
0.031129871726877444
-0.022452532837142217
-0.016568663582670236
-0.011705423802845078
-0.00531927209928288
-0.02099717355066198
-0.014910824388904238
-0.0009627822706918324
0.011035932907826493
-0.03468597732030219
0.001306323539897826
-0.04519755352952735
-0.04288715664688168
0.023465416229562344
-0.04160616112601437
0.011974129058859084
-0.025112992733130668
-0.014451891343018611
-0.008724456008569428
-0.025882325873400346
-0.1060760676376836
0.005828214274617868
0.012309398051134773
-0.11228203315995894
0.013836341671969215
-0.10125172863067317
0.07543864551240304
0.023191613184765383
0.04438478015104623
-0.03250091110121195
-0.037375187863729904
-0.029430538070914013
-0.061208768638142216
-0.030374629007894588
-0.011219988039601399
-0.03470643690449348
-0.003460568009660221
-0.048470158748715894
-0.16843715241319887
-0.05493382986547351
0.011963410741282713
-0.025663358783200637
0.020918548072253705
-0.04124391921910579
0.05101356999479355
-0.006577250146344127
-0.09015241141420194
-0.019528462917200534
0.024154764072027955
-0.025972718451553987
0.036131960463152736
-0.012414307538958096
0.038183547415991816
-0.001417934356152322
-0.016690608463478133
0.0280869733341288
0.023721620846322934
-0.011787131877138679
-0.043735393104907594
-0.06571493186650539
-0.07898808787293884
0.03573858865242218
0.03887381503831636
-0.03449121068601632
-0.010920389533271247
0.05272160406489785
0.04064629974345033
0.007566740273279748
-0.0007112798255471716
-0.005614800427361962
-0.019242212855919438
0.01640522937685412
-0.004591190454678308
-0.003945129437141577
-0.019728480050599954
0.13946897169391637
-0.10168376492052793
0.0023207006236596606
1.0066700150402088
-0.1941510571030063
-0.0588866026113641
-0.1187885974587316
0.07794878454837854
0.0418132501087172
0.13393828449351483
0.16175134583175899
0.17122775565677398
0.1946052299132231
0.24358413904169093
0.4030984716617715
0.2412258502036091
0.2907075287597907
0.2212580877550931
0.16866499299581625
0.09249118719198356
0.10307519991505117
0.042442363051003816
-0.02362816237441319
0.07917031168401742
-0.005435981966540323
0.013176496150853501
-0.024781432747969213
0.09510221130367655
0.09289933906918829
-0.011290479228848883
-0.011248584033635982
0.09045908140729884
0.1455201797021254
0.009406640516667241
0.10607135709913318
0.09513646349739376
0.06447889429871162
-0.03890182317159353
0.08023937467647288
-0.007736705723135388
-0.007563059472518119
-0.03738184595636652
-0.006741153514474997
0.039636895485244794
-0.005244305641476377
0.03735882452265065
0.03675134875616453
0.0635377169384441
0.07284413710149472
0.1363830602610781
0.02156697547410914
0.05493797917765916
-0.002820166449309547
0.07699715183451764
-0.042663450745833706
0.007195395675985608
0.030257758371795854
0.03752525491293266
0.057648554796337195
-0.013867066854309489
0.02971794807860269
0.04871373821064997
0.10651258798261586
0.10874982749544776
0.0248608767547934
0.10887425858531702
0.012774476667297162
-0.0443827936144049
0.04739025774028364
0.03249188906048269
0.03621462270349171
0.09565076166474921
0.14837006842997436
0.015685532229385776
0.06975587781535503
0.02107751542497308
0.13560707853570877
0.05048861921688285
0.07910530459070794
0.0913105213725745
0.10307932163126071
0.038871439912319776
0.0480826191366273
0.04822547916033311
0.0554724522306555
0.08269329323527068
0.06564618286537807
0.11646139334472491
0.07903575979769414
0.03575960770353295
0.03986622432028045
0.09781032508763418
0.06316961468009097
-0.015589678175237112
0.05970886518881334
0.08042015150821652
0.09233546298881024
0.06384059164604092
0.09231390190831487
0.09983926721598632
0.021509503098412625
0.016413297851454213
0.028772632147685884
0.045410477713156094
0.04294698366626615
-0.01476879020027154
0.10029513744233287
0.06542976632295472
0.01906190786827322
0.07925319700447646
0.08696907783940835
0.021589031399107825
0.05793716695775694
0.11099642222312087
0.04390011046321943
0.07546526171129334
0.09197443865711494
0.08548334875926131
0.06845998558988814
0.202364721318409
0.12945777489822574
0.07555149123825904
0.09130517676461707
0.1266671295624432
0.08026505597261835
0.0686330732641987
0.11674119455372314
0.04242351934308425
0.06342531571315574
0.06963395744572638
0.05263873670798634
0.1218442351851909
0.14708848807054847
0.020113821912569482
0.15791509649596766
0.11483870692707872
0.010701791428202698
0.19752403026385826
0.04931873735707362
0.02265110602596134
0.09588280216937094
0.04581009635871769
0.10089067192725604
0.04569749128293612
0.11197724667262796
0.061372679449123474
0.08342907712784192
0.07747175724811481
0.17677966373126178
0.04165119472281683
0.09421559776887814
0.04771604116381851
0.07149234041304225
0.04704731719249655
0.08589002628246249
0.0702387240336456
0.0386533836724098
0.05460817977014145
0.055336150382510635
0.08995522595096793
0.09371654985714079
0.05912033373908684
0.13124252611212545
0.09867910348504141
0.11694432269096894
0.11536377053292725
0.11712342418151353
0.04263232886540281
0.14866635061842207
0.08667432539528698
0.02569102458057526
0.0789167021312212
0.07685721192634468
0.20561271256354235
0.04922662843123274
0.1382328868582115
0.15733162612752688
0.058517004518343636
0.03832403921931372
0.049133682172702225
0.1781836524308641
0.025158582924571793
0.1665546064570696
0.04966330431494042
0.1059491142852024
0.0966330091454776
0.029254592241620775
0.11289009815625223
0.06468401627117282
0.10347755423823327
0.14134552009612125
0.055873818235792044
0.019004775387641837
0.12413741154787483
0.07370901809712173
0.08153522969980513
0.11779435543186308
0.09890382112597865
0.14319991108406355
0.08404566949719881
0.05075463702787027
0.0056619131279305075
0.10825321706836369
1.0932031513868838
-0.08442540840483082
0.03768341012197542
0.11713988487725845
0.06971569196824484
0.09935128571596108
0.21723693282160483
0.11058753166033422
0.28815269368923146
0.2779377323800229
0.30028978019377983
0.3986050571221523
0.41591909673053706
0.38936842761764284
0.391120685043966
0.32364677158948085
0.2716395947910206
0.12362598734272737
0.08419576408711016
0.1300510200591146
0.00713203835604935
0.015704216689529232
-0.017355442898368892
0.030331198119104452
0.1129462001402259
0.11503884987082467
0.12458969346043144
0.08030555706605785
0.15377007939912382
0.12096595496592027
0.0798370971988269
0.11015613237495914
0.12554711146858832
0.07633697689310379
0.08444503149964946
0.12162039526829468
0.20507024076279798
0.07537293194069068
0.13748580552427783
0.1345772890638334
0.12372504559289031
0.06427301991083684
0.15149734113305766
0.09336593055892471
0.08776391734059164
0.08320294183181988
0.12182046307742023
0.17743902422641855
0.03737236326442723
0.08865588897844502
0.0444556120886379
0.05177463396343692
0.07950510284116658
0.11588292996880131
0.09629184498892782
0.08046166360770068
0.1537035123042115
0.04933889909424288
-0.0001842405529599439
0.1334872109107727
0.10041772596211185
0.0711800959084504
-0.010450479578773791
0.04489107876933918
0.1677267872074402
0.18650809888468856
0.10286028681499033
0.06921587581166762
0.07798245376126155
0.17041135854758058
0.08709204319527597
0.10815590027117876
0.024696059357530373
0.1842842195727526
0.010572601715892166
0.0827039264350741
0.011178981761745255
0.12380754365944129
0.10985775787017472
0.1410804867239951
0.08180705545376324
0.012255898220888878
0.18576476696927358
0.07280414666808055
0.1615565633377215
0.08490437681460125
0.1643831528178559
0.17462556920397188
0.014677520994788376
0.09985435813136259
0.05468514964646795
0.13157484803357905
0.11176775634170745
0.057217984509627014
0.0742885761573901
0.04528641233515135
0.1365108506758776
0.10488333493077999
0.024381966966781035
0.07974906121042481
0.1679298408253721
0.023081451621810592
0.07483056999519395
0.09642758301470222
0.08381162203720019
0.11594279566994423
0.12643782021784766
0.03347551302445366
0.04383692220932022
0.014892721350996951
0.08693752709680384
0.08153331647346698
0.11047665068869257
0.19557259623435802
0.11585190949832037
0.17641287091737456
0.20306740072252555
0.020663647902372975
0.039467597999661874
0.046693421265201256
0.059880817111191795
0.034129114249888716
0.1335605477566909
0.08183053688760027
0.05892607122327574
0.08626506207757488
0.15237845727238544
0.19308403857216333
0.046174911920219795
0.0922844579325197
0.038130150074562316
0.13520080852862887
0.12220291524004624
0.1696955127300873
0.11561563121890181
0.15699090997056853
0.09726130597494664
0.0409620816842131
0.07941573508636617
0.04076682795013024
0.04017564723182553
0.13372635652513126
0.09922114779813572
0.17009505767799593
0.11183225075121461
0.0662954146556822
0.14292659282310172
0.059786236853764704
0.08744780228173336
0.10106731490490667
0.17906275174789704
0.05568541797153434
0.07768758706764044
0.027051971924787935
0.1475555323103961
0.11231651924743741
0.061133137879633336
0.12576234257873625
0.093024156182958
0.00816061821783394
0.11115594141612226
0.08813056084332037
-0.006126469058712031
0.023874005807398783
0.06806584432018209
0.07901603523513015
0.012779287973193512
0.047878067790871795
0.09496023279185366
0.06867922415948699
0.08049024903541867
0.12080692402122639
0.05820254891704698
0.06776372717481778
0.04804117397587859
0.039103545632494074
-0.0069515576979399946
0.031121053353233147
0.08324992503460998
0.10589410708220698
0.06367735738180759
0.11871356291141884
0.01655759693965176
0.020439852657542307
0.027071598253333364
0.08893391867467808
0.08328808057622827
0.031141260342300796
0.07207155206755757
-0.020475008600303664
0.10670526042398526
0.14777490601608936
-0.0019675609289031976
0.0486956419965988
0.1311775273150637
0.007677768809633015
0.053792718401866
0.10572650144123295
0.11793771809791713
0.12426043542733611
0.153081249006998
0.05108849970297768
0.04226119710946845
0.07669962351581772
0.03707137899677715
0.02808719408001551
0.06911302543815306
-0.004841411228642498
0.07523559685754488
0.09988681477530822
0.0263392025373376
0.07031076148888851
0.08132166829874868
0.059740076275962395
-0.09197837146174073
-0.008545211424088914
1.0977356037269779
-0.1936355372375515
-0.036130036611521046
-0.07650175617829383
0.07896570156205736
0.010147670374425419
0.09913732123194988
0.19151093596527435
0.12729047758198422
0.1788869697119431
0.29874113250365103
0.25358103609311894
0.2391081946252902
0.3226871663792529
0.27684296605598774
0.24524640290595445
0.1500551220963373
0.10591644050968496
0.020832872696380636
0.06949080042236494
-0.008318930027224974
0.0691112539363535
0.07308077530948905
0.03248665827207744
0.024377553658813805
0.008639619675675989
0.05472105860502605
-0.020158087935759676
0.024571951105624597
0.09557345659342698
-0.007192801019792087
0.017963885913648597
0.06338712412990051
0.0488947313749185
-0.09265406324241383
0.005153354841885595
0.038521156578405935
-0.04015547486569721
-0.03216816542140658
0.06180303895951933
-0.007342505997731428
0.05865905055011182
-0.07754602821762029
-0.02709228931713782
0.0510105867020042
0.006858481757734389
0.09063153275087413
0.030776522318794325
-0.008027608241801428
0.07558535204473188
-0.0840843699251852
0.0003494863714303513
-0.017822851828914216
-0.045290244850944655
-0.03823757095367767
-0.029963149471600836
-0.02746222085703931
0.033989146039336685
0.03909807844351712
0.0073606524952659035
-0.06936507026091
0.0009393187920855202
0.0028787373230494085
-0.02811976212539453
-0.0262923062542074
-0.05733624537142869
0.03892991184477966
0.020660484135957335
0.09972425402705715
-0.07761210308751437
0.05504312100797174
-0.028879273473602047
-0.01734473647075886
0.06790928698079168
0.08641854273926493
0.039801705404445525
-0.03856663427179429
0.00691093534014115
0.010720615523209829
-0.022016699022588685
0.05448720534577509
0.03281154206035875
-0.10832016344172597
-0.060334432661500306
-0.04181497061809165
0.01738825440463014
0.032386002015351474
0.01766656955810496
-0.00402192723816273
0.021029145954422554
0.038333794929344994
0.03508387933142248
-0.04656079107150399
0.09647033629865058
0.015431098267698706
-0.09884224461103895
0.12898905031387228
-0.08741802966075958
0.030736603029365265
0.003934528630693518
-0.0860995728906527
-0.008193191063861033
-0.02981344084880269
-0.02348815696636834
0.11917289740947512
-0.08592527686989587
-0.0422961518230412
-0.10013039505321003
-0.10381159002668522
-0.05064100264702538
-0.113559429522739
0.0025478833388994718
-0.04274600014410513
0.024545762870086557
-0.049999777502430134
-0.006456924653420348
-0.014698572395152248
0.04537785896856364
0.004031421159827561
-0.0001119392833627969
0.0036525044338965793
0.04344325459541103
-0.07197704380653978
-0.03436463384235455
-0.07716329192277127
-0.09633436537824991
-0.04121433188626217
-0.018369363439385
0.048611715129953485
0.06285976364623777
0.018775188423142665
-0.12747139802051521
0.04458492526225991
-0.029369463716864566
0.018160182585043705
-0.04257087629562551
-0.10979905002646577
0.01222293910533212
0.016079699643806192
-0.011954755917794633
-0.05551603149966103
0.05771638572930878
-0.07551418321393039
-0.01974077770905482
-0.07120586977042273
0.06280600138616374
-0.12499883123600353
0.02066240220152475
-0.046453577883690124
-0.16176732140349503
-0.010675533819549894
-0.026568217029271188
0.05179425946539966
-0.0317344576638393
0.055894541286300045
-0.020876740147808312
0.009626491973031358
-0.05805260149267142
-0.1018989383423303
0.008991124843566525
-0.06755111847744545
-0.06841584870927278
-0.08900845553083442
0.06104309038449428
-0.01049192968217929
-0.0968398820911477
-0.024934688339411558
-0.059045362908894755
-0.020414271131455372
-0.03665621978129155
-0.062392391058874
-0.08939420834392556
-0.04970180636241557
0.03010858758198963
-0.07099603156071159
-0.05563884182023723
-0.13754055919911515
0.03289296940106708
-0.0014223719251961406
-0.12661746690784845
-0.09407286201503272
-0.08718372133106886
-0.019683355556633753
-0.037364430587107395
-0.07251958543071287
-0.013906856212532084
-0.18745792700642144
-0.08349316965681293
-0.07679970358176458
-0.07315252829095807
-0.05163983948061322
-0.08473550083694088
0.018001404957837794
-0.14822305870247715
-0.09645161350881226
-0.10049898458259673
-0.08891064463036799
-0.17404794374514876
-0.15129754102976312
0.963641041480044
-0.19111576207930162
-0.214504216665841
-0.1282177713052254
-0.06622512357702726
0.0008893750056348584
-0.04482012490420027
0.008590799810415373
0.023287048537368633
0.02651057053042838
0.16548234813392249
0.16142098564898663
0.2473341513192268
0.1565171582206632
0.2130049898344522
0.11191417082104156
0.04872849989776605
-0.029320426865932066
0.04929911887538205
-0.047970436270447565
-0.08658845167588472
-0.16123028722823435
-0.09350373086183109
-0.12236637315454721
-0.06329227270326722
-0.03787224038965755
-0.020483146895361903
-0.13454725275710044
-0.047896597417999634
-0.16054109879822623
-0.09765317832792474
-0.09086824108602415
-0.07445265400954229
-0.1223436483997587
-0.06764109548994257
-0.12421918206440978
-0.13312289957987877
-0.06588205373475635
-0.006989175473074177
-0.09636221000046812
-0.08283925487189815
-0.05590807837863436
-0.0957746583277155
-0.0813084744470833
-0.08973214296254688
-0.14987721014384486
-0.07436672317921744
-0.10581496544297583
0.0008610975588433795
-0.06110577577476073
-0.09045304701995463
-0.021835855465453746
-0.11931064167929965
-0.1337611093779062
-0.11777066647434163
-0.07934630969383825
-0.04755872671672778
-0.07178757402568595
-0.04248118394060029
-0.03341037204344198
-0.08892636487892644
-0.11129454612928777
-0.03769329282956694
-0.06825905036692537
-0.09691633942324307
-0.06311315209810903
-0.12928300712023155
-0.09267212383475515
-0.07621441274529109
-0.09672183960832709
-0.03897029237052171
0.00038491717947491955
-0.2430058317455335
-0.09005805863178304
-0.0490581555185339
-0.11313678294423815
0.004357048769572824
-0.12840357111181896
-0.17678121612856573
-0.18242842788541783
-0.20458021025159756
-0.12739087578777292
-0.10310763668539134
-0.09166486012603087
-0.04621034941898613
-0.0504554250794968
-0.0779846824418879
-0.1128861817235349
-0.1520209424494992
-0.06621328219139516
-0.11283528316881905
-0.11817346228929027
-0.0913567241558193
-0.07463791131044888
-0.180099055233573
-0.1348004285650254
-0.09039880546566069
-0.17243731954699043
-0.09491037462755127
-0.09679859636516162
-0.11301433595510271
-0.010573822795550011
0.04830466566671232
-0.10223614407187895
-0.07766226079808776
-0.04786511973214973
-0.04947820077543263
-0.07573995185163895
-0.03569984289195685
-0.08622054657600137
-0.18100600937166722
-0.04618494720731322
-0.078400594620078
-0.10454779004838881
-0.13003682767522157
0.010322778999257667
-0.08120263908545791
-0.12492513791939186
-0.14731596427938562
-0.09163415242722789
-0.11090650301067638
-0.12390872998262722
0.0021092595695103716
-0.07896953487559086
-0.055656604595115906
-0.01825407131192433
-0.10794070868724953
-0.0908385297886642
-0.14765620911919633
-0.16767342781382089
-0.1345390247651603
-0.1340821287288689
-0.04336161312426162
-0.05700509821179939
-0.11586414941136233
-0.16330514524273612
-0.059084259103297856
-0.12835897507971458
-0.10720762173877364
0.032051094112431386
-0.11111047034599596
-0.13368282601798334
-0.16496723113886483
-0.12072632635635096
-0.13551019481638268
-0.05368036398063768
-0.2649259052888021
-0.06246438709975604
-0.12892108314748088
-0.14799792404036044
-0.09715528931281894
-0.04855334385631889
-0.04895564063310426
-0.06539163739740694
-0.0710310015042496
-0.08065235634365783
-0.041281224927931945
-0.062071972894318636
-0.10241259523722697
-0.031083969872581857
-0.16606043869906506
-0.11631413680366137
-0.1179019798881413
-0.10878207650892363
-0.20464404510311412
-0.06891597977237754
-0.2691201345818831
-0.05119625783721203
-0.062186332309662924
-0.18918018703833345
-0.06692741496718899
-0.17067793212057425
-0.14046707684389315
-0.10521261092966175
-0.04012666466514019
-0.1780660494738508
-0.03055266659361619
-0.12123870088584794
-0.1108820691006136
-0.01191975424724595
-0.15645016673909784
-0.16266173779518767
0.009708331188127264
-0.05205592549707713
-0.12408099459385007
-0.07619375733681384
-0.10163380476427113
-0.031002738587413196
-0.049791334364287815
-0.11422606729230678
-0.15548529771835656
-0.08719621809598728
-0.1338307698848149
0.00448556000441673
-0.14453861561666423
-0.08716299435288166
-0.10151960186983501
-0.09876030809696912
-0.039323150726773524
-0.2599868052595575
-0.09281697221900394
0.9168058040767402
-0.3172379301914411
-0.1671554046983046
-0.1783206743871298
-0.15777827000831293
-0.07998223534611845
-0.09125196440865152
0.03602259297420798
0.07453475609776324
0.06885977788748254
0.21214429537416535
0.10741208400998559
0.28133516896429667
0.16314136636286072
0.11265781425196085
0.11533322838111856
0.09519321592300004
0.0706052143503512
-0.01302977493278789
-0.08609503824642219
-0.06205350693311208
-0.09551419793884874
-0.0855861985369615
-0.18208664525988094
-0.11372889082871263
-0.047363734876959385
-0.15288429517937532
-0.12038820286908192
-0.1039436088268754
-0.022226936636425054
0.015802939372735955
-0.08390813073457051
-0.071696895610281
-0.11450260984170127
-0.14731678163935757
-0.03731169285931244
-0.08364902142825281
-0.05912160618208367
-0.12060238084824876
-0.054480345803600005
-0.10743299561011768
-0.0010067168860175557
-0.057328004111729385
-0.10402333642308906
-0.07680378338935703
-0.046562073558641934
-0.20668233079536988
-0.1330023472845095
0.06210167220056717
-0.0697122154057962
-0.08867337189260108
-0.040602365264463945
-0.12216168026197198
-0.054635115429112244
-0.024631007201883333
-0.06319033662820128
0.046685779791203585
-0.057391927174220154
-0.05033562784611749
-0.1197205151398802
-0.05634658730263235
-0.056486843243304385
-0.1032757489083228
-0.07621514887368241
0.01892828243981462
-0.09592002805737984
-0.09015151095167029
-0.09400973792384815
-0.03754709860048906
-0.08460416845067646
-0.08770484472858399
-0.07754800048962379
0.019365565127444015
-0.03597043574407385
-0.10842783346713125
-0.07109091007200102
0.07880559898718825
0.006946508733799775
-0.055165220764054904
-0.09813745988531958
-0.11006713489271636
-0.0876476500936689
0.0711569329804233
-0.019588930561436874
-0.033538946213332615
-0.03239348346759033
-0.11933024915593415
-0.06939583751367032
-0.032461068306640854
-0.040099457439806085
-0.10048033226407217
-0.08100269661052012
-0.09406389153560732
-0.016645526270274956
-0.05884944730357755
-0.11248683307132694
-0.057392484274018746
-0.022447656766829638
-0.10762468614996347
-0.018778958409780784
-0.15231014355533318
-0.021143223647978292
-0.10967075639262003
-0.13088855915034403
-0.04100325324855039
-0.06013144788436128
0.02922048499313141
-0.07807594202975462
-0.055652793688035496
-0.08615984071805338
-0.023283792397110138
-0.08412377318995158
-0.08937569895512221
0.0013748313906750756
7.0426002343956795e-06
0.019677323616603147
-0.021074316981022634
-0.033396117755914036
0.039834951659527516
0.0034360838336218585
-0.06527687754233996
-0.07367023380038862
-0.07205173033970719
0.032219060497766655
-0.04979310508101567
0.029966614447796143
-0.08089970351304472
0.01500332245065749
0.07279375480874412
0.030226928605657052
-0.03783672506407804
-0.017439027674019628
-0.05916295416795267
0.10520625391492236
0.039752926565652345
0.03062831520255902
0.006570602502210605
0.012085919628171828
0.07131590341206412
0.009379479510022201
0.04668357680587386
-0.030224480533626825
-0.07935048354725274
0.03713265050824244
-0.03389248808000443
-0.055708921683133183
-0.0007633641000989993
-0.037639149656180065
0.018825006499433673
-0.027937116495399227
-0.024755381211357716
-0.036076932556619964
0.02609228743080838
0.010634809129855816
-0.06327739762441095
-0.014682256067511574
-0.02367083602137275
0.05465379534649896
0.015211141538878764
0.04352678987234247
0.014281910939522432
-0.019786930253814866
-0.02730477954794117
-0.04233767062439044
-0.03178871348934323
-0.04145917316143076
0.007777579098858319
-0.02694321085168662
-0.11567684812483563
0.055995638899919244
-0.007092369492128804
-0.040865375001382195
0.013381674833349153
-0.058415914760276876
-0.013391924445794252
0.0008871769889365569
0.09834175001278803
-0.020284352315831186
0.04970878764082993
-0.026333695051579842
-0.007720753710240596
0.02818315738671935
-0.045819385970045014
0.03070912643171736
0.017106818254387132
0.017947924102753077
-0.06720677263078602
0.024096534141356242
-0.10812209521753784
-0.03368506690630076
0.02594345842233809
0.009978988766244782
0.021206877891641704
-0.05525008856007631
0.05649577808718498
-0.06782894180385372
-0.18314542256117802
-0.01152556561295387
-0.03492862483835607
0.021579641010257347
0.01717844245117574
-0.03246805889787253
-0.024964179598159462
-0.0002021423774574184
1.0204491438705676
-0.22799160513668773
-0.05939373649709028
-0.05518946669758269
0.013876228746445929
0.01671672944813158
0.12532456129364714
0.11984848641607176
0.21360612952736618
0.22663717634392497
0.3615167897897028
0.2236567982754421
0.29025842915090216
0.3106248336367407
0.2607640516133472
0.20531310690057675
0.10858223037756154
0.18513973754590582
0.03398175330485499
0.11707002543963309
0.08792692134257862
0.040597253278799116
0.05867775533963242
0.12890950434826698
0.0099717696749172
-0.011832880400883226
0.06131162616905808
0.048488667167238646
0.05950961257525823
0.09182929648892954
0.02636303273933085
0.036997150015394456
-0.07269776511854224
0.07488530656671294
0.061840115619876804
0.058924219703640965
0.008044861249218563
-0.013409767316432723
0.07651282837840472
0.09409962743806186
0.0536706323385306
0.1610189803562983
0.038512423125467425
0.04731734088900201
0.09505490510643892
-0.003771412948802129
0.10083540420171248
0.02799759376558545
0.030901340409570436
0.0012550943059019826
0.0786357135359844
0.11426727147933652
-0.0416439913675606
0.09302142649981632
0.05934977524123756
0.08807107744338216
0.08909434402930973
0.031557831257593275
0.05269864761556729
0.06289446623125995
0.10458801093490913
0.015846793494058903
-0.008335108568247478
0.004289045117267451
0.006128022545467127
0.19997643655976283
0.06765867213725717
0.0023082777136880783
0.10084643876126206
0.05334354693394634
-0.020006275493543266
0.024120607805013135
0.04394461203351676
0.007522237385587084
0.08552438936341414
0.027904497650958746
-0.02220176401305514
0.05016419261970423
0.09351029044123971
0.07640854571728403
0.1347211227423884
0.1341612852500887
0.08125087010118831
0.058173525664232735
0.04625507273217518
0.07646905782349321
0.035938896446605785
0.037382881331580395
0.08909097437605228
0.12875436133687967
0.07880186950296827
0.054805881690931424
0.05271445267459056
0.11464273160015517
0.1314217996109951
0.18011472867720688
0.11652547600538998
0.022471435977614036
0.11235917192887712
0.0284149407153078
0.048157169398175645
0.03323439839844894
0.14754228742715325
0.11502828642154994
0.04029475003466383
0.0037262516929372352
0.13524524424160445
0.10997406333734996
0.04916229237610986
0.07927943312727091
0.10026765410297474
0.08828615481861571
0.07479337993534245
0.020083844099612287
0.10829115978661936
0.016955769914337643
0.04786994817646137
0.13462444720215974
0.02282534688472649
0.11897349243918695
0.08052932610914908
0.1498791999654161
-0.010671339533570537
0.16837673247734217
0.18218063028556047
0.11746620756470408
0.031264789782782874
0.04267025513408523
0.022503887151905655
-0.007522707393571568
0.08470564437454796
0.07316772247714218
0.2111742972707335
0.07420688879814438
0.08514320214639012
0.0441541898758461
0.10908225879895783
0.07139398137562533
0.1528954351564131
0.09162099365565121
0.05889042429551901
0.10012963631358848
0.1249850952003593
0.14363790947605728
0.10286175724691408
0.02878691728208352
0.13652228249287163
0.10540104480954574
0.00480312268923945
0.0020761097886998203
0.03617103537601654
0.03347726713436043
0.06366011056280121
0.09301638262335478
0.026668328423534365
0.10066877426190247
0.06317512488252947
0.04193045978767867
0.08650960673520496
0.11477715637295913
0.12075132259816612
0.08914628572426528
0.14915233698117572
0.09213475356888232
0.09034751144546779
0.08418489369482443
0.09057403260983608
0.04442955803971067
0.08549931171339359
0.08146972451130256
0.0762631796634724
0.05452200211249168
0.1806208553069253
0.1405890090539792
0.027927661339728613
0.10017891229603672
0.14562541111256283
0.16517278985652528
0.13451462538757175
0.18028486445025976
0.14992254316868925
0.07627736592940182
0.1255733583856211
0.1150434040969254
0.1422027100104728
0.11179307876687589
0.035758245368807846
0.18606926105230748
0.1840439239743899
0.11118393472300801
0.10912026556890343
0.09577838957981546
0.03255878388540248
0.08639136453315534
0.1794082027338475
0.11114885867716993
0.060825165105702586
0.11631671277803221
0.0920535863228661
0.1125816238629863
0.15205995787512366
0.2035889613420017
-0.026724831275799124
0.001126882206419537
1.136814156408994
-0.03514222982713984
-0.03784742193485927
0.08282344182263747
0.013458027273201986
0.1430420199929914
0.19408626496312603
0.20120386556616168
0.27352924469713663
0.2832597701938249
0.3373394986137688
0.3366507973670192
0.3485090983161177
0.36453971035412386
0.31123796806006937
0.2926523529949009
0.2446857801797082
0.10154748088762791
0.13948754425883975
0.17564374646931027
0.09693767156252923
0.14819794239514955
0.03398901595538405
0.08068159528697498
0.05069649110921591
0.09702630882792398
0.1565380422147437
0.14860524689667814
0.03528376413148557
0.08413714418155605
0.01042074132733578
0.09369542960120243
0.1268883521805133
0.16253226449240182
0.1075904511520433
0.08557028104329975
0.12586381441997319
0.12672125023751168
0.12365474470646629
0.10654915815956834
0.11421295950273108
0.08872716981292775
0.11502382136525237
0.19334036243898356
0.10435335504426771
0.12407955574038738
0.1583701174404754
0.13379838534646527
0.12068299443527773
0.15956594519759656
0.0717098830401531
0.16838075394733348
-0.0333253226854546
0.02044462241808913
0.13521670043923514
0.11242654603254207
0.14413158157134043
0.0967274634924171
0.05824324539175466
0.06652276709827853
0.12456848786243774
0.05664185133142074
0.013590910037920442
0.11827152277584434
0.18136557413487614
0.06401656867901903
0.08369588700230698
0.059369319342703494
0.10942524766417883
0.04371855658913758
0.07364349155025351
0.16236667423653942
0.012333991143348488
0.10684660809304009
0.08144119626313163
0.09562965346482999
0.08864664505140246
0.10185261673301266
0.11821454903073844
0.05459394028238406
0.07483144813248568
0.06410290020352774
-0.014350914131208758
0.13332051047442015
0.06607785640911884
0.13434510303631406
0.009203006589723436
0.0628260689935433
0.06948321065411585
0.08830696370708162
0.07821546018700248
0.1283852621097571
0.11019993086964916
0.1354865003254434
0.1416407244034053
0.18378175282662718
0.1481962882895964
0.07819883655057018
0.06205640726481153
0.10777857925335875
0.09474274213885729
0.04540167015762687
0.12784782641518344
0.18277413029384085
0.09432419420649374
0.015620967802838712
0.09478428003666617
0.0785791290416267
0.08634796330071148
0.06410504358244817
0.013698492408769455
0.045699138119653655
0.0684962080370958
0.04826133416003501
0.05287368217741979
0.12653563931417577
0.09222608503130268
0.060114872295250185
0.1329698524807439
-0.01119974129127084
0.021507219300647057
0.061351568732472814
0.11457807900419548
0.12847875946828277
0.022180798766534372
0.09025831499110396
0.021698626740454127
0.04853342933288711
0.20016278618240177
0.029609149147609592
0.031925905936381976
0.07521626488359043
0.053581238831243834
0.00031230573825068164
0.15483024159383132
0.02699068227606334
0.14608755988339192
0.04017360951673124
-0.010299047916609905
0.011881033930680199
0.04419466356712516
0.13065700244633344
0.0857057628691826
0.07124147519243605
0.04633686559243332
-0.0745712916508116
0.11070872711302923
0.09950286257719604
0.04662863150443912
0.06544554390265743
0.07454687439037799
0.12078419685102065
0.11115758016628433
0.13168053141726138
0.05164689605324069
0.05212501259661177
0.04312383056892604
-0.01859212900237797
0.038513034832319215
0.17502863865083707
0.07436319909291972
0.03228259764366799
0.03266849600906964
0.09353768557945005
0.07881801458229123
0.013549058627356184
0.05060052930424074
0.07890843366546799
0.15724864995407875
0.11105943779145613
0.008400206565199547
0.08622560832220552
0.0553074834472652
0.07302311248051419
0.016797110328266293
0.05301718832290456
0.02420078630463808
0.1073016844844732
0.02526891053373326
0.038664303106316786
0.021921993927488226
0.02203056150319688
0.10106021938995682
0.058914381351142145
0.0603818366609407
0.029773327041262548
-0.01729788387695027
0.0667950343728401
0.06159931185814291
0.03308166619775347
0.11404150363344817
-0.11078678779781989
0.013974925398413843
0.9957366840660141
-0.12005245174760079
-0.12787510790339526
-0.10313745117838183
-0.026925680413675913
0.15773986076141386
0.09378695941402325
0.1254905712642318
0.2811709245049573
0.20858413655282446
0.26621534493493826
0.3200643797550561
0.24169067027952512
0.2798246172805299
0.3204255157581417
0.26013425102795223
0.14047249434139705
0.1198815118546003
0.12510543091086157
-0.023403273722954004
0.05464241436219954
-0.01898266544814444
0.011760446673808295
-0.050333196473607934
0.03324150528521209
0.04204243831180905
-0.03967019607371572
-0.0371500106610259
-0.042674914737730746
0.013468589356965105
0.061171500442461196
0.009527527635065121
0.1329881954073166
0.017472364072642133
0.09031098513089889
0.037947398263993154
-0.05158649746533717
0.009038985832869521
0.06385662237797456
0.1263556551835609
0.08246666200609576
-0.04192565169465946
-0.012251600891910654
0.06833206556777649
0.021406154603584047
0.07561160348241908
0.01799526225485079
0.12202814434564158
-0.008026726650123748
0.1037441618087468
0.0440986408322603
-0.08640551407914665
-0.014016693624017444
0.13667734763748007
0.02804890209741675
0.0051512168994097
0.014478488135778218
0.013854102306560444
0.03545232738769422
0.038783328446824535
-0.08400648855141805
0.06707127814985123
0.042182952796904497
0.09020150187594744
0.027448516121699955
-0.015998820367891867
-0.023744743851765424
-0.03954038126474946
-0.01845072067760303
0.004787029971393832
-0.010162011736862514
-0.06704089253412977
0.01892816838226503
-0.048129782144113474
-0.06019121774615973
0.055471371562236894
-0.05924544544754843
-0.012142128176968272
0.06776801220867147
0.011346578298068052
0.05261699018542928
-0.036450995897030256
0.018392138029273843
-0.02123239727787933
0.10841406989736888
0.05509288951764638
0.00297869244189544
-0.0813338134640667
-0.031325526935662595
-0.05909207906493667
-0.03163024165123124
-0.016980923464041446
0.03034990859412499
-0.08147511609897076
0.027234250404514174
-0.020239927182585504
0.02469659315202721
0.03499920763565366
-0.03903877883200477
-0.0513247542978691
-0.05584093092600008
0.006758741659709588
-0.06551663568384127
0.0005997105892809503
0.0031333148406907096
-0.03483158519703693
0.06768937912619721
0.01776235827517837
0.01562537959702711
0.013595306235396107
-0.06989201614563309
-0.06144311148076132
-0.011642218156782999
-0.054789073699987444
-0.09374122836020994
-0.01760991584135585
-0.02909447594075445
0.024286649055221966
-0.00999707802296805
0.011094598413031256
0.006742140907259629
-0.03814414270512885
-0.031834674270090214
-0.09386483153829527
-0.14971884084742446
-0.029021752609379194
0.022569103369494928
0.0820863914331406
-0.07200224137983734
-0.0724073817376456
0.011382587503057123
0.011174447693405705
0.0426668726617207
-0.08876859231075623
-0.10999024772342016
-0.045911433337923885
-0.07382078448421853
-0.024089513193845103
-0.0327505941749265
-0.10400297998276573
-0.02814581784383898
-0.007088779475471367
0.003810702491155789
-0.09266818426774973
-0.06868640099837672
0.09332340572307468
-0.04734093702479564
-0.019647609558500017
-0.06743934010593128
-0.032990034968105784
-0.11521166095266933
-0.10370833411100674
0.011418639480190083
-0.07570867632195295
-0.0037646691229728524
-0.07896080574221667
-0.047479030166314974
-0.06484761085870927
-0.06591013691444202
-0.012569598465022806
-0.022887163759641786
-0.04172906447364352
-0.05211537372617662
-0.09154595147440592
-0.15528269529832306
-0.056418502874947915
-0.06475165970661001
-0.0719546841163362
-0.06545099671023118
-0.09210525385689297
-0.021726908287855992
-0.004055838942562173
-0.02483013293312425
-0.08422949092636653
-0.07519676574701484
-0.09017427391963422
-0.028619668675125907
-0.09029096955428689
-0.15590892107803372
-0.10523849116849186
-0.09002036944197406
-0.1356131657275947
-0.05975511765184034
-0.09379359076269252
-0.09297211140251875
-0.031018925809321016
-0.10281749401116402
-0.02559917992692269
-0.009936823538520795
-0.018829794595708042
-0.1740352796580879
-0.046858311452590645
-0.10097594876153632
-0.1476057936042782
-0.18779530838168212
0.9431023735262037
-0.21819672759821895
-0.1434064531637584
-0.0933473183398814
-0.17190542048656898
-0.032371934783471494
-0.012116853423082776
-0.0844723917604547
-0.012612335915253015
0.145962769996045
0.14023514704441867
0.23582335410873317
0.33011798696559164
0.2262289651807339
0.1437604744819046
0.10889772420219197
0.01482370972806965
-0.05788761088445664
-0.12510726460797683
-0.010712072429816782
-0.1126685830909619
-0.08583587518762895
0.00458704598103063
-0.0908337435602431
-0.12181785602532165
-0.048429699854810486
-0.1259671384211094
-0.050382264228455195
-0.08348273024539134
-0.04243012231382499
-0.1370211905432789
-0.03914659364844569
-0.1320474028992022
0.05613216026586858
-0.060285923406762365
-0.11809392569786037
-0.15664895109580243
-0.10159575865276499
-0.05046801878186085
-0.10950083814013897
-0.13457789967656458
-0.2113337463632194
-0.08511176726412704
-0.10384127624244098
-0.045298342883528034
-0.07256070536031337
-0.05801323674737434
-0.19504090995146933
-0.10266190825406366
-0.01604559014597709
-0.08923442465107281
-0.15078585243782852
-0.04419358561883356
-0.18749241859667581
-0.17137668244460508
-0.1698772669324348
-0.2409516685934735
-0.0636675207447625
-0.017841482367149775
-0.1223907796294624
-0.09852659487540459
-0.005533194251209461
-0.08479287919300729
-0.07993884475604225
-0.10370610738411616
-0.11401764759201248
-0.13626335440091636
-0.07305512946785049
-0.02912711296694022
-0.057593879481571145
-0.1334218386933338
-0.18880890152002017
-0.09980385210436392
-0.1699184298934858
-0.1704482736149707
-0.05786562553232416
-0.13453408175289733
-0.04876407837027632
-0.18721589011843148
-0.09081417193537274
-0.1200921690126346
-0.12525378713299973
-0.013957905828813705
-0.10965023259767256
-0.07674258411932022
-0.03186750001489616
-0.11811028945299337
-0.10413295643048373
-0.15148662649904482
-0.06244411910004199
-0.09188939495804387
-0.07420313764565203
-0.08851701489903947
-0.10362913804667293
-0.04535634490237812
-0.08915139597534057
-0.06014435660758385
-0.06824711785448345
-0.14241556641222083
-0.23956673287521563
-0.026165599462498218
-0.20898776781497969
-0.048808502263895145
-0.17739367948358759
-0.09989694060805711
-0.03249490469509386
-0.08616301944934034
-0.05854952214963624
-0.18940064541880514
-0.08504545373574465
-0.09189768555104234
-0.06627439111153904
-0.10303583705005313
-0.11372246024666055
0.013605741708522967
-0.005503411745851852
-0.11210505366443727
-0.1597090092114678
-0.059892017996974974
-0.03242364825284502
-0.12344843263556268
-0.05574124397606618
-0.1080539319289277
-0.1163422768871389
-0.05202686608309152
-0.15956410929901899
-0.1387711303572735
-0.12039238052953626
-0.11774948666406165
-0.11572578122577709
-0.05762254688692162
-0.020211978679699927
-0.13781149764503287
0.0034223010591091646
-0.07900743190461758
-0.10277084552987857
-0.10668371145175796
-0.1688253403951302
-0.10368006955206244
-0.08693385426324497
-0.1268002070473571
-0.022602868440569593
-0.12441811387551795
-0.1211517195306218
-0.05365011434835761
-0.10427459178114526
0.0003860167047554375
-0.07408733220171715
0.05973436186172748
-0.06893786323572251
-0.04918170600158834
-0.07721410176551581
-0.12703706954507935
-0.10012309199507786
-0.03690823886955989
-0.0863256672334235
-0.2258882112370911
-0.015211097470697599
-0.11866494153856161
-0.13283147522918767
-0.10043644764625712
-0.1316478737272834
-0.06217833702749146
-0.14368600945435367
-0.19122339468641056
-0.05507729898004899
-0.10196548761451811
-0.01825871282330034
-0.11953657730871269
-0.18114531091211378
-0.15604348000837448
-0.06822169557269872
-0.15704520686875933
-0.08509065725259254
-0.17999743377488148
-0.14441032199804632
-0.04856722755696594
-0.041246234966160034
-0.09145434756274518
-0.10782004834395317
-0.08817411168017715
-0.19889952202574718
-0.19687703564647005
-0.1743034060959196
0.900114457625546
-0.29205555318434123
-0.17666885812610297
-0.15664137441283804
-0.17006847231445163
-0.12090938446125282
-0.07509001767176374
-0.07002107177409675
0.15208501849838268
0.07818473431721235
0.18297654016430123
0.20051789679380935
0.2383052954903979
0.19842543417583347
0.18616450613334723
0.15352243833905976
0.0656714472617654
0.05442482765191911
-0.05972578740039726
0.0006262492664708685
-0.10078824621504193
-0.06179028584742971
-0.11088212794669877
-0.12763710049171512
-0.1279936674871189
-0.016086399772096346
-0.12167638836668955
-0.009085390141722993
-0.009054366119314622
-0.1502666413510593
-0.07200818488149328
-0.1324723403511567
-0.11576957389228518
-0.14043441217711866
-0.14561542133502023
-0.09611509888828274
-0.11372869786162593
-0.01521441842508564
-0.10414213879127296
-0.05955415545043348
-0.0212690811453864
-0.1725016691810275
-0.10583983189921242
-0.12676277598915842
-0.09979330480761903
-0.1482499365896596
-0.08819481441046871
-0.01840716792252054
-0.04468941204598139
-0.01871905670161029
-0.03653566190711753
-0.10286951866208885
-0.01007275879752502
-0.06596096074564026
-0.11115020906554068
-0.1374257800100603
-0.11030494122518075
-0.05063697034216655
0.029517764219398474
-0.09035373675442737
-0.0941359806824887
-0.10346211976972994
-0.047435438890558096
-0.04357142086661232
-0.06250408597836107
-0.03863628167070293
-0.06319109596346248
-0.06888953576670111
-0.03297803900758513
-0.1369820691713607
-0.14722758638995834
-0.09141736924246309
-0.06907371237364071
-0.043636810050677904
-0.04298795556175228
-0.06533148697824105
0.0072692246046212605
-0.03795620788710036
-0.0195841273654751
-0.030504138517801788
-0.011267754351166323
-0.002611038330578519
-0.0008791497093787737
-0.06812368024746347
-0.11345791836119015
-0.00276895841199043
0.04640264190076053
0.008637608286221184
-0.16031937853026718
-0.07270593174393819
-0.030398625966698286
0.026648130626505805
0.007931199106172009
-0.14949404895920454
-0.11399618346915114
-0.07253310344857335
-0.06267430965966038
-0.00741110446113892
-0.05133613836603574
0.022913347558645478
-0.15235719302348766
-0.12254332668241143
-0.09762488163445737
-0.028550635910125462
-0.05761429645426562
-0.06314981175798809
-0.05081631954087732
-0.09221252405189992
-0.0858654972499664
-0.04529275458546349
-0.07892679669392814
-0.026918135154703822
-0.09551359177976267
-0.05049356472408016
-0.02929034747240156
-0.021346144464474064
-0.033857077582674644
-0.0620183252342006
-0.08618052484059575
-0.03274970446112606
0.0022000743906062867
0.04300094057304142
-0.11145927545566181
-0.06386810121103584
-0.03495759116076486
-0.057210004182097846
-0.07267624517874816
-0.020130241929530193
-0.14489393818417362
-0.08665072474375721
-0.031354770859098435
0.0206999930138018
-0.09257507330600107
-0.041216659242528875
0.05792529308218355
-0.021330495105717176
0.00878042157785587
-0.05396406638182123
-0.05398545011080423
0.0006670303513057405
-0.08041747733887562
0.08090098543614707
0.007104113925393923
-0.044117688086149576
-0.010851576305387186
-0.04650963580474285
-0.015787959736553163
-0.03236780968826731
0.0028900791571841375
0.031812397310386736
-0.06282190490294427
-0.08988289743726592
-0.015836616333215755
0.05192215725379991
-0.034432798236371256
-0.030805244999102338
-0.032371152833390475
0.008983707363638082
0.005676270077405069
-0.03729887441069558
-0.0064160693294613436
-0.12492466292590447
-0.017792629063168818
-0.017231109292342693
0.0855604396426303
-0.08561435362180538
0.018288230301281717
-0.049701629411368936
-0.06404888245929517
-0.11031984462251787
-0.015400783545456188
0.035223003789455476
0.04978621126643322
0.04516785406107697
0.038930434009299686
-0.027105523406368053
0.000290159774076865
-0.03741056727111608
-0.033503321569969075
0.05198494496075078
0.011572491669373106
0.09734692566436623
-0.00027823369266874193
-0.001546852827680106
-0.01118307638385075
0.012254317455455053
0.048224608043891184
-0.09332424102726426
0.003074055551393208
0.9291415122933951
-0.21495815698851106
-0.17144135543802208
-0.09441799244355539
0.09186483020449349
0.07182993691619224
0.07674808691397825
-0.044116628518071965
0.10967547782320256
0.2415617645740629
0.24137159237683023
0.2694487919376356
0.31854799151471735
0.2912142067578813
0.2040599510926435
0.22271432598737825
0.16797598367310923
0.15973385062533263
0.05540705208674908
-0.014587043055611149
0.036791105523554905
0.005653590182144358
0.01747730100006374
0.029477246235502352
0.07600479992811972
-0.04059765984377863
0.06323507426538838
0.024353338638764023
0.04893255610959836
-0.012411234727062494
0.08231272776668294
0.053800427896372655
-0.04551584884080937
0.015374402260707565
0.007025060338401862
0.030911133368902374
0.018012779546120326
0.013402213986089267
-0.031362196725499
0.02535806081646629
-0.026577469313711813
-0.04467180740244164
-0.019743528295098012
0.02188955626445073
-0.0001453530448141567
0.04517788602792311
0.014901040020216708
-0.032878495930433405
0.0563330817915475
0.02002683603944614
0.02278944287811994
0.040085434245371934
0.1390531716173798
0.07406689785646967
0.030604815196177776
0.01513901531254647
0.0971382011842909
0.020329379658078628
-0.002627759997248326
-0.0005743132139712503
0.0039194310946271335
0.02731094915734341
0.015347670189220865
0.09363214150064626
0.024363632785208464
0.06495681856603244
0.08518005576071899
-0.0023844863112077244
0.07154155648240582
0.005808681368423843
-0.03427118933841145
0.04341807087070076
0.012962044755196415
0.03879605731001578
0.09944830253040872
0.0888053833736075
0.043442551504882396
0.08148023155199076
0.022810172417765045
-0.06534689490856795
-0.0031061395480539156
0.08069737577708307
0.05146985231535871
-0.049701972032273785
-0.043675820862076026
-0.07293941444955412
0.08418962254523277
0.037189749362014454
-0.017192452123009398
0.03799370077033067
-0.0054839394683257325
-0.0383847191069345
0.0198475948542903
0.05378309819644618
0.06233074013141242
0.02933362778009424
0.055219424457596485
-0.03739132827951268
0.030789291247425264
-0.07678162738009861
0.007870482489030994
0.06939776320325057
0.13760994418860992
0.06078333275441623
0.13334655465055878
0.2641213534468171
0.07236950975314398
0.11475269996751808
0.06591550125728787
-0.04994334439472296
0.08809372678269943
0.0868451607657814
0.04806445663480166
0.016477653520634808
0.0726677136336576
-0.009374849202668872
0.07421742341439261
0.053001530133753035
0.010969866453237602
-5.5184883864273226e-05
0.10635872976820365
0.00939171720675501
0.10164253428890259
0.08213513252536073
0.021059427202708578
0.16814635011881987
0.016220799464071088
0.09169997264942048
0.16014076710798308
0.0723738864682721
0.054826611922199495
0.043791880583898636
0.04669945261947646
0.06593646507421398
0.07343214939599604
0.08618330062263488
0.014004061258047512
0.07980392688920332
0.11026152651661239
0.09207856732402395
0.06563103377204745
0.04287283710171502
0.0653279781779411
0.0619983134741451
0.07428683371765002
0.09416591278634605
0.15338415530871877
0.06206034583206754
0.11098442563224614
0.07803946363733219
0.03682027305444474
0.12747974225385028
0.13722968244346095
0.0812003060207002
0.051899642101018065
0.05965364463368314
0.16110606258005
0.07267672816970443
0.10769984255109666
0.003241010045256329
0.1302082515516601
0.09609726070598913
0.07745741960800202
0.18706091820756676
0.08448779927465455
0.05488327311795378
0.11240579746669357
0.1630785521864631
0.020261244275137133
0.08041303898923685
0.08368003669083979
0.10792463022961996
0.09347322452606036
0.1838537301746066
0.09471681721705205
0.12316594113596237
0.1699837910311967
0.09220852166279608
0.08761006779037558
0.18558222366377575
0.07197503751245787
0.04407973649330278
0.0793509927458186
0.09632557250813174
0.028992669635051996
0.0741899800333991
0.0853070914719116
0.13463403064818308
0.10989596780691037
0.010108673753609188
0.12351016372377828
0.07158657148498739
0.053946096717541074
0.13703645953445448
0.19720858081138104
0.06633219733595949
0.09435091303185175
0.07807066024569351
0.058527420820197774
0.08929975802306374
0.11603659752458578
0.18495536444484
0.19799433091858165
0.12389946817503716
0.0735328864294443
0.043145344309290935
0.05215879612167386
1.036951448170037
-0.12346973239811876
0.019898810905175143
-0.03618377030547133
0.12912486422314817
0.06984934993279744
0.18025119085612692
0.23972411994407392
0.2379511346047327
0.34062507787010654
0.35498635684627333
0.42115339449255157
0.376448919647086
0.3555417816632099
0.26610200080489244
0.2756389086462309
0.18216817859129653
0.23520743892506124
0.16174814265150012
0.17131723297462112
0.127415450113365
0.0448861763711102
-0.013869718408018206
0.03357572864179943
0.07474600229755002
0.1303613639654826
0.06501951440649019
0.07768899698670063
0.1264262882718127
0.0646310456449914
0.12650674517200255
0.1001485877945102
0.1268240026291978
0.10987303789953413
0.16785072723676206
0.06099289204023098
-0.056490016163994836
0.10441383654892836
0.03527910123228879
0.12387288320913378
0.07178832160102237
0.05723133104106611
0.08350907397281318
0.08143613261474542
0.12224313425439029
0.14488265950212725
0.04363772501542369
0.027455955348436922
0.12665444880003668
0.053163715990132684
0.07602470230059229
0.04793347427508068
0.029917940074513164
0.09576346386042685
0.10822392344189496
0.07697582999946623
0.07387597366129925
0.11366122411685928
0.03629621613422547
0.055940890413480576
0.18292888408979685
0.020476549300909183
0.008801941981988276
0.1188307396636689
0.008841887687588673
0.10650806339679719
0.10213431364874737
0.08852508242667083
0.11092074834679506
-0.005542523056806609
0.1336709369126024
0.10491904860067558
0.08078776285649555
0.15447412699881508
0.0971101026858619
0.10987206016435971
0.057603228180971994
0.08448911864733827
0.1211256407734229
0.07651838828815986
0.13865830378204547
0.06914900484604566
0.10652478740045353
0.1519966543939023
0.22050549275631315
0.03434329818073474
0.08730848063964106
0.06173340577663098
-0.021995982272606837
0.07530194316271835
0.10822862350067392
0.04566272054477637
0.04304534724111451
0.15941270258058443
0.07146997880056863
0.13240300771122937
0.09012344782621995
0.15732924196673193
0.07604606958483423
0.13320526938305477
0.16399444207363795
0.1053931321569895
0.0803766054393198
0.12423738873314773
0.09509840140730741
0.018978137733337203
0.13158442526105799
0.08589261703886636
0.050077972970486564
0.03906314189041972
0.1686632315941063
0.13597839087651983
0.0437104258404495
0.03698613072367398
0.09862656474421042
0.2249062655799048
0.044793331904849715
0.10128849541241779
0.06114112758134683
0.07326195772154688
0.04400781096700094
0.08386248831040179
0.14168278640970478
0.12708891571106284
0.10428938867411909
0.09457427006411588
0.04161665042667349
0.08182682428543529
0.21400382015721053
0.11578156670792022
0.05626354586228659
0.09809586652056233
0.06554654333154689
0.17034503382127553
0.0753965979321547
0.16824356545196062
0.14482148564258365
0.13473984447553214
0.10496029450741051
0.07949751691022107
0.0823106761944885
0.16545195162344156
0.035075795517355374
0.049696121004762485
0.1054699269582276
0.10116363559760949
0.03456499446113696
0.07479738192050513
0.06025723819923233
0.1426431007549428
0.12095147472480883
-0.006542078987922653
0.05920755049424671
0.16111933874479414
0.08439447411225608
0.15037126331653822
0.1683711149874239
0.10420889347660049
0.03517926016261876
0.03834524675225109
0.03547280578941915
0.11775340739106196
-0.003984818621993805
0.05625265654214273
0.05366328289764184
0.15448392441908002
0.07656655206430106
0.08330813661960743
0.11366987618995539
0.060074966438282196
0.04496757711015806
0.12759866059362035
0.13277163389377036
0.11071706323168234
0.13351647798060762
0.15211979838573858
0.0010121638796943833
0.0700416693054231
0.06486784020233861
0.042169236515312444
0.020959557881960487
0.0818726855109797
0.06967829696622996
0.06941681261438934
0.019737044186410757
0.11133205781386338
0.0812229494490392
0.14007604211569863
0.10503197530921955
0.04676968671021825
0.10699610667376824
0.1283446248766049
0.08608402685982883
0.07229491617885322
0.06928288168891583
0.11763898320075486
0.01589555227230277
0.10148100810714153
-0.047836611596507185
0.0008223586663410254
1.0245827492733706
-0.08402110012619195
0.031461186133698416
0.038766888986022804
0.07937977435581209
0.07794610861632399
0.15055222691013392
0.09363056882973632
0.17021668524067643
0.16054338300117355
0.22946073878927087
0.3475669272034181
0.41604632479203335
0.36941106264433543
0.2891874410094699
0.14246325781935654
0.27724771866806824
0.14066226165815593
0.06543217846371074
0.10948061164161427
0.0515405262290698
0.11786769569806275
0.0497860336109046
0.02427616537794866
0.11863303736538336
0.03939392244531893
0.11017684483430924
0.08752335673743275
0.04968294584067008
0.03459793333870506
0.03937728368945911
0.07889128861305444
0.04981809911758324
0.05434803468146644
-0.02161750014000583
0.0784445702376117
0.04384542016900529
-0.021891808244258903
0.016433620454016227
0.03716577245313872
0.05272938532471065
0.05633975935877552
0.05384926629947744
0.030748676178802677
0.11122141883594477
0.10200585361355886
-0.10353449523198371
0.06409896704957624
-0.06647192652435492
0.0038234263380647095
-0.059826730837043755
0.06296000324697645
0.06450917048268243
0.08864724250714892
0.017202998176649748
0.0054620927186874585
0.036153169986276
-0.0294821465570687
0.08672286013789679
0.017956383072421086
0.06285931024435175
0.01782960650600065
0.06994720212800316
-0.07074122272482392
0.09787382279063916
0.04071362531127823
0.018447888930399003
0.14477332562533618
0.13920523254822822
0.07685984830929415
0.004277088393108194
0.016604520236199984
0.04588858540520185
-0.01511582418739824
0.012233726987152669
0.03889527203398846
0.07921043032012766
0.09146299950533651
-0.02509682253134625
0.015307173870897008
0.02217671916418163
0.0995680173626632
0.022030602971213897
0.05554293900678336
0.01738405541335184
0.03220320998227759
-0.08561791207252228
-0.012421247168064148
0.03372321779062078
-0.026755290967626653
-0.07818668765864263
-0.02212618496447021
0.06856859051317604
0.03484458201735425
0.016705175577080105
-0.08417631732947632
0.0017709629770753554
0.07152611293337727
-0.056976674520204974
-0.0039268880701930605
-0.0005595512733804885
-0.059791298530699644
-0.007130098118446077
0.040962375833857735
-0.12278864969745422
0.00598667599726127
-0.005584846562019659
0.05042068937617421
-0.049095578648457566
-0.022448706552009038
0.021375973475404167
-0.10112994851136575
-0.0677819748276299
-0.15274125896773488
0.02175265331932176
-0.014691542879607873
-0.018979782584040455
-0.006127175261652527
-0.008824693440902632
-0.00958628614292277
-0.018833798130032223
-0.028434942577399314
0.036122909706640574
0.015971136900513293
-0.0011149841379577002
0.021835736912653083
-0.03137218847192552
-0.05352220262675212
0.021846019349489293
0.03687809623818955
-0.008964467855303769
0.021944619741027876
-0.01849665731097589
-0.0991263650031832
-0.10830144122979463
-0.0711937135807407
-0.055656572553159284
-0.029843498787663895
-0.0883484518081202
0.04935660743713464
-0.044567810233154745
-0.04041542293860274
-0.008537834389033702
-0.000319071767312995
-0.006142875231521728
-0.02073572941244947
-0.02079993517119902
-0.021258855786202187
0.016434880000624513
-0.039048130527201866
0.06790290552694894
0.03781626157547699
0.039337246261878914
-0.04358961418097887
-0.1528944432150528
-0.12815720615337903
-0.019861142443983393
-0.14039557194148602
-0.07046876147082345
-0.10352844470496253
-0.030545035123550564
-0.13644703561315974
-0.12054003789411044
-0.1410411060785159
-0.0510375548593741
-0.0851826359886563
-0.07141417277934851
0.0011198671947492411
-0.044665946999617914
-0.08849486034731252
-0.04734320278930997
-0.06879303897558622
0.04675708328402832
-0.11984573521231848
-0.0044444801552820865
-0.08517371862274084
-0.1212480057086289
0.04631601337136872
-0.026606126860565602
-0.05849750035935464
-0.0705161273714193
-0.10443931250455188
-0.00763911600041417
-0.10051963831789851
0.004209372301706676
-0.08712029402044683
-0.03494052565152095
0.0887384383240783
-0.09849980386291493
-0.010092601094943948
-0.12795595474569657
-0.024413050616346188
-0.06154351459727951
-0.10139108606915531
-0.07188363477711351
-0.07464360432767556
-0.1000878901181852
-0.041790511508609976
-0.05751743224118428
-0.07754834515827645
-0.0730920399243267
-0.0883562425942193
-0.08138255460392864
-0.11703412554218862
-0.06860858092867819
-0.18336970096368094
-0.08965222611887416
0.9505667526886105
-0.19918356263052545
-0.22634454657700254
-0.12311683529446732
-0.04767610674391727
0.019692240751713663
0.013939051125265133
-0.002307211033378734
0.028971645322761676
0.1267418978290333
0.28941649120029417
0.21946047456004264
0.2860893769767693
0.22986643816475316
0.12584582274603498
0.1045487987515567
0.11789080327832094
0.0046059559806346465
-0.03535969875469253
-0.00941367568066985
-0.14867406455533025
-0.01681908836207012
-0.021836903381124068
-0.09468504424972764
-0.14511774230345964
-0.026653180200016585
-0.10802675340825188
-0.04997771895253231
-0.06474093888159105
-0.09848404044396153
-0.1297799543485269
-0.2068021578580816
-0.1377153898438643
-0.026624439385091223
-0.059004471504919845
-0.13025432881373947
-0.06413061706411961
-0.07649797913967922
-0.09131087898338258
-0.14322731933330224
-0.09348305056064657
-0.04092863425619524
-0.10996900908343304
-0.12993620448740728
-0.058165291830007765
-0.03347295748942493
-0.035194103435961806
-0.06764226492277767
-0.10669245937935373
0.037072786162986385
-0.09386243763752897
-0.11300981644944573
-0.059873398206826176
-0.16978618880164123
-0.014374978736617972
-0.12166551697269704
-0.11264635310864159
-0.07259478480808637
-0.08273278731147508
-0.10483635613341864
-0.06748113890225632
-0.12800941880173183
-0.09762491357647028
-0.028266370017777445
-0.08164137502624419
-0.11389220102742925
0.0002779397552721691
-0.09850747805593307
-0.07273379942226244
-0.09299892471833962
-0.10354805663446545
-0.1627906703563712
-0.08321139953611964
-0.1449508435385924
-0.12257564394117428
-0.030883988446500553
-0.051894605483028086
-0.04471488583431296
-0.049822780547865556
-0.09497636667521606
-0.024223086272700256
-0.010222506302175291
-0.05789688773101289
-0.08890617410349407
-0.10063368681021302
-0.1176694743401975
-0.06858593829474707
-0.013063066725760214
-0.16702936970568233
-0.11103954614267406
-0.0918761766375707
-0.05328271018000563
-0.12034724987916091
-0.08473992515913263
-0.07880245618201004
-0.14225599675678463
-0.11026956809632094
-0.03695229823604982
-0.13755791587592814
-0.11757743714318426
-0.08175122295641109
-0.060461930356851934
-0.03046777012926473
-0.15323498752147552
-0.09299077191945902
-0.12485638846326927
0.02044504366199827
-0.08434121319521332
-0.1349496613011582
-0.12541572111563803
-0.15731835510443185
-0.12550714223385842
-0.016518837007024334
-0.19342750197062147
-0.09889249223067997
-0.08072049616387061
-0.20098575033486799
-0.09707147174500738
-0.09490596920767429
-0.1549863396502283
-0.1479802391608078
-0.011387150539228924
-0.2061733539674309
-0.09031381144496155
-0.09160702674027271
-0.10415226913490136
-0.07739650293183133
-0.048384397715301286
-0.13376182000291298
-0.09604413454928795
-0.15408588942197937
-0.057134329102515584
-0.13422172271373367
-0.09163306890703946
-0.020633825671302022
-0.09713975347880613
-0.04119836748212166
-0.1488175917775239
-0.1737998233637923
-0.02686371850051178
-0.06038223215914522
-0.12508242126881655
-0.054754656484687685
-0.10459611708932771
0.07910147284092417
-0.13821508516805006
-0.12239319914436149
-0.08690936274322765
-0.07743284513254256
-0.08717642628534417
-0.13308589238307655
-0.017940136059774514
-0.04111402422469103
-0.04408812853232108
-0.02655151458181866
-0.10376922851151607
-0.09855918798617921
-0.06969290444771645
-0.010685727605159567
-0.09981485719599541
-0.10579148962779111
-0.01192895437293462
-0.07958838599613893
-0.08008236840322158
-0.1134585241982082
-0.031733489854727556
-0.01941146732178431
-0.031403698514326825
-0.04642983608099747
-0.026031534037573745
-0.06676175690971975
0.050509240907954084
-0.06770250864383294
0.0034274626413701575
-0.20400903528468178
-0.17710744801590356
-0.07683270847587592
-0.09955507974189402
-0.1225733799257238
-0.21754986137902604
-0.15353294927186506
-0.11261593872619638
-0.06423556416506832
-0.07936249313817613
-0.10646150340175826
-0.049111592412818345
-0.07631911845678155
-0.05524568752416196
-0.03401473941935583
-0.022667409583258455
-0.12133563777093043
-0.05230115264598601
-0.025149602384346437
-0.11207632654529455
-0.04156867227540962
-0.038480258845206984
-0.073321323434523
-0.13951989427871683
-0.1234197092709735
-0.07055105401102954
-0.12074848733090901
-0.12458765665742119
-0.05162076449647249
-0.10737256299138588
-0.003890522833915666
-0.23555680881789262
-0.10314599890990128
0.893128982719257
-0.2767164682080342
-0.17427390390351621
-0.0522528182136965
-0.12314035103983892
-0.038401026027479176
-0.04184271414427109
0.008213896233341723
0.02235460769103422
0.1187461917552317
0.10668983655579281
0.15102853466638444
0.3126734930316637
0.19768291834289298
0.2510256634175944
0.15627128146514233
-0.04374499892586893
-0.07510854400162437
-0.003570291698239962
-0.06923156779631898
-0.04994585640873835
-0.042785932627540754
-0.06062698796441032
-0.09883077784834257
-0.23444212136609602
-0.09553626544058037
-0.11923667959120857
-0.0635670871967706
-0.13791884082872125
-0.052576618556301136
-0.11743515421871624
-0.10184327642680623
-0.12661190846985515
-0.04116869814052991
-0.09839771502645744
-0.15555364152115558
-0.10930322618982395
-0.09343670526351122
-0.10906339286431113
-0.0729183000278937
-0.029537374774920272
-0.08293932934494525
-0.1685566316066971
-0.1135076804186115
-0.03456478000892657
0.00011112420500894449
-0.07246776630191129
-0.07190741504838954
-0.06745520639724617
-0.10576506810847625
0.05856888432896701
-0.1527112453463878
-0.1704486565368446
-0.09147562447114523
-0.01035444997211124
0.01766756428496548
-0.1131652633528942
-0.06706858938958905
-0.0610227684710048
-0.0905597677040568
-0.022968843164979373
-0.043981064085477944
-0.07464597668399342
-0.043461724760698456
-0.07128806200923467
-0.03208483234383899
-0.08913007695993475
-0.09872309223749838
-0.012470258392748686
-0.0048163596080884885
0.007526610398542952
-0.0005239161567027056
-0.039248825711221694
-0.12497141078715822
-0.002746620368486344
-0.05624033607935184
-0.12865454802245346
-0.0780778739249711
-0.02249269222821787
-0.003351851376290238
-0.0006228549914767748
-0.06493897295837792
-0.024082836125318488
-0.07024685584008883
-0.04785420319670323
-0.06377787973868684
-0.017662304839439404
0.056487159754525784
-0.10859172072356532
-0.017063696624767838
-0.18810075989772324
-0.04837936443120584
-0.05205266181201018
-0.10065653976580999
-0.04001843320981698
-0.06952213836744846
-0.057632544948818684
0.004811707418963883
-0.025664743540874235
-0.045818273007363367
-0.058898171122346375
0.03199388776281978
-0.07719127041189114
-0.029534114687609032
-0.12302898242531128
-0.13930344984846643
-0.04223714969416437
0.011137343904826562
0.005860431577995456
0.03388524292888649
-0.05417447407005738
-0.07291978879053398
-0.017233165808138124
0.0020821250984843914
0.09042032999382216
-0.08925479641590174
-0.015044073816392167
-0.044591663839125814
-0.04547229420913421
-1.590172771990389e-05
-0.046060517834052
-0.03125892615761446
-0.09623458277920768
-0.07300773694599393
0.02962898761706225
-0.004808340805003201
-0.0316247119594077
-0.05821265620244519
-0.047721193212750854
-0.009197054889377783
-0.06149193090139441
-0.09169247005063164
-0.006205107194933494
-0.09755847761162686
-0.02898300197846155
0.04557436748060892
-0.06562663183742944
-0.05882696548954126
0.066043875214136
-0.06466298748758298
0.030257350883025155
0.02732930007439714
-0.06117629875243627
-0.12744498468354476
0.03491938458360527
0.015464590796165877
-0.014511986586573176
-0.07551343345000959
0.03921830522137639
0.06875188646071642
-0.09431608750638971
-0.0858260213870433
-0.0387765425737002
-0.007899361240787585
0.09562843294557984
-0.06276136262505111
-0.004216401727368145
-0.046705917772594675
-0.0805362736695253
-0.044179241009000586
-0.07399510345999033
-0.03954492922736709
-0.1197189862530648
0.006703574279155865
-0.04984655137658862
-0.030870362243092357
-0.05927074230621469
-0.05135773764030754
-0.04772102091651069
-0.03856354811973282
-0.003355434362712804
0.02887543162547658
-0.03907439772520665
-0.024689851640423664
-0.045089839049413855
-0.0108608748198968
-0.06398518469488014
-0.005803758521293868
-0.026617834833199648
-0.06727367444066373
0.03876644582258592
0.040369377051850654
0.03870916942009666
-0.002521197879516878
0.043846970986111934
0.007996189121591515
0.04644417054163441
0.019464255383299957
-0.03647423797992974
0.016322138143103265
0.031901775133415106
0.01693578478317398
0.013810613273687627
0.07748448268181769
-0.056909859659201256
0.053057007152752085
0.03270471431271865
-0.007886967485979975
0.01444974821926883
0.027769063478706404
-0.053098122371699565
-0.054557884952805516
-0.030175726896130635
1.0482621203795799
-0.06662271933839083
-0.1264847729465737
-0.103889387362708
0.006925945239708495
0.04569996561654846
0.028270396587976594
0.14451575496690766
0.027643203807023786
0.21554526821380188
0.23167521963849647
0.28649926824005456
0.42771091153475016
0.3589040751763946
0.24713844799693624
0.21674906337239067
0.0987468670454296
0.10303369127436333
-0.0671761941675855
-0.013771822781938767
0.009828236715986208
-0.04105983709491062
0.04946545995363018
-0.03418975672914464
-0.0194374641360794
-0.02480431303195203
-0.06612187335129598
0.07638946992569697
0.012375574484936903
0.010506991926641653
-0.007616009948253115
0.06949382683987079
0.10317496539957877
0.09163644575720568
-0.03302667211643142
0.0822158860386801
0.10094845293211857
0.07854953796432049
-0.042591724328281254
0.02750938417827736
-0.0022165625233016364
0.002714752736206888
0.07672153980690763
0.02866669907780573
0.07109061284942467
0.06340439277002907
0.05235153253091828
0.011984040219900072
0.12777862210242766
-0.04346130834658207
0.02952829849031196
0.00611576608729672
0.11013479192579272
0.04014445020010454
0.058564853336604696
0.08968950334067337
-0.03633231170109886
0.11754521412658137
0.05651745523267392
0.09136750026194171
0.09773335126143928
0.07078288762203791
0.03873423323880465
0.03964410825923087
0.028349530606635212
0.06130298896133163
0.054954966697499615
0.023778902202247362
0.02580219546263616
-0.03538946851753538
0.1073507073784286
0.03543390973325153
0.1251567898129833
-0.01220087919822433
-0.06545699626111734
0.03798187159462914
0.05291571093834847
0.027418972701109857
0.04574682351225749
-0.033985244510134655
-0.0706439879645279
0.09525428147657175
0.10087612668012495
0.06640581374738011
0.08060623413425674
0.11783190659636472
0.11027524340716954
0.028493920750216777
0.08231684408273526
0.04279144405028974
0.14622893438630907
0.09071654937164782
0.054948609059867634
0.1566447797588807
0.08789537713475981
0.05999397227685067
0.06943219877236433
0.07856076636139986
0.14206652624373084
0.09034891033482399
0.04485755000520278
0.030156157012616425
-0.012934356096206967
0.08998817119271904
0.01411785519594623
0.07966202109657111
0.043778328529701815
0.09706443690759514
0.07951086736890174
0.07122935775689244
0.15385556261521988
0.1651677959297751
0.08476190380497668
0.029248766333952958
0.11347618586979233
0.05644910992248736
0.11133848178549216
0.11806045854883357
0.09277506588759991
0.17591539265365436
0.1154585733848715
0.11544755534797448
0.096689823254548
0.04150919213212308
0.06974651532983624
0.056515211977887364
0.023180162164234228
0.046563663973248966
0.06005119018264159
0.053154994341832476
0.04688907085786002
0.08547201597346754
0.059624524280934836
0.17963467438690067
0.10068398035125016
0.12826095949810523
0.07272308788701985
0.11362154950175274
0.05664308122837126
0.023897310471391396
0.08909673958696433
0.120919897386363
0.03839010923077905
-0.011171167018738132
0.13964587205322973
0.04818629498775241
0.0721661389784214
0.0754136282308735
0.11408497923436077
0.14225879334221245
0.11524081604596578
0.08609648289601814
0.07639614436184955
0.11513067088395781
0.044781111527811085
0.09980390588976622
0.06431079228365291
0.012665232675918014
0.10264377540958813
0.07724077322346329
0.1344630275814575
0.08691607812792804
0.0765839941993031
0.07981378968048057
0.1096318649733408
0.012921159895937756
0.16422644584940077
0.0611979639053958
0.11190546997504401
0.12317740859573567
0.12203007649064437
0.12411706685930701
0.08927247706269098
0.12723614332451916
0.09757334474453913
0.006743819671345713
0.08195497237694152
0.1461797769765815
0.04062873650098601
0.1115907503845278
0.09601616465608688
0.08474194116476212
0.08488314816385188
0.08919395802161365
0.11078439480351293
0.17552081580106865
0.0880134556462666
0.16624141629906738
0.13199145231288487
0.060590208411763206
0.13902024963689455
0.036666699855141524
0.06691025094287242
0.07636404249803275
0.1699662790832475
0.05494823006897212
0.0015007739652232038
0.10839544705786906
0.042181591216289775
0.0029708084561826734
1.1546496339499461
-0.04136795187628162
0.03812142673299461
0.04995923949769363
0.059589630924154965
0.10787726218227361
0.1960641408890405
0.1949581646320246
0.24480406388446077
0.2730185180826639
0.30192488021798636
0.35283313988149206
0.4118399490179768
0.37636922443883136
0.3190274166548265
0.33395948419787264
0.22094902052610602
0.12334430797879661
0.06225147568889153
0.05745065563799699
0.09633816435102488
0.1617400845398154
0.035606452267350125
0.15195358152334065
0.2210033537928854
0.07593967490272412
0.10390032595138506
0.012197169372036562
0.15124190100091622
0.1610855027746178
0.08504545431738095
0.1739575641649949
0.05415502370872353
-0.02162416912411648
0.09309363675367491
0.1072851492889141
0.07661582644972616
0.14753101769195195
0.1230429854649023
0.09390800124384557
0.024277421728346557
0.1702123371252085
0.1753502205032944
0.0850466592092874
0.14775270642827365
0.09468934902498023
0.06046941010473371
0.010369611007924953
0.0896459215904662
0.1423660061973699
0.0165661656367289
0.06635514184352614
0.1521157598292716
0.03774370617255437
0.12493099414445381
0.12876206394777018
0.16600604195048058
0.037149695670521274
0.11929655529683487
0.11461151613567935
0.06493022454658602
0.04634934633768832
0.09908531864585306
0.11698206522781854
0.14654907278205168
0.0706335738424202
0.019213933889001944
0.18553678098835708
-0.010703084401995758
0.10272717773278862
0.002379062209684507
0.11436304128775837
0.08142938674944745
0.13383934532323843
0.09018071247007002
-0.009845108063923969
0.12039585845550754
0.1298325803403045
0.2163712905651593
0.0924289182283581
0.117733187784055
0.07676895456488828
0.12102131618876416
0.07354346239391035
0.052767741358501236
0.15077555548544164
0.04243288551953554
0.05753603816684334
0.126033856449429
0.10670480229135625
0.09359987221073146
0.08151773074199568
0.10831122006505933
0.12153158610736109
0.0035240801833618524
0.1265937239368728
0.08953856169289952
0.10498103072350494
0.0396733152344981
0.04527580290462
0.20017414049291332
0.05969312770094584
0.07228466676423051
0.04263578022115319
0.012321964614436798
0.05897369225797172
0.0374046727182036
0.05048258255556198
0.09225372101138402
0.12336479348204418
0.15143685594774664
0.11884780491221936
0.03118972452356441
0.12071079430941076
0.12147691620070436
0.017082514623173006
0.1280177221344811
0.05159208197774078
0.07104449534845297
0.11049201848192144
0.09763945172120607
-0.003459982678291826
0.07252187985373242
0.029167782820451404
0.13319399467088539
0.0906347085394642
0.11618638802144665
0.09859287869634878
0.004970505543709994
0.14836003202194134
0.10341237100599968
0.08815512764665963
0.04256540691047704
-0.004055945978488545
0.08202560338555534
0.06698476293374682
0.06311048775863101
0.13670825467774952
-0.07261800325184958
0.043665545791548833
0.10460671486073203
0.11956782957736807
0.13154907714518083
0.056714208318350556
0.01677604012180149
0.03367559966644081
0.033119871030213646
0.08772802727629095
0.05960973772728371
0.02136437979574149
0.09210698467584341
0.08643703023949434
0.05153250410241589
0.08345763637029471
0.052615427788303415
0.06210874424907903
0.03199549459448447
0.1478994699598541
0.08522024358603497
0.07933181590031053
0.030456726242410297
0.07996798871860457
0.1674659938569727
0.07196247329797208
0.14587291812908026
0.019505927444562296
0.07779218887505086
0.06437900404516465
0.12050148872068052
0.07212368803578625
0.015267822059897566
0.11492704015908328
-0.014322925147896626
0.06448392263843157
0.07909204837476258
0.04603979146439887
0.03297651593791798
0.06614620455442823
0.02924659032164114
0.08475076093858575
0.08753999175067828
0.02749828234785891
0.04354530594774295
0.08581552952965793
0.11572411499312485
0.046005022920372084
0.047535181525446106
0.10481094696856219
0.06264213984196984
0.10885997780486567
0.03811143107150474
0.052736016380107574
0.07321472736073853
0.051243334877294815
0.05405949207148787
-0.055160098843528016
0.054223711354945754
0.025176761196628455
0.05300792336918083
0.09750374963679556
0.07747583930733873
-0.18638465172241764
-0.02310843194338153
1.023709630971032
0.008346002990037502
-0.08097985773553329
0.07541417685764319
0.08364630174612708
0.06517301904247136
0.08319197069890594
0.07692875555133272
0.12094974040011787
0.21255503069029655
0.25684496304929216
0.38817665635212684
0.26702345006093464
0.2707097935273957
0.24991629368214643
0.17935830153369062
0.09965792111619898
0.10078959481744333
0.056444101972564845
-0.04272540770289239
0.13300567344924497
-0.029333442286570165
0.06244758136175826
0.09358279669833602
-0.048584720702943805
0.05817855595083614
0.04318404107950626
0.018324348620463872
-0.03726842916986364
0.038080380254245275
-0.024669552712302173
-0.009165562837818917
-0.06045190839708239
0.020594119313316728
-0.016283371002256297
-0.0035884054849383666
0.0643052177174139
0.06421895045607309
0.013247244490035209
0.03044737424900942
0.05115327005507038
-0.012978221159192675
-0.011140733690838463
0.11139676153881536
0.06056005234674642
-0.01877616831665147
0.050145203538340476
-0.013173847770956464
-0.01365885336026906
-0.013736820357904644
-0.02833826074026937
0.007877916203831416
-0.02001561623171172
-0.005778358921197043
0.05385144134784246
0.0184886281191559
0.09148807137101196
-0.011554867380354399
-0.0905654287973762
0.03950672619507149
0.014540172423182337
-0.0042504567807986685
0.07431203539504949
0.020963167264201134
0.05924466370122108
0.04055055978604753
0.06934967258069877
0.05592542689091287
-0.05660912498076005
0.02546410705689661
0.07802028926052826
0.046747877592248
0.008024595157272378
0.08612432136637159
0.01728406304246047
-0.04297741295586559
0.002923200292901943
-0.09174204019075882
-0.08913086328564013
-0.051722183923757846
-0.006971528036150372
0.002084067226870704
0.08665612853450314
-0.0032768086443247493
-0.095431398826606
-0.045668115468158285
0.054341228538356066
0.09667217980307274
0.14506495758350346
-0.01757076841585415
0.03551229432134814
0.020623337361924926
0.02008595246528776
0.03448483717527349
-0.08853281786617777
-0.014569931579159881
0.024699285833827217
0.04293546591328606
-0.026743159350710973
0.03446179757945894
-0.11124486388065744
-0.04674116996396259
-0.0007796387655282372
0.028594289968300667
0.030759234126330297
-0.023296736964128286
0.036084917224422794
-0.04525593104166133
-0.11952530786706513
-0.005041343171778994
-0.04737222400627684
-0.04590388233390871
-0.02661487029480957
-0.07057550518517075
-0.07041663351924156
-0.09993103838189638
-0.07717343446411568
-0.05918234549402329
-0.05486261754158738
-0.062078790556291286
-0.014034928488986348
0.026155909050009064
-0.052375246619975196
0.06981833839604659
0.03636505625857646
-0.01226973459223615
0.03967686136788878
0.029287285834424276
0.0245263689750002
-0.10937730315452085
-0.10047293619360978
-0.02300134937086537
0.011666842092774084
-0.09255638559607633
-0.0684761681860547
-0.08472818066301088
0.004515064223683911
0.021363863914021834
-0.0232614637371854
-0.050241104010854465
-0.09472660722048967
0.01587192738260846
-0.0017888296659518271
-0.10674697100621167
0.10791236715630759
-0.024495674158438896
-0.08048104387730484
-0.10602327715977872
-0.08432157027739665
0.004726571760762091
-0.061341684523891514
-0.05058908743511856
-0.0032726051024726255
-0.09650894257808089
-0.06037563888604168
-0.10222592680569165
-0.029556466991885872
-0.012030178087165631
0.029011937257425353
0.03203757374540859
0.03913795353886664
-0.055639347236158924
-0.029203158288102087
-0.13757730498777432
-0.026265960580154544
0.02257238515563447
-0.04721020447397213
-0.04613478934387098
-0.10992655176252941
-0.006713776237205524
-0.11679488491599971
-0.03189008756149143
-0.041239292950967565
0.015753216562272777
-0.07720095103087754
-0.12224767244979066
0.01914671624934794
-0.07648841537382588
-0.1184768486526527
-0.1661906142898641
-0.13995301879556035
0.031895434242329206
-0.03262563148105106
-0.07638854541071544
-0.06595751400835476
-0.026891764070223236
-0.06894327570458691
-0.07305174855066844
-0.06979936509632353
-0.09960828466451739
-0.09472871650021379
-0.036718684246669145
-0.056481576489573505
-0.12366425681301282
0.07035287782652215
-0.019923930065251866
-0.06079792528893323
-0.041547207983252926
-0.053286800842824646
-0.0914069637500294
-0.07437148566894147
0.007044827909333487
-0.008399722620350589
-0.05239643058361658
-0.0692730474791971
-0.006217342515988961
-0.05000906069072954
-0.05464888593190149
-0.17224030956620212
0.017635219858623527
-0.13474047543187256
0.02638903259322685
-0.0649052802978991
-0.07148219488983638
-0.17387414119009592
-0.15548954073275015
0.897019894612812
-0.23623716387839744
-0.21389747827511624
-0.19697052153497985
-0.10775212340629535
-0.081284107935215
0.010984648222772488
0.018073397050426654
0.11193613914055879
0.14263420984140865
0.09876976655143552
0.21611159976484248
0.18737175106982645
0.2238554299321802
0.1612518271298109
0.1585232303631673
0.03645943484844355
-0.007513636286957625
-0.09175631012825552
-0.1176653349420388
-0.1357973747219919
-0.024007287141274702
-0.14906835442239838
-0.006575370792775592
-0.015480965792819879
-0.1700877530462719
-0.032280079190964
-0.07105659928555827
-0.04409345758147168
-0.13321883976642468
-0.07217216511547245
-0.11209444548561164
-0.115005884572754
-0.1087234507683551
-0.10856495349008409
-0.047780109204856196
-0.15248130103423396
0.004667029204052195
-0.14369292491621374
-0.13255765042627232
-0.18820086405993197
-0.08032533134411085
-0.1868446028762703
-0.15164897306850172
-0.03937142090812471
-0.08904421808819583
-0.1272219564433459
-0.0917013171979596
-0.09484403148559747
-0.09860893299036143
-0.12768825631555095
-0.045920847233825154
-0.010883332549199515
-0.10780474905806312
-0.12371761031456752
-0.0655743100410543
-0.06155977385634151
-0.12410888115804321
-0.11323837187080364
-0.010584627993094675
-0.05940490770192058
-0.05723717165322692
-0.029637530438383894
-0.11306046406463818
-0.13999131372291576
-0.14909658347640306
-0.08726506631379752
-0.1018694000242005
-0.08886777346568696
-0.15840012291441175
-0.1688354209834584
-0.1294159645749411
-0.1484669264615604
0.0025699890866886232
-0.15690273562678805
-0.15158508975621682
-0.01938682871273309
-0.10574738847354517
-0.10178236830586893
-0.07797651680627052
-0.11383464516612712
-0.17727896527424153
-0.04596135942161724
-0.08116235432071137
-0.11309931172155625
-0.030263399137790928
-0.07705291351096265
-0.06394816065875192
-0.07188869228544745
-0.057860763991266
-0.05659250394319433
-0.10064927465002346
-0.19497196570249742
-0.09249559998479678
-0.17105692263205655
-0.1209257993641748
-0.06474241238965173
-0.119723185457827
0.003334501987254601
-0.13964833353852663
-0.06231642943878232
-0.09672236101780166
-0.15673662111826542
-0.08802684681947995
-0.06611716057437819
-0.030536554366942165
-0.11119279541488541
-0.07052518311188585
-0.0710629227199527
-0.18824658456476806
-0.07720382472147172
-0.0042031131886664935
-0.0645138848744349
-0.151473911141783
-0.015869862981616786
-0.06406350832362942
-0.11391613728240246
-0.14618385587808924
-0.05684511092270398
-0.07303543094202762
-0.038332870955797516
-0.17852260549617016
-0.04697981178449054
-0.010286812101418477
-0.12171761953072113
-0.015753774784304245
-0.12788897778157257
-0.09180758422637617
0.012824776442451391
-0.08986827022128495
-0.10882078021074987
-0.12962375012200741
-0.16902800479672114
-0.16791814243785008
-0.06906102619534028
-0.24219064352130526
-0.10159110955311161
-0.12655621777735715
-0.05088968604099167
-0.16559642505690436
-0.1793330747953713
-0.12200883705394042
-0.07037863776492836
-0.06869550629179125
-0.025705005624273913
-0.07130451732884974
-0.09927659264927677
-0.03168464994247959
-0.11455283804509371
-0.15890994351021573
-0.15812126000110516
-0.1385719376696989
-0.09774967247845098
-0.16105659760501537
-0.09975209272487516
-0.04721314061654367
-0.15495843194769005
-0.13051018826170352
-0.04170962844659355
-0.15615780346037367
-0.12840678989206994
-0.08142160618821342
-0.08296044346901103
-0.07496098344088623
-0.14373441189331596
-0.03549518600575266
-0.17308547236592334
-0.10404632460367083
-0.11012165895078051
-0.1086462615684427
0.004438120758695999
-0.11006232279442218
-0.06469397056582668
-0.05693136453691452
-0.07243262790500359
-0.05334682183778818
-0.09126014923024116
-0.07864365332644893
-0.13685071696070844
-0.13555672451051293
-0.03459245282383394
-0.10714565352261796
-0.030948420703296967
-0.003423098615415579
-0.044429028036599094
-0.1492543246259102
-0.15537292577661466
-0.12008119148742227
-0.097035034866225
