ECG
1.170044187553734
-0.22838154318630033
0.1724086243983879
-0.07728316885513932
0.06715417718134241
0.1111901245065687
0.05247665797466825
0.1290286863644702
0.0015457648955710668
0.0565793724945485
0.3295930021736704
0.14630552080242185
0.36762691470916636
0.3392578806637458
0.14400144880384047
0.15255010908753558
0.06026105337253976
0.1236725185553571
-0.07641532381285995
0.09005658691737808
-0.13932109224112266
-0.06959299836593913
-0.1122970284808776
0.07319987030800333
0.16058669703319334
-0.1909029650409919
-5.444334541003515e-05
0.09789400934200687
0.11933642591587336
0.0743891491192149
0.11589430397598836
0.030954205126485
-0.17655705083799494
-0.17433855540019866
-0.11623342377618515
0.03953125553234245
0.06400820520903366
0.05202156918756749
-0.18630755463531534
-0.062247264548850205
0.012759162261342669
0.17920044044318273
0.030010171359191984
-0.13071957114905308
-0.08515326692311578
0.12183387058806146
0.04340756334473041
-0.10199695003168464
0.16954364074219674
0.0035941999882566876
-0.1914358326727002
-0.19244415038368953
0.15974477639294332
0.08996097828274778
0.10709204489526802
-0.0906692588551346
-0.26651569531073793
0.1168777547035173
0.035055016478496556
-0.020055175982805963
0.037503761894845125
0.1055707002750764
0.029819770413811057
0.06183697155345225
-0.05947950070962976
0.024701668626852025
-0.05689192080338826
-0.039308387818116575
0.09282106465933064
-0.11053170056520131
-0.06439146756326945
0.0748569917734574
0.12726354278734434
0.11424353942684158
-0.05869177728142774
0.05200982759007949
0.11017366838785178
-0.03586283913453645
0.05601408072084103
0.12444195386991365
0.18373898110148237
0.0727278341897702
0.18820934451882407
0.14762866398759128
-0.07224173872187045
0.028889450511290608
0.02653977517888248
0.13345204250939985
-0.06160411727484053
0.06274841818301895
-0.09096248898748753
0.01461880804822853
0.09136136277243762
0.09922224414688274
0.031683822924614635
0.11073229994072334
0.08396850310940261
0.0031867855602807776
-0.15961135832482534
0.13956293783173396
0.00900971997029891
0.18294938476114578
0.08518608707687174
-0.046906081038364515
0.060656267688077886
-0.03157584445401067
0.23989914969018122
0.1538241981788733
0.2798301621919013
0.09082269812401601
-0.06834551006878486
0.25598074642815516
-0.06003537421345785
0.2668460920685071
0.33953989463213496
0.060453968962485755
-0.3455303089498271
0.07791747011224737
0.13837895886635193
0.1342741488308531
0.04562696762040702
0.24067615896105837
0.16306559445545735
0.1369027386847238
-0.005173474856596236
-0.0336285521373382
0.1250535793972924
0.05512815384718257
-0.001718786904858327
0.1582843074240155
0.36037201848272815
0.049655082180805596
0.15181415037088453
0.036958293651183714
0.03613110138799193
0.05557825901813666
0.06589587249209199
0.11013346102006559
-0.08933745693205772
-0.12409094905659108
0.07368632296777061
-0.029484233547478852
0.18284326341345164
0.2958814586609996
0.08592856256162021
-0.0568778607793832
0.10136796913994998
0.03768000516587449
0.223402650150589
0.054230145339777776
0.07304852388331579
0.19980265538356795
-0.15493544479492008
0.14947719682823193
0.03961227279528447
0.05721626847924799
0.1361004745584224
0.1401336905681407
0.2259477343814334
0.027169136475494474
0.16057031463979143
0.20697427297142543
0.13235609476738114
0.2545414990782464
0.12566004114736296
0.11890038586059376
0.2335131860208273
-0.0004342095989637168
0.02577600773754833
0.14027975622947905
-0.09179574254376306
0.1986634977681123
0.07945221818697167
0.09985183268169985
-0.004558051500483551
-0.012555846254123093
0.11552211451686484
-0.04557454961249746
0.16205172144412672
0.04438446272957974
-0.007674073168643977
-0.015488782159208278
0.16661456622204712
0.1355048746531283
-0.005092639581894626
0.3233152886162619
-0.2010656147169645
-0.016408686625815266
-0.11785969145521645
0.15115959728829254
0.020956706448359397
0.07020571974206587
0.04946424725461564
0.12967798347243095
0.04196543867653314
0.008898487238215763
0.10462877476940166
0.2571354302093334
0.012062522783523905
0.24972823371890424
0.10227213701607343
0.0673699572165875
0.11608767214764758
0.05143953601310944
0.1422304504256193
-0.0358319926711201
0.41133889528144923
0.2618184549353388
0.10307890254054367
0.12467334808839031
0.26854839264425534
0.22293013820093205
-0.2408437487785119
0.2566801185674292
0.12884286322395833
0.2215007639304779
0.11194229861567828
0.20394597701492034
0.08953670053515733
0.19822623806492123
-4.076906965522209e-05
0.25249782691341477
0.14214538688824707
0.03330693884642748
0.0203082335126248
0.10233711862275297
0.1821524197751139
-0.0501579374639026
0.2553033415650642
0.09400162948233448
0.23448872201084855
0.19469619017375642
0.17804747733164383
0.13496247092653724
0.14647952674435366
0.03291515862694007
0.16225399768220733
0.052531759474963316
0.11364851917116262
-0.11568581241795373
0.1479301594080877
0.08751979404253005
0.16874668302841095
0.050990279097277345
0.05268395543701049
0.07376997321537632
0.17957990891460224
0.10958500139526094
0.17357111829302155
0.15674764359816828
0.2630334604634324
0.2965822476863105
-0.16841466976006314
0.028946357215703322
-0.09198372635214126
0.1961506439872952
-0.042095561964339584
0.03199912205622385
-0.12395575465278993
0.191694214671984
-0.03393475979720763
-0.1872247701866342
0.04747966210803728
-0.019791904230965857
-0.07312003293635207
0.2813109527210252
0.2947275539395943
0.13462978738660225
0.21406957331245702
0.3007999530325667
0.24941629750528585
0.0550710866062805
0.1465430793281592
0.027191906489470466
0.021655759880629635
0.06884281992264268
0.06393227646648333
0.0294527235648418
0.18881927340676843
0.08927980022726628
0.013316129927868209
-0.006718419655633939
0.20066205787480743
0.1919820793999637
0.2017626870292416
0.13867123848501314
0.3638535930069835
0.18358999201413947
-0.04446450949257004
0.33114718204218546
0.04670900626891951
0.05390217701230051
-0.12430705362168361
0.061774803876443705
0.1874727918633182
0.1840858742499314
0.12990353019295003
0.052535466806142316
0.25524652144406423
-0.11601102347637121
-0.011918565762736422
0.21686898829315718
-0.07558921438839557
-0.09876982679627744
-0.08099071737237357
0.27157082843643143
0.1144702699594054
-0.01971839206747074
0.17858299296247307
0.22532647502672404
0.0794334217330457
0.06764911715211414
0.13943988113235822
0.11052294958422987
0.03625693799320189
0.1959818009927865
0.030535653766112093
-0.06039146424651007
0.08033461287339969
0.1469298978834815
-0.06843065125772636
0.1898900571170462
-0.03467062773324968
0.08055188222288306
-0.19198325280127115
0.049028076588263324
0.19295487795020033
0.040942618954114614
0.1363223560352536
0.09528707963231021
0.25064415290545294
-0.117091648308504
-0.06941260135201457
1.0710851805527324
-0.07730963792730151
0.10438038650667729
-0.17659254233520838
0.1030977864702146
0.08948552844091301
0.1596019867754183
0.10147823747406205
0.4678853289915875
0.10228467741174577
0.270778070943493
0.6205134901216016
0.16211977053272128
0.29299679151373764
0.5761503942036672
0.5552241473644514
0.22872650686572935
0.19675556077550369
0.20407618423124058
-0.06375746147288518
0.15088777642819717
0.09325404747108103
0.06077721918165985
0.020898708927773582
0.27576340574191577
-0.023441844533902495
-0.10087380968106215
-0.05082658706010923
-0.11091820585350641
-0.06403233408393802
-0.061845402765519766
0.11862280906896527
-0.07499681561883878
-0.08364563491722818
0.08633094613648633
-0.0022203488926510473
0.10137885018785257
0.20690461184064507
0.2515846168741295
-0.1353246930058268
0.1847060753311558
0.22554056966031688
0.05405315402006493
-0.045366502041115545
0.11308296863842338
0.17500253149690584
0.08434354598700028
0.17896571458505547
0.002403149649675515
0.20888630470355724
-0.1281527584714346
0.19415595935938096
0.04526885166816412
0.04497495338990345
-0.04096975331729577
0.15745304370355914
0.009114148076353322
0.043040064356969915
0.24864369790303043
0.08821240726694521
0.27437003777259117
0.13667027002336213
-0.07109170624422304
0.1682540753270939
0.012021230978700247
0.047040516516380027
-0.03388837477344109
0.07736139017510597
-0.032348842489749494
0.27382452154562376
0.03876649025334072
-0.04837720152001665
-0.049600349480848425
0.13407126835741784
0.24466017176228982
0.2415796765066884
-0.08047101300611673
0.07447294917157676
0.10357714375672544
0.10158707016698451
0.029303059116671453
0.32653903600253814
0.014840887533473762
-0.022804712633107058
0.0668105129105247
0.03816587394126794
0.08617082099213028
0.07899958867208379
-0.025974660921058115
0.044182094489620585
-0.05418894421418626
0.0034289753096559683
-0.04292859429832797
-0.021585394368993295
0.006643241221237058
0.025425280683959377
0.14649287497648772
-0.15360979983479006
-0.11610776411377836
-0.13020296320216196
0.14671404279733463
0.007954419641879817
0.03486998451446568
0.17073978195705145
0.058695040461799866
0.01939051005279053
0.25245313527638336
-0.09650286131810978
0.020621023240903077
-0.00975045083060945
0.020105318779999774
0.2041019632736064
-0.016570689227749
-0.09391666807642363
-0.0010618591245732945
0.08946503034985806
0.001252350592199268
0.11761388797150149
-0.179195024906598
-0.06805566926540811
0.0028060562304701754
0.11254415302861503
0.09118211245619759
0.015318017021124487
0.06405335021451039
-0.012120008306823846
0.008271597408044971
0.11075237765817479
-0.1256450148686492
0.13409636389429735
-0.008067756303405647
0.09828902960207084
0.07683107319402398
0.2136464426125554
0.04094839059772369
0.02053088868479865
-0.06602382588783735
-0.009685849320141778
0.24797590433390143
0.22502188959399663
0.07689427365055304
0.03597560199389227
0.06217616085529373
-0.20012793383249963
-0.09809152451380257
-0.16887218110277552
0.10323828236188853
0.024001154656807668
-0.05273265778476954
-0.13380391292269656
0.04160453803188212
-0.0945784630451807
-0.09307198631433794
-0.055404654451694665
-0.13390196658519712
-0.007489679552033169
-0.1229732107535955
-0.2809788816311849
0.07011923825135113
0.009602669961741583
-0.07742863005594604
-0.04178450068986674
0.06313474168818486
0.05077260843427577
-0.09931262581136363
-0.01669833228590951
-0.015864139086970885
-0.013829282789159321
-0.17628803057847378
-0.12236164742894455
-0.024809718366871424
-0.03654304516285224
0.11280845179264544
-0.001274938521275605
0.22563544664507143
-0.12731442844158802
0.18727242130298744
0.2810069640640543
0.07879977278174245
0.06260013080572217
0.09880261145134453
0.013423147512224752
0.033656333132671745
-0.05712368476063561
-0.035680789539117755
0.059379078247912276
-0.16518821287212596
0.04824262062112404
-0.1458241074804893
0.04183053613691906
-0.2110120055156409
-0.051475164905632954
-0.04997056991720279
0.06436387728754037
0.09043435869238856
-0.056929092091751246
-0.2068337038226013
-0.035740705523131855
-0.22831196810719256
0.16357384630591867
0.004569478410238359
-0.059543625393550084
-0.10288346760908709
-0.16563271001761534
0.06972315777411793
-0.07013086693816875
0.09441176484752205
0.013824170721738468
0.01071020287824279
-0.12438330110787606
0.012963147296439086
-0.17131113061276412
-0.11052823158298083
-0.15742452765547452
-0.042218792511223346
-0.12344933236616534
0.12939916651813677
-0.37610328310794744
-0.021270148289389362
0.003294704221125974
0.07140604929264155
-0.022807582611729698
-0.05407900032513187
-0.2839642147786495
0.14674271037282166
0.12595806210164595
0.09026238696839262
-0.24076493383809922
-0.2657693197593103
0.18839592028435692
-0.07973995736087142
-0.04869519316420484
-0.08200351786624538
-0.0919124889213177
-0.049124012426520605
-0.0866588740946579
0.2076101468891955
-0.09641071438103918
-0.013647281589080754
-0.1430188548671804
-0.23466953173393984
-0.1365159758108829
0.10255090410392509
-0.08287750072160535
-0.21076648378087792
-0.05553527497469567
-0.04670959856836049
-0.18948493913831843
0.029430127803851402
-0.2630772075071999
-0.25748292788196364
0.13565995509873743
0.036581661590103134
-0.23165921548479756
0.038102418147617806
-0.13122154199869715
-0.29285711594088937
-0.11929130418320412
-0.2712270253731012
-0.08159921651882565
0.18811432107669873
-0.09193329452306279
-0.09248487471834949
0.17103678078933834
0.06616379387961138
0.029087773928092683
-0.4452882652494814
-0.09665986629713974
0.10186985085751432
-0.21462638439620932
0.2289878598848249
0.19137434630137512
-0.1911205600161362
0.02782922116665045
-0.2765301024637215
0.08057081995027875
-0.02212639675079097
-0.04147341779679501
-0.026093271421640266
-0.076013507758122
-0.21042474477255563
-0.175906467832266
1.1105184127620131
-0.3618116211056496
-0.2504622482103452
-0.25503360773312855
0.0387060092446572
-0.05883048612383282
-0.07352713852637768
0.05113269062397876
0.09010419704396852
0.1997612131986459
0.3218343730139076
0.3444481052491609
0.43081048199403427
0.5190082838343705
0.16060151527927344
0.19313865161883864
0.15672527822786028
-0.07528018363943541
-0.057757052544863366
-0.08460099736379646
-0.1323296914866734
-0.09990781109211547
0.2640259159323201
-0.02963523346873216
-0.2535960118284964
0.09105119401997921
0.08743478756210243
-0.026383126521176005
-0.19343241569374597
-0.06475897973625198
-0.35961373490969456
-0.13190710942818276
-0.16987807088096332
-0.2013739234166374
-0.027311625674807057
-0.026403331240789668
-0.07732811739990804
-0.11910034120677893
0.11582890317722633
-0.3015891395354985
-0.20647513481302215
-0.1100186416827938
-0.026544371300065497
-0.2927222840815849
-0.21251979061652637
-0.13563613185424067
-0.1759551760117996
0.1279535960439105
-0.059544932090971225
0.09141101509640485
-0.034164683462467954
-0.12746401334382906
-0.41571932387936883
-0.0804706951484713
-0.013967609385756682
-0.009167589672385637
-0.05537969795392584
-0.09154849147938793
-0.10611268545360647
0.2401556520938803
-0.005188885982461297
-0.016776142473237166
-0.1339331164047222
-0.23305444929794825
-0.021621373028558377
-0.02666047595894927
-0.1893132184673401
-0.09827815323815253
-0.17932229049617507
-0.06494860830206212
-0.17065419625777165
-0.07677162857815413
0.027457657756169485
-0.0011642380001197217
-0.022605433660714477
-0.07769936595130679
0.0027145233185061207
-0.09075356481641497
0.03871110169201608
-0.2494766343738563
0.10894323072055086
0.12406982393668191
-0.22689830516190418
0.007489550453829583
-0.12049501827170792
-0.08920474252849074
-0.004635464804542522
-0.1537313379395155
-0.01047811618051514
-0.014642650515165098
-0.19041842789437702
-0.2554250770017964
-0.22440157907630362
-0.21095986413449713
-0.0711164062686453
-0.16887451602185916
-0.01151822960947635
0.051506531169139225
-0.2243239804293301
0.1621677307330408
-0.13051603658082891
-0.12562390876468865
0.0798255934390216
0.023960788315971246
-0.0682433229538676
-0.13639315705997265
0.20559361831775597
-0.12995191642163084
-0.20881236305063505
-0.1154878004688627
-0.15336405610816709
-0.04678443828749741
-0.040287585154145024
-0.047333411574377225
-0.1627827304716141
-0.23297721782195513
0.1447115083142626
-0.13326595293516302
-0.3507146337017893
-0.0227269501722763
-0.13948723897064597
0.0021012617803687766
-0.19685435608404028
-0.05015237864166955
-0.17696605979848656
-0.06086866029242373
0.05770128962830148
-0.0872772235385044
-0.315829218045215
-0.096982732711218
0.018316542297542385
-0.24216453889805067
-0.033829216355025934
-0.07949229723455506
-0.15560014195627575
0.14917490118292853
-0.20548282242850524
-0.3354321239623279
-0.09204762060689625
-0.1325106686113514
-0.05392019690365754
-0.03930656643460839
-0.07908998498639072
-0.1401445568821636
-0.12986224290292256
-0.03028967297312568
-0.17007551433884988
-0.21110934018604927
-0.0013603178136967486
-0.09861425983422228
-0.10740705168358348
-0.09322405099584201
-0.0867101958100813
-0.06652827042644163
-0.3700136431152416
-0.24462058898682149
-0.17763446058460125
-0.21049613238159917
-0.1355803392401721
0.000503304565124707
-0.1300928418563474
-0.07642284702901649
-0.11868563338252426
0.10951162286719295
0.022244445697819498
-0.33285982773868716
-0.11056279084955131
-0.32119236712596383
-0.07879201556437425
-0.24354090345568113
0.13887835795804324
-0.03949544604457748
0.02193584714467761
-0.3912494591813072
-0.0298914091473005
-0.16430349504295788
-0.06995219894272263
0.10083524842586254
-0.26772504329485014
-0.028836568958671274
-0.20055135163085502
-0.13664627139169866
-0.30025609716015067
0.1092825380666674
0.14852755258819467
-0.051904480092896305
-0.18770429203705485
-0.20489298608305848
-0.11071868649931693
-0.22030824024246753
0.05905920259234909
-0.10375687637245651
-0.07407074387701636
-0.19069827839730502
-0.08092764623328619
-0.23169626366378676
0.009831382503304328
-0.20763849044565635
-0.2846161447372705
0.01042938469741285
-0.015482161680292109
-0.1657403276966696
-0.04418122203847623
0.031889728890197575
-0.08206424607113823
-0.24638754979627636
-0.15108710411040777
-0.0883416309694568
-0.06439358386178445
0.04964557962486449
-0.007234848325992735
-0.20201483818792415
0.04002794066138185
-0.00021313937149955442
-0.04664994607792995
-0.1370245424899338
-0.0900808364353044
0.008504877108032508
-0.1179900161716432
0.16907248554342866
0.011183398866149899
-0.32347041135193727
-0.052130704333083144
0.0540661314620354
-0.15760333815444927
0.05557219610398445
-0.0999719198291048
0.007860063786423704
0.021098935199248298
-0.14692969351746796
-0.09000770831438872
0.22706656709750594
-0.1398167642476038
-0.2402515910161666
-0.008250016416330538
-0.23693103085724623
-0.13546758932410993
-0.1399748030241994
-0.07103414773987426
-0.059712081388998375
-0.159649750194648
0.0856959073118396
0.11236706960953557
-0.09324053463654441
-0.009066380311506653
-0.1845396175450712
-0.10097135938230144
-0.13869013731622995
-0.12061440849899724
0.005185263545328431
-0.13696786543264305
-0.07421172243244967
0.19810218938845447
-0.17267076095499884
-0.3912084322912629
0.08643683576641374
0.11903480155031941
-0.033140145214181856
0.17713369574469376
0.036038646261389126
0.05134854345383236
-0.1515310363298527
-0.2047702149474881
-0.055566186081450655
-0.17384668018079702
-0.0332058826579312
-0.015284651150441711
-0.013328760981707148
0.030179396489525084
-0.04841129806447335
-0.3330765901059794
-0.14903127821881917
0.08086018980271602
-0.21667859915833387
-0.07143872382848479
0.020335752674463317
0.06531741053584628
-0.08806067442598306
-0.08681022242142884
-0.1124943190823354
-0.11106606775566405
-0.01601704973799844
-0.018112568257285973
-0.2913527333048575
-0.12781460795807106
-0.11280820949595467
-0.13008980142242393
0.10273131459465001
0.07469756617278264
-0.11020095436390036
-0.2059942502829096
0.029918145262377405
0.06827580489273033
-0.04811783313259821
-0.06642565708412258
0.13854937668054973
0.01992161483849024
-0.19004261895569186
-0.16307203829818867
-0.06548044670166972
0.1710696563796382
-0.06587245557031425
-0.2961197753301864
-0.2723883200355691
1.000462861807653
-0.2801307127399216
-0.0864572193401558
0.06606807590213463
0.07484259913229616
-0.03634758174459392
0.06430753337444327
-0.016513397034577312
0.09479756156131848
0.03268062396462813
0.2719315086967771
0.08492347481612922
0.2757575750504111
0.03659040484591544
0.2780119038841371
0.1506238559999153
0.22837190022246814
0.010178246918540773
-0.06733981764705488
0.015489676716760933
-0.1789288881799334
0.09127652222574727
-0.17954644793113722
-0.18221690298938453
-0.28516442221398597
0.022412313122922488
-0.014632274805589571
-0.05155521761894125
-0.28268350310684065
0.08695395085606575
-0.062159222434080404
0.005619442253358337
-0.04398254421958486
-0.10013836112218674
-0.13558919229727578
-0.00552786147923064
0.061645541090506684
-0.2588288941703239
-0.08179609894817173
-0.01793054452520708
-0.17149508809539776
-0.23483821076968614
0.2299367409340226
-0.19354895419933488
-0.0032721957199032883
0.025409682716369685
0.09656567558944493
0.08569700342750466
0.17678164223578935
-0.0710450902430452
-0.11094738186441354
0.13419607035716308
0.040111466302803905
-0.005811828114218119
-0.00456753739171914
0.02216817628008814
0.26404494452662897
0.0336898630624397
-0.03163933885055791
-0.07114792357370346
0.17338542623503383
-0.24139288812023682
0.0674834455135926
0.15939920742430314
-0.2344309659606171
-0.11750009695413723
-0.04058261855280619
0.2545535015859509
-0.05959873569863715
0.01046217077763108
0.01039195872931863
0.017521172609460425
0.2385371336494981
-0.04143661964522933
0.06343976094269439
0.07973513890720844
0.19927664337836629
-0.14952263201239793
-0.03661828866262231
-0.02450395059028064
0.09434329042776878
0.04829624637532798
-0.19543869508760717
0.03744454826747293
0.005051285749504121
0.005615799169944359
-0.02471338780897447
-0.1252357957041572
-0.1059968413209799
-0.03654055137724003
-0.07972651780899756
0.02513638202605732
0.08668088486244495
0.03966174026994532
0.004969173382265131
-0.1271240959923073
0.05948430559069365
0.0670814262915225
-0.17488336378500283
0.24891879124166
-0.14655230454701057
-0.13045935078605647
0.1009748256349157
0.07224681623102108
-0.01621280765197504
-0.320167997799533
0.18222502903813215
-0.11509942430305953
-0.015573295955633847
0.05082967640418311
-0.08800112082196507
-0.19909825884686044
-0.0557762387110743
0.21156402898566432
-0.20109377144058246
0.1092209884344556
0.13264729897983457
-0.06216745460535135
-0.04428390033942607
0.10340405475402849
0.12433185948789559
0.2979554962628418
-0.042658839088819345
0.10917169216173161
-0.12650955256923524
0.042102642224552164
0.1560784822015942
-0.007720505169384075
-0.18528082625575146
0.29605709972429306
-0.11726250224361957
0.11047036540982144
-0.09078327556928581
0.12516926335193576
-0.10916658904190824
0.14797782885737593
0.12372671521313731
0.03051327443935279
0.1609901562487489
-0.022582561108353473
-0.013971336774867026
0.14095833222206366
-0.0318916074332523
0.2644223882728951
0.010184307957461988
-0.051208546730585856
-0.07669255681114032
-0.12400554193791091
0.0024700127422119453
0.18428231208169268
0.11061616120220935
-0.11485824310130027
0.11490748025191269
-0.11266009889724479
0.16456274254034042
0.012383160760768203
0.13196737142016748
-0.0300392241582728
-0.019443445380578378
-0.07224941747878083
0.17410120560763698
0.0650280352717697
-0.2259481897428303
0.16757843718408735
-0.15487610196892462
-0.15187784959501677
0.0034075343849057638
-0.03302141971741005
0.04526545768165463
0.15722280876692862
0.04737485628385196
0.10416422781464824
0.05344600061289966
0.06668613689744883
0.057311922668739995
-0.03662923911294886
-0.14620308912557176
-0.09673429773973237
0.09429977376098805
-0.14105606651664196
0.20694103184367516
-0.050626081985130966
-0.10049972786674885
0.10788220470642176
0.21885116823893083
-0.06286622065220096
0.004898453454429949
0.07259049552346093
0.07995398802753541
0.03746702772617337
-0.0017798035481466495
0.06249777654111762
0.09469725701681231
-0.06664588258225497
0.11112060719961558
0.04469886739692086
0.027574292978789355
-0.05047169455863723
0.13124627981607068
0.1902678235855279
0.16992490176833536
-0.026888167627568252
0.09931554732413864
-0.09700809746851334
0.16134419895544902
0.08100121647065685
-0.09873845156624128
-0.09564313553315242
0.24598344424618993
-0.053073330108084835
0.08657735488155482
-0.0495030074823819
0.22677752659770328
0.24318721701464707
0.0024699127274839944
0.08808463863710732
0.25558819922463527
-0.13463549247520076
0.013367181781850104
-0.024318574006285024
0.19161442111068977
0.12404552409395789
0.2547995123906339
0.3256360677474318
0.08137685795409201
-0.04931237581761071
0.15937391172308382
0.012826140879285727
0.0020364950931150566
-0.028175210569928902
-0.10477300852444715
-0.08349155301234926
0.11961525303432044
0.06349797661964994
0.24764786091932633
-0.04807906423147791
0.20565777233657634
-0.13695777209100785
0.2345079322464865
0.09409463148909519
0.06697249994522587
0.3000286387596282
0.3848067224466893
0.1300393605398352
-0.016834361830123587
-0.07509448649971258
0.06900317128173311
0.14400755211536
-0.030806677592433343
-0.010905837089324105
0.08162790200264473
-0.017173162143248683
0.07433925869402563
-0.008118259945188944
0.17856389864693997
0.10030593424511312
0.004765740690340664
-0.043115485042640456
0.1819736678299527
0.31120570319749274
-0.04308377616255128
0.2149142274902765
0.06075847600915327
0.16524227088601806
0.0023741663799347473
0.045047004714734065
0.09580054842074544
0.08782342381861638
-0.04681137136151543
0.07796638482732442
-0.035454987098232055
0.02346936835637184
0.1850471652493859
-0.032494444437299624
0.09985587579563378
0.18618421889140796
0.3308168723176905
0.030380407161096176
0.2109118205367332
0.12853469181235427
-0.034178660430217944
0.08713539526206111
0.09409260832938937
1.1365229585171073
-0.19050990471868268
-0.20849074981885915
0.17303788548908047
0.11814008731437939
0.015484252630897102
0.2860573720305495
0.2033992060229966
0.11794320383594205
-0.03694115938890541
0.32002518148457315
0.3521320271612183
0.3393736093305736
0.440101037437333
0.4144588902831162
0.2024303508538021
0.27457898967418976
-0.04654763491079689
0.08415833003964053
0.18393977107683662
0.17485889559060103
0.08087169461977967
-0.021533204923298077
0.15531600686726982
0.05550444883164055
-0.012696339093702796
0.12646756569545706
-0.05709243854837576
-0.06651746080440936
0.011572031814981967
0.2338685961119188
-0.1631465720185673
-0.10881860854192602
-0.040706860123727415
-0.020131125167208302
-0.002054301471885539
0.06170054680284284
0.09208546843192514
0.28644693388869424
0.265889705910572
0.12112671425987023
0.2156445562572752
-0.06881294464993751
0.04718270203953276
0.08644022914258177
0.2611895751294592
0.009260902266297708
-0.15677926262287536
0.10468675332460718
0.015475802443936967
0.05860432443462549
-0.06249732827689866
-0.024119022409229113
0.21609757501521132
0.14798264997448696
-0.03369706832240828
0.18094160550934257
-0.04595799415686752
0.35237203982625087
0.08045059202121267
0.059459972192943876
0.17613620102016786
0.1683798199860377
0.24606804086562103
0.21018537202387633
-0.08948632116283216
0.04595283844080139
-0.0008142951218484545
0.1407331314646097
0.11257071721115473
0.1573051888719171
0.05818155359077549
-0.14404330373798258
0.21478429435933644
0.052531984610340025
0.21974920231879128
0.08437372079302069
0.18770534684989149
0.11544535899768645
0.3077901658414689
0.049421948351394684
0.010173297624689298
0.07663867344902578
0.08462263299187892
0.01216981363595282
0.1381116068288614
-0.20314071711229703
0.09871234647639333
0.1961884177557257
0.15741194943004666
0.12848760892025
0.09559628392038785
0.11865488616290773
0.3884723036888626
0.22198295011900443
0.05367752286690787
0.07899789537257774
0.0814849005264896
0.1212420217652666
0.011919722584902995
0.06473837052719904
0.08043279479968556
0.09592868146807974
0.15416176330982645
-0.027209081870329097
0.12531116103074424
0.16273287870902092
0.11916926467912195
-0.018343195311499638
0.0292507398436503
-0.057677641850601855
0.22145868320021453
0.06481211494551975
0.021786350159695794
0.05301481501432293
-0.0002451148887724769
0.21243641896292437
0.1944150456089685
0.0456850682196864
0.054166563917460414
-0.03321166188670675
-0.04937632883454125
-0.023044612559041833
0.08303796912996751
-0.05053157663878584
-0.03574508750350461
0.04278796156052203
0.015875733097167014
0.18938613472440363
0.2698052575186861
0.2485516016927952
-0.045947283483834644
0.2579348629655311
0.0899097270949313
0.0681821725108669
0.21785591869168813
0.14857937893678846
0.028595584499775353
0.0327306493614201
0.0626125691758187
0.026062014962889207
0.2515176693581797
-0.0206764440757648
0.16312842143663892
-0.11034281079269424
0.08749036398470357
0.046134260072287124
0.11025912934574746
0.12020068040864845
-0.05681073929444043
0.172887798656563
0.28724969956638735
0.0413610019054206
0.24486793941108498
0.11985839326567264
-0.18601129866776003
0.09917558881131966
0.11389087722720827
0.10848684285013502
0.21476892256034721
-0.20927247791772283
-0.06101220863587889
-0.13937961727333695
0.12374238471591728
0.2058236199053568
0.1966923615094846
0.11371306804992781
0.18288667744078319
0.18201648446249213
0.13785643353175137
0.27575703762080256
0.15803769681656427
0.14344198969810001
0.2889457770475288
0.048307055163976126
0.030881732763153286
0.21123436591692785
-0.07347431060365682
0.14528896366625013
0.14422663743775482
0.08057876385328362
-0.07505894619522277
0.08779656584003602
0.22987273516763645
0.07898166646044143
-0.05370830577438619
0.0034134169298139436
-0.26957781121290286
0.1656656147226352
0.2881214733781009
0.10094742052660267
0.12014600209686715
-0.04622052524986387
0.11100067693119842
0.1495170224513912
-0.016688316648524562
-0.14461086250991304
0.19684236233364588
-0.0774583657316476
0.012113749448041548
0.0389868408847385
0.049220445512517697
0.19341873251585706
0.350206402427674
-0.02094223641798914
0.11704853452507398
-0.11480183395301877
0.06364702550086143
-0.008690745852081412
0.08451253329195435
-0.07255094566225054
0.1828986120241905
-0.2016122140987033
-0.10578453850767108
-0.08667918682330694
0.15098027083889082
0.07088765010362981
0.10800428909120022
0.15140693773076208
0.11184829595599763
-0.16836281384227234
0.06933249245647503
-0.017631302800541676
0.13491343721400229
-0.05582264193346858
0.17724723214725557
0.1442685700454457
0.10933222981386867
-0.05041130575342322
0.045223014217460535
-0.11292085722816322
-0.007780655184160358
0.008910604686931431
0.16458740471954825
0.06825420358961543
0.017120345910863165
1.0705810398649218
0.11325121992627975
-0.12805129488409545
0.0013658149414275556
0.07987420429600055
0.0607270255892635
0.040553686015612926
0.23483257552293824
0.1570314238122609
0.08014571110126548
0.13055127382082843
0.05283654526141346
0.43722664373552184
0.06578280119497054
0.20517324481494748
0.23574842467587545
0.5032505545346102
0.010780725939729396
-0.07140056781228
0.15602648674384448
0.22179914335134773
0.301449517045953
-0.10209790345391058
0.010433863921458467
-0.28815272788671925
0.1610175476790886
0.12212696829342634
-0.049661825359991
-0.08141650999300397
0.06698117930273365
0.05053091757963862
-0.20418101717588644
-0.06167097320080194
-0.013130736507473175
0.09847668190700855
-0.1338779727407357
-0.3019220334913979
0.14978219860970823
-0.017658924418082818
-0.012768081973215491
-0.0712739438548787
-0.20324824124585955
-0.11871057604868268
0.15349100279393152
-0.054135317462097814
-0.10875106770431207
-0.04322646051007428
-0.1515472929802037
-0.07885581488125436
-0.13699539627376237
0.03296508718282912
0.10336309940628001
-0.10225866032373655
-0.1475881365746447
0.16059651261125663
0.04072513639464539
-0.005736668301440038
-0.08892465570212035
-0.018926273157991037
0.010713103246326527
-0.010569988487111652
-0.16340776474875576
0.14765883792034967
0.08319547592244085
0.07249776881694256
0.09476677505072141
-0.0024617436572184764
-0.14662758362504152
-0.09351478154705921
-0.016288912516620995
0.04285986232517703
-0.010404778629156466
0.16500244815260137
-0.003984195011463484
0.2284547746896554
0.1451098830987605
-0.11906565844238771
-0.12729389538266134
0.026328584084745848
0.27625771093419055
-0.02833327847953272
-0.00029604240129204804
0.09332692833761809
-0.018920872097048985
-0.10345706524344635
0.10306104501152254
0.020603047678954406
0.10340720793319008
-0.10267612854260015
-0.04894865960449843
-0.1155783523034604
-0.0721369687434289
-0.0014849647814986107
-0.3298197116907962
0.08837740254222355
0.06030654604788757
0.12289666537716465
0.060490506528336895
-0.09189826699820657
-0.13522856206845035
-0.08157559059105604
-0.028473339951761344
-0.08304150178161245
0.015216995354933066
0.1985535927862072
-0.22094703505632327
-0.16562834150079558
0.14544997842152538
0.2508282141939607
0.022586263506447046
-0.21211506683526055
-0.055374445131101346
0.032555183230076265
0.086757467125504
-0.054553730965072905
-0.019756321808362107
-0.16098506603655663
-0.23413808047889292
0.019526366089113067
-0.030598728547202844
0.004662954401977795
-0.10769041587451755
-0.34005991739381997
-0.011059660492640757
-0.08356847709066031
-0.04117213184981052
0.04457789250300465
-0.11142957330160924
0.03811167949923811
-0.2060197880066986
-0.04697133579165598
-0.04735690584491013
-0.17516808013499638
-0.034505693327273226
-0.3448448347669015
-0.09301447164208859
-0.013281603418880912
-0.04359517003434852
0.04857958785830476
-0.016670399757862938
-0.026247993459955973
-0.024377192558412388
-0.14940399020703604
-0.20481696885034162
-0.01832667297107453
-0.20180693673490813
-0.02205713449656172
-0.01555379530689207
-0.320123578985093
-0.12917035442944064
0.01378193795955604
0.06984062251947316
-0.07728007730625112
-0.10047113266990225
-0.161450354018414
-0.02234105324065238
-0.018586942597589987
-0.2189029554116109
0.006397181019317827
0.10338926496478118
0.02550052358931374
0.03016494921302046
-0.1988934070405108
-0.14529749613607024
-0.16524726011534704
-0.15147101274756486
0.006024542241194274
-0.13079694791875585
-0.0824819521991226
-0.10016606483822499
-0.17722529502183193
-0.08552364428750506
0.04174836457596992
0.001834882122444259
0.021018747864305645
-0.03822496991476118
0.09127546963424628
0.0531282413598753
0.08589371612624108
-0.16955041258981265
-0.18420548911915363
-0.05079099302426534
-0.057315608178717344
0.26608249539375384
-0.015388632069742947
-0.06332853778299422
-0.03680688214646472
0.024318219563165572
-0.020276216393885556
-0.3016139326918584
-0.017770147664393623
0.03386952453767955
-0.2869694955239164
-0.18268699575046887
-0.1466404842720871
-0.07749237201932424
-0.16535465425823903
0.057075363290853415
0.08923853564069856
-0.020727473308663286
-0.20112877364291332
-0.1701924909686658
-0.025315025946392754
-0.04357249491355457
0.020867391105897096
-0.4345910773690246
-0.07464825367190844
0.0889124042880007
0.06518424613048932
-0.19013353772649355
0.0014796919545962545
-0.057727443029918425
0.021284307386747706
0.18250341654896463
-0.05204997373242379
0.058399201949916255
-0.13774926099241347
0.08249599736364112
-0.06771287172101784
0.0935428163979383
0.04785579686737265
-0.10909755416095315
-0.1829062121301382
-0.02485838876357372
-0.2505023006614291
-0.0052625612800861615
-0.021008781509987834
-0.11320313383727351
-0.046079451022007833
-0.021648464536211817
-0.18437832957660083
-0.09628679252825698
-0.11215513470298574
-0.3261645558425204
-0.1743718464240674
-0.025653753581088345
0.03413357311893811
-0.11726182368703159
-0.4135710718547151
-0.06619410456515937
0.8916509894551904
-0.12830388703147988
-0.2045539289786287
0.15496735437631248
-0.1190909648135583
-0.020949539996030705
-0.10976539402875403
0.021500719082901718
0.2650519176137138
0.018422625227875078
0.15808223958954742
0.1567118286347357
0.23521956732762037
0.014362086531332363
0.26702389494478307
0.25049492760457215
0.044775152096916945
-0.1178955670545135
0.06683857126563657
-0.04063420700432134
-0.18147715646790535
-0.06979511459036583
-0.20432027646684858
0.07198005432817715
-0.07573526696298594
0.04628331130352893
-0.15521647018168788
-0.016410418446712552
-0.08815057401438287
0.02325360057356149
-0.03859068996947879
-0.16231415604746902
-0.2866643056352166
-0.1613454021103421
-0.2116405034197968
-0.22216740508220756
-0.06245315226365562
0.10904803170679467
-0.23403752537429365
0.0406592124334494
0.13556134208648224
-0.162615910495388
-0.23271796528568764
-0.23678537420884338
-0.29899873514725095
-0.36560911683822095
0.06537391341159182
-0.15392174260782399
-0.21085038107718446
-0.12848969361474993
-0.2626439223173327
0.07066709706493379
0.1115996292494518
0.014849170166170766
-0.28042482524959095
-0.04894342653959992
-0.11781378520144446
-0.21877671703586887
-0.015385275673534496
-0.06588368541936442
-0.07207754937804985
-0.004960143982839282
-0.21572459397184635
-0.015162127219672
-0.12586074275232426
0.07543797913005897
-0.14896263939652885
-0.025572412351712537
-0.08321576369287398
-0.3031254440911201
-0.03967923900654114
-0.25168564017424766
-0.25205812330572974
-0.16841466692191098
0.1497557359902799
-0.19361625140744365
-0.17712335158115788
0.20082337050783064
-0.04868121115838228
-0.0852407475695785
-0.1185291864827861
-0.043639968553134435
-0.0957251984779457
-0.3103925747418944
-0.3122164712054757
-0.1366198599625124
-0.09892245271114054
-0.21953767131855695
-0.17648180792888224
-0.19854108053419656
-0.019985359876339037
0.0025598721997033558
-0.08804530280559877
0.022806336486852083
-0.2587517436115584
-0.04939276138150474
-0.23976398878389227
-0.08955167279412087
0.02392638129920477
0.031391480196314644
0.04623593167283174
-0.08201718595747347
-0.01037681971933585
-0.04744975112575984
-0.08862665334548175
-0.11159876918361718
-0.07955231031580243
-0.22603181915007647
-0.008656191509584452
-0.33785531732769475
-0.14406733149301496
0.1004104256498703
-0.10644547348157847
-0.11236609361015214
-0.12328447392384603
0.10106265081985799
-0.04791364116697789
0.011013125793996367
-0.02761670768073206
-0.09854949524286855
-0.11381498828503148
-0.33985650952212876
-0.06450871255141023
-0.20437374331253977
-0.08947615649339989
0.042538045143037134
-0.05466831169030199
-0.11252343181157341
0.021604142022300363
-0.26905097469038075
0.09895502445953559
-0.04887534136995482
-0.05330287218090316
-0.3423399949690292
-0.040735595891504696
-0.14444565044819446
-0.0427299945867577
0.012225522694142066
-0.0029411379268865084
-0.014954674837872856
-0.1427326186421473
-0.1441740884575413
-0.13508477931070356
-0.07791893278302829
0.05993202071424743
-0.14816053997237483
-0.1497554573363866
0.0010325190338027618
-0.44205731363674555
-0.1024804364516603
0.020932710429426876
0.0024543696973678975
0.005602961809576534
-0.13706005585261744
-0.21958024587304487
-0.15894665308737357
-0.06689437051738802
-0.23332231657672903
0.18128841987734381
-0.13255385949870468
0.013776503419180616
-0.06112718092739415
-0.4377865864400837
0.10956269039279973
-0.0030386798533852677
-0.15672838386707438
-0.31418164774893026
-0.14601040846899715
-0.19874738310399026
0.19367645502561304
-0.09286489500271841
-0.025609086089542862
-0.010470829814480692
0.15944605547182925
0.004501609868177103
-0.22330107985576864
-0.1205415953486246
0.06946450558080518
0.23312877271758237
0.09890249607169498
0.11022263561827798
-0.31646625112371374
-0.027692695546485922
-0.12813250030646475
0.0823037558821898
0.03166255141807656
-0.24243450829015004
-0.062367506388499847
-0.3050642699797444
0.06943512635302437
-0.11106248709623978
-0.07730514168063879
-0.12549736673295453
-0.09347607736786609
-0.11030578487168513
-0.11787070814925084
-0.1450070340353207
0.09906828797897495
-0.01769873546802054
0.044165449637431825
-0.12333751892999337
-0.14366753460508253
-0.1927200991149174
0.16314725306719868
0.019992380864447795
0.11869789991802013
-0.060180099162013355
0.015040659183957208
-0.006188401178675695
-0.09622913097014996
-0.11300869310195599
0.14014759723134124
0.06797999756855885
-0.2455822593200011
-0.08321340671377266
-0.08213546252801131
0.01807606447389369
0.0833379817363232
-0.2644944723138797
-0.003749513279608943
-0.1299915873580061
-0.1812992584138745
0.025126142222317877
0.032086974842185714
-0.0658260562352497
0.14016590473695822
0.14446131376381055
-0.22862462397500347
0.20339332206025715
0.032449286775122384
-0.05476643052763275
-0.028279526777139335
0.01392381314939848
-0.16770632795355744
0.21706002742246638
0.00806286262844106
0.22697318184459014
-0.143352331601674
-0.034992481359189365
-0.06614564250151951
-0.03135647529305563
0.08978160209821529
-0.007474018325233221
-0.06941461714222551
-0.13038438954107975
0.09145286347566593
-0.07581911027024218
-0.06073410902602101
-0.17070959621693543
0.023819678513950338
-0.05628252086849561
0.8852863334799893
-0.17286385651043468
-0.11954388039868258
0.16419110385362645
-0.2270494011046565
-0.008976216658622149
0.04067021830398082
-0.08827281053639119
0.07154132821120417
0.09803065234233489
0.32568858418073005
0.1966623471656036
0.281470275300984
0.28147959152960983
0.15099420659541324
0.2846466177540957
0.21323957636554175
0.039134432333781534
0.05426618034220092
-0.000998877395967085
-0.11772920026859171
-0.14357276836404428
0.005751371803260685
-0.07418905002588629
0.040167902587379095
-0.14089957541301984
-0.06574445423309719
-0.08990331767828488
-0.018582550076101975
-0.031303436579849284
-0.13295761970493142
-0.054210184905072706
0.025801892082564823
0.032369641322879776
-0.0348780326418916
0.006369325532536604
0.13338125949301452
-0.09250277313405708
-0.019469506351400826
0.03648556051507534
-0.08690378228681116
-0.17839919241357835
0.0899393881075169
0.03758504168184031
-0.08693818201415501
-0.031203683360029218
-0.103534976073751
-0.0189107526360844
0.04023963000536766
-0.2231989227618386
-0.16614682232412553
0.06911371408577108
-0.06731279252518223
0.049940896254933365
0.255410770165719
-0.12238689898544372
0.11364740197921935
0.05332964771431002
-0.09395257330070036
-0.006259632578775514
-0.056979128460768566
0.13616057081086552
0.07075808439664902
-0.1686442318869632
-0.058977591114274086
-0.05368647147941555
0.41223673958765883
0.07881682560703882
-0.10053265335263414
0.2640996087429674
-0.08056256382493131
-0.10899839065912477
0.05754580373897518
-0.05164134339678474
0.062323614008574446
-0.03793269574971999
-0.12360132948677144
-0.10653574385529624
-0.1272069539064417
0.056710647316563126
0.05283660454915326
-0.06918809858959221
-0.009140959192061673
0.019956958482723997
-0.12453455676900767
-0.006300361656065873
0.03965986640004093
-0.17103029581021498
-0.0053851038875657176
0.0031478330066100815
-0.22380644283851908
0.1158531703078921
-0.09901013110031168
0.1441511188854741
0.003867384057708926
0.1472522055817725
-0.17646259434041484
-0.061893141205867364
-0.08693849683659097
0.022689892957218724
-0.008292087849530262
-0.10652203481287358
-0.10452488076371497
-0.06604559305434798
-0.05933943609154904
0.06389083812857316
0.0359931863613864
0.18200086953338157
-0.25030515329623365
-0.1417796935772147
-0.010251124899490434
0.14363128473562667
-0.20807488326390136
-0.016804095158113208
0.07239911634692625
-0.17307590029847714
-0.01754743902209465
0.18154408440070027
0.10635371658405121
-0.003378121311608452
0.020067227690855824
-0.008485274723088146
0.11662721486117489
0.018388447388786918
-0.087173540819525
-0.13829465563168708
-0.11940466755901427
0.13800148580856297
0.13026893140265586
-0.07277773720146297
0.053786332471895695
0.11264107588885888
-0.056729826525921484
0.01629284116488263
0.10670162938290109
0.04718514671765297
0.15616634985293745
0.10442980379488168
-0.0010427059704406702
-0.06714260943749116
0.030146305056765126
-0.23621898683681228
-0.07548285573861183
0.1883144918976806
-0.1573101661033563
0.037870210029290606
-0.024776406783380438
0.08848213087020282
-0.12307198992822088
-0.03858299967546018
0.1487673372935844
0.23674799460222368
-0.03998617612019195
0.12452516428279767
0.09207195983563196
0.10114375912093092
0.04088395602386667
-0.1377672457859911
-0.007188029327765043
0.018658285301070165
0.004632329017797865
0.07644856368183696
0.011390047069101017
-0.06278360584504906
0.12771592204421625
0.14607021907861106
-0.00022328136922403208
0.22537869673137753
-0.22411062295832618
0.10688975237244366
-0.016581233759377242
0.18096130012651793
0.1829389798932548
-0.10064534756975732
-0.05063576568634365
0.13113681789811182
-0.10484216206557972
0.04784865871316977
0.029750348032764724
0.18570295309256354
0.021103384548890006
0.09296269453547057
0.12811364556934907
0.16284553231513416
-0.016334230546796488
-0.051078302316808474
0.2662885343979733
0.1451421431131653
-0.11539511856975286
-0.05842593772241325
0.1386800133184557
0.022770955407630113
0.17374563570830295
0.13263891800179417
0.17547917914993638
0.24089258461098717
0.001307262385477001
0.04388382048869541
0.14475639230111081
0.13533519560988733
0.043520867558192976
0.13734735280705315
-0.025990435194263375
0.03743114957804771
0.3186035418516801
0.20865133791085322
0.2542713027942679
0.04160137350101752
0.14758530762656313
0.02512595274984105
0.15049929315613447
0.1760768069814029
0.12077731747057542
0.11285327107942422
-0.1686454884165255
-0.020693079383964738
0.09543420383954351
0.0996119687948139
-0.06584933759070208
0.15307556005417647
0.04561575690253425
0.19254487255209995
0.23496047540793796
0.058930827067717115
0.20712900524832772
-0.03778824375017582
0.2501889298931297
0.018997656661759316
0.25418465373405436
0.016206062259648074
0.05039717758971982
0.24597030407518802
0.17914160653340394
0.20571964257440833
0.0164019411562331
0.3288342301970373
-0.02685513214759519
0.28327939184596296
0.10171344301970703
0.2492280142761873
0.2541784026103989
-0.11863444628603428
-0.028938474963091015
-0.02221253120654805
0.11918965566020207
0.11972799990846184
0.16540587712963303
0.14450620714511114
0.02074229237628214
0.07159802429445178
-0.17791831067814595
0.0008080359748213334
0.31726301190064043
0.374331283013702
0.1198970009239973
-0.0005789902490318521
0.29844324751415496
0.15420341644321933
0.12727106550473943
0.025604761773852083
0.025975451630187454
0.08210660719007441
0.14504845141025724
0.2187377972166057
1.1036260484141136
0.026663512052392493
0.15503366061039603
0.1391637550629498
0.27371144415130516
0.08702456671216373
0.029891210534082308
0.22000925924476294
0.3803603208958955
0.056441833350578396
0.22200023638433966
0.4188406311431097
0.3250470324453284
0.40462227804365836
0.3435932985286327
0.32909244938580107
0.39012035730615213
0.18925930582384215
0.22669696963860356
0.17875289564808736
0.11536885596100907
-0.026400326305960523
0.07811614193390547
0.32638500649182084
0.33099458067167564
-0.19884208415539906
0.04628174373034696
0.19224512429024287
-0.09766899781023389
-0.19259447998993445
-0.2166130927962788
-0.02692750110493558
-0.2030366554337784
0.08875759295230265
0.03715464074542708
-0.10625907383356878
0.15470441580439753
0.1730801842369875
0.17029575313613515
-0.008891948577363668
-0.0017024714584020495
0.23488601159080513
0.20376653184964916
0.06518902395729445
0.34374863770029274
0.1903282327832988
0.10534162014680848
0.32747459203985724
-0.013313375270427974
0.041010018076503375
0.07073796787991826
0.08672034673028131
0.20662643004768244
-0.07813102221472112
0.15622266725650913
0.31539211829689306
0.07622980735624638
0.044378998357986345
0.057192946471652496
0.12199611990620707
-0.05808431680072272
0.0851267755071106
0.007481288689553042
0.2558128707872504
0.09789522125991179
0.25953526597225085
0.10598264917909359
0.05980371538580685
0.2215121999159242
0.11237113537720134
0.23563656893733514
0.12565493193068825
0.11333594839920513
0.02928560315265326
-0.05999087426662185
0.18691198675669496
0.21620956491072152
0.19272471923565992
0.2616492214880185
-0.06209668557493492
0.15789607902766778
-0.12170742794168164
0.12024256277046257
-0.0003519512654261564
0.0004965529427827103
0.030775065617583988
0.026763013289013662
0.16191748370677697
0.203800570211838
0.01851587982951726
-0.009947239674592837
0.060740632618296354
0.28945755539242957
0.09550894839228555
-0.13123836200915456
-0.004996258846201473
0.24113016756259134
0.015379912477138533
0.27339785327607946
0.1497995100460762
0.17066026655773198
0.23114519151946963
0.13978294004847508
-0.049732843585152675
0.261611011580587
0.04183870066082428
0.02624169523734962
0.11375609758773238
0.03411757062250225
0.26585042569739575
-0.07435885201100242
-0.015266025479499346
0.029643656817661776
0.020449980531803427
0.1178536758275969
0.16979311563963556
0.12228842980634382
0.1314190209237775
0.3686617383774475
0.11370085770535343
0.16592861769314834
-0.02555378970381912
0.0845824227680387
0.14333410207006153
0.19356049081582888
0.10676701597743912
0.0987777825211403
0.017709640928116277
0.019041029528340636
0.15054802836924044
0.01465398406334531
0.13552282978806554
0.14516707719153946
0.055902119007988776
0.06319311560496396
-0.08302084860547743
0.16116869195016412
0.2127277909795225
-0.014868279591092715
-0.026767316417069684
0.11102290241037441
0.17075853576205752
0.13190254598138468
0.12773620118001522
0.07525535826242435
0.1924954757736273
0.0813452881784099
0.17880585193429516
0.0004996540591048759
-0.08064297515286992
0.10537911645730971
0.0116109702931535
0.145814729564484
0.18394427937130697
0.09259750120885296
0.03830041149260168
0.09386853330434991
-0.024113235768036395
0.025123783728614034
-0.23924083239253263
0.1788921485116443
0.04557106611472169
0.19326440411413304
0.0024126669552592545
0.07605899362723115
-0.017460671014852935
0.02738310280218522
0.17121856247338285
0.1516331620401279
0.10941308440800318
-0.0234897865390246
0.1498137479401162
0.2278688911982769
0.10652109595223672
-0.022622388784635752
-0.10345302459367448
0.10124319130444952
0.03273320642006541
-0.008193337614269186
-0.013931578849485343
0.11984662479558066
-0.02356655684961885
-0.024124246439492014
0.0895766436662868
0.011605221416490681
0.0383225137511964
0.20224403599987367
0.29442106928444434
0.0328246881768676
0.27006039087190553
0.19785496577306455
-0.0032131054921909347
-0.08094578094517693
-0.059858381149418424
0.2406329184056638
0.2760094654015326
0.08922009539941075
0.14654152658983305
-0.10118831313933394
0.1376783802355202
0.0670382832785193
0.1782689041012761
0.09760941208987511
0.13065639635319415
0.18669763936925615
-0.12643645301462014
0.06571909903799182
0.21298764421451283
0.09345955897194341
-0.00851158832168259
0.005356937045863069
0.0010978967137653395
0.11018349739355296
-0.04835867410526023
0.003309827172315802
-0.07566753985435856
0.010843068412087029
-0.302581297580784
0.18678109138190752
0.1233918521277867
0.1476371145949921
0.15981012099540703
0.06862701822667658
0.1486483536982557
0.1762650839534146
-0.13974287738384927
0.12737239330188732
-0.2846055168499486
0.2696538266885329
0.14220329144298238
-0.029352276093795246
0.09149113396895288
-0.019989310800835262
0.10505632571812212
0.03626467485921321
-0.032491492601670356
0.09990809965270617
-0.09858634341319383
0.08219119458008264
0.09141324718606922
0.045908861654110095
0.07148167622800397
0.09678069203032913
0.18676238605772016
0.12633560361250257
0.16495368912057945
0.18462641411416952
0.09524373871994095
0.2953411786336522
0.02491921450299881
0.019213861453775464
0.09484416286420061
-0.15908190560735938
0.18479583436039143
-0.06369073355676128
-0.09329953177522453
-0.06804027318610611
0.21544170760163944
0.24014090936882293
0.27593526769514315
0.08618026884447746
0.013030787019525378
-0.044349493495470335
-0.014405849992807772
0.05755582305239853
-0.11860839278332759
0.1580068241877072
-0.20200675746805175
-0.10565290960703394
-0.1685234226475649
0.2186973537101559
0.1417841643774545
0.08649343077621652
-0.11896925095114598
-0.2803547124966831
1.1286703608526645
-0.005552674364884075
-0.1011701171505091
-0.04018439152426347
-0.16115489227486757
-0.20503588925159913
-0.00908481749955184
-0.03055771003475166
-0.005023964235799261
0.059491263608528744
0.44272826800511655
0.17678110157740295
0.2875847501717771
0.15930827128685007
0.11299165273922779
0.20071894052552589
0.23297548435684617
0.14329265527388244
0.07426246433887854
0.12675940599140434
-0.09935812277168754
-0.020051127012678607
-0.002423306196657985
0.24820638262750683
-0.17442651735620843
0.017210434940293735
-0.20744620567295377
-0.20626795494288827
-0.005390933114341325
0.02208877808457993
-0.14135728492155736
-0.07110048205866575
0.0038797337174213253
-0.11157795058317518
0.004310977997711457
-0.028449153713721347
-0.2878388534463212
-0.03310858086027018
-0.07953951251571409
0.008426236049727472
-0.019152860213908163
-0.07820197160210046
-0.06439328537120913
0.059710238697743834
-0.1916651536085347
-0.08910074916168965
0.0820083082327141
-0.09483790359990002
-0.11563632885189973
-0.025089940069226838
-0.1698612109748763
-0.028566625366561214
-0.01596643713114453
-0.2272361848484756
0.12439901310697195
0.17647528663849588
-0.09051216424419738
-0.18614038228851532
-0.03501870611875974
-0.01566706887432044
-0.00392909775705701
0.009328460021017681
-0.23862817858610827
-0.2955257049949698
-0.03916838335578862
-0.1426861178525909
-0.05730300329245
-0.12795101098715267
0.143957906214972
-0.13075721757040204
-0.03602635035593153
0.1226004166702105
-0.07942639752987134
-0.04057186929351276
-0.18294708588955166
-0.11941630768781729
0.15704013263231703
-0.011899895784116224
-0.06753573337111951
0.14884396453230245
0.040129343052094923
-0.18390037849796892
0.14830032318390712
-0.1555794540414716
-0.05828573040191403
0.0291092716774453
-0.08043171804990928
-0.008402092287679162
-0.1998188523327989
-0.06367589573813114
0.031219281429704947
-0.001175454617519299
0.020007386060410526
-0.2136252227455438
0.12524057945117578
0.1550581839683898
0.006954233300206551
0.09182924210139587
-0.04515658230105593
-0.07850165760167009
0.06266528779497776
-0.05874873364910965
-0.16193304949877932
-0.16032856653054878
-0.19742932856882683
-0.021389754913609633
-0.10635638945399081
0.09537528560046504
-0.06679568751562916
0.03287725086450653
0.1362778875641487
0.08902806841896993
0.053361681435515854
-0.19461286390918542
-0.27430041348096723
0.04120736646620562
-0.08615692679922127
-0.12148024736276156
-0.012793090891948897
0.017952627716235528
-0.11921717032191675
0.07629127119195975
-0.145641764454916
-0.050177362507300316
-0.049916901933693594
0.12212810542842926
-0.08844516240047676
0.025238298150304574
-0.039855069289463224
-0.12900002464008742
-0.19604029946918594
-0.18265381835420558
-0.040994045584714006
-0.1772874976460303
-0.15985979832657773
-0.09533511180562493
0.015954680369412007
0.0449093299092363
-0.23037036527810406
-0.08186068448993306
-0.21830470493984308
-0.09749260632960732
0.06417302352382982
0.01674639945053462
-0.10896830869087526
-0.04636700572250512
0.17023929892458955
0.05638512908826106
-0.10901779515296244
0.1133725356708683
-0.0013657527851100304
-0.12699424690864056
-0.06911339341141115
0.01697560128972668
-0.029002615443301898
-0.12250567052938247
0.020817757033819717
-0.014848766591314247
0.06370434050254725
0.017337789681926258
-0.08243101873364761
0.026856309252014043
-0.32380417696387975
-0.007490203114789554
-0.06007351206245902
-0.052905747132801564
-0.18192260609804356
0.11831406936637426
-0.01856000553331997
0.07487725891184432
-0.10682358648316821
0.11850340638772855
0.007899851803687338
-0.16650250435806543
-0.055218122365386715
-0.1192234953614208
-0.03516406925184472
-0.21105306354610606
0.011951893204167105
-0.019128764047754786
-0.1866919216915146
-0.27153447648746726
0.09222626605488467
-0.1386694090343081
-0.0858306916620246
0.15736861125425416
0.06607757828798771
-0.03635241131129661
-0.1602727944276628
0.013968085839341546
-0.09324039837277619
-0.08111010597692081
-0.05862002335775718
-0.2594933133700647
-0.10755797807299616
-0.1193994224889087
-0.16350264459820646
-0.0268112995994109
-0.15060186111619145
-0.24578509823916694
-0.06359479727335307
-0.17511988448937518
0.037415970952424424
-0.051373250103463726
-0.2381061166177627
-0.32701692332550536
0.002461912862018731
-0.2852714067131298
-0.3445297178967844
0.09197882666159228
-0.12815250114235832
-0.05083538437476228
-0.031406906568680434
-0.25387477413258613
-0.16790994429104897
0.06555972981811237
-0.02792375777003485
-0.0812990333730425
-0.10708372814215697
-0.253734862648403
-0.07605459530995992
0.0537272074766514
-0.07275518656905364
-0.3983643636646038
1.1759517809033468
-0.18727616949588982
-0.0007363809539772392
-0.15871953471001757
0.08717001204735145
0.17282375109717565
-0.19863290204165035
0.3160313544366939
-0.004588759650857761
0.03801348717448924
0.13937463744973838
0.28734508977706763
0.3919590631211783
0.22446228492797998
0.045400691217873726
0.03248998522088485
0.06447005703923026
-0.18480024584585747
-0.2582957040348732
0.018071189731768633
-0.1059236561595179
-0.06473203540803762
-0.061997323985725376
0.018435515856020587
-0.019116841264235865
-0.1773135444191401
-0.1751658881366085
0.005695230570400778
-0.2000155457689226
-0.011843554366165701
-0.35404607997809245
-0.20400795613769096
-0.12412057980711247
-0.0895581544097327
-0.07983972653505529
-0.05065029295993012
-0.19052881067805696
-0.07042638475361396
0.0663638130242703
-0.00883893530481375
-0.13779714852613278
-0.17932073444543595
-0.024606257715287363
-0.4352082960195627
-0.003826496928552206
-0.15343475733575035
-0.20708294799697965
-0.11820378394224533
-0.07951205638430055
-0.14059209466199685
0.20277887032133507
0.03137023187468463
-0.15632498411353754
-0.01574338219951696
0.2486309169277336
0.10586429369714123
-0.2461696399145521
0.06362063297976406
-0.062409127619907176
-0.03417264564712891
-0.3279509262962572
-0.16239457780118993
-0.005355491658813202
-0.03430132369841028
-0.06401497473624213
-0.18761520352589206
-0.05111301178686302
-0.1940176470034684
-0.10768857708046457
-0.11799264671168896
-0.15738471651321229
-0.1717668537589142
-0.07787921758989055
0.03665547605699711
0.01767204928144557
-0.11152563639719236
-0.2710984604919587
-0.10780366994958451
-0.16392596981665802
-0.2503415307630107
-0.02040299578744563
-0.017844673217389292
-0.06131770035774272
-0.3852685386130907
-0.1636628704431811
-0.2515207848446832
0.05971118427991427
-0.1366364117402831
-0.15563335896720318
-0.05752610033714046
-0.053845920638028726
-0.2757137452771965
-0.007957666415586928
-0.14907466763981064
-0.21140229159860746
-0.012208051889380789
-0.17244875432332635
-0.29098650968662637
-0.10956828058983009
-0.3019378269049961
-0.14590595447880045
0.031962240100482986
-0.27192695728212024
-0.25959772836750533
-0.07874331972285774
-0.08956594821169786
-0.04981447711207814
-0.18055126388067888
-0.08704198253692044
0.11999238396679833
0.048417200438476304
-0.13431512722478745
0.03530857954738556
-0.14655932043894862
-0.2503727159604235
0.010655217819831433
-0.13593221816561457
-0.13759084861616921
-0.16043886207888794
-0.1232141841133114
-0.03821133948830084
-0.09739894930017537
-0.12118751921994235
-0.06244746190280219
-0.01975501752918625
-0.4726894887811121
-0.21371725476418033
-0.18742964659949157
-0.14742421169307546
-0.08900767423973796
-0.07840974230710487
0.07358266305734434
-0.09058867235261531
-0.20486979047182002
-0.05007986756282634
0.013074819625637168
0.22606709329989044
0.0015839174046631543
-0.31364694528940584
-0.00047423401075068206
0.0645276321585393
-0.042463848041204594
-0.1654751727716971
-0.17799467911911593
-0.007571639603173877
-0.10109266451734031
-0.14854515174726574
-0.3429584439805806
-0.2977179711161339
-0.22019552584423413
0.0012684388670753804
0.0005470371596218715
-0.10968572861964268
-0.2601387245906648
-0.08406242163898232
-0.03848615866402203
-0.15692243725365912
0.029221575565587576
-0.23107166304942678
-0.09623721448480943
-0.16223933811563768
-0.1328357353577055
-0.20138416796102168
-0.09340094607452336
-0.085151457385499
-0.17215114180871574
-0.022343381411846858
-0.00021819406615065928
-0.10973233178621583
-0.10424976464163235
-0.22775062146553
-0.03273315801300355
-0.1289312484766194
-0.13821837547393015
0.10209819934095761
-0.06080690860908715
-0.07939685156245845
-0.06578729960559246
-0.041128570320677724
-0.004656941264573333
-0.17986558838014474
-0.058354790819998434
-0.0337241568244668
-0.030322538021801522
-0.07674950336415448
-0.23739982839676316
-0.12365038848540116
0.03528761110054822
-0.33593274179529165
-0.03806170792129976
0.14531441799593595
-0.004843541311233296
0.16893071976950347
-0.07231297341093845
-0.25224862364450984
-0.018113254545489205
0.07531130829541521
0.09604611921033512
0.008556809396554593
-0.023165296523468625
-0.1330421744973158
0.12514364662347613
0.1995734719079794
-0.0033176423559842932
-0.1003260501789668
-0.024807988887763602
0.20179949787260146
-0.3060884324462372
-0.11467345201995303
-0.08711873127396991
-0.043980407038202524
-0.13317440512376344
-0.18795091684824197
-0.017281358912719688
0.059810433797518076
-0.144464233158818
-0.1983636918066485
-0.0665028760708849
0.0053842862687937115
-0.2486458697352492
-0.15168802285630956
0.046515864100430446
-0.29524602138713885
-0.006317151620594132
0.022099843953845108
-0.1248852388014737
0.01610680571900095
0.048684510474940844
0.09982315727659072
-0.006957728657117787
-0.022485529538004687
-0.19949594498626563
0.01055903696812057
-0.05000140536115665
-0.005653399291831951
0.06981390816011113
0.04665297298040141
-0.11351166327201016
-0.16259510980140549
0.07615392219660552
-0.06565058721117502
-0.1476670215499276
0.22510579056089006
-0.050957006443622894
0.04107900150618934
-0.18484077875427896
0.05799443716147148
0.11114761766366985
0.054446528320771764
0.15678219586258108
-0.15297963832522474
0.009594651715096103
-0.2712673176113917
0.05366911557845224
0.0462456735042085
0.08644272600852049
0.05974796915347498
-0.005199481159242389
0.09605483607669218
-0.16555521899461378
-0.09003721880283216
-0.056832010907328166
-0.0828599706105428
0.1468042306801297
0.010437295323215641
0.056309867965491
-0.11500200317519234
-0.10344374609137189
0.04967427428832542
-0.23189771107786122
-0.10360620309823995
-0.2035534124858684
-0.10984667255537321
-0.0421977142437793
0.08380537944439428
0.16716387858315973
0.1124536082201162
-0.18960951767713366
-0.11857995327886062
0.0603682452079192
-0.14049544032705844
-0.011120573962480618
-0.18739709073636815
0.0010809817759241426
-0.07351536986973208
-0.09404732120967592
-0.0007123489256510573
-0.12184278987251984
0.14653544009602362
0.14055025685707911
-0.08685527525815663
0.0611182983695024
0.07688798118361721
-0.1206708859967791
-0.28636042489448027
0.20212111091763357
-0.07854212977715692
-0.051364063103455204
-0.2128198222322887
-0.0631550234068253
-0.14236579366138163
-0.12292955734472787
-0.11110218772338529
0.0679980544795021
-0.07964962881019517
0.06551176314354347
0.09540383872116309
0.058423608100972434
-0.21325712296967475
0.20409833252575774
0.02813818460703419
-0.16073011659629485
-0.0344734560865506
-0.26087566965629216
-0.1469005485303764
1.092903597521057
-0.03928601573413694
-0.014856000906528388
0.1373493225778732
-0.2140832998720961
0.3134812440668663
0.2528146524171814
-0.043923549541960025
0.24376265019367133
0.17972366997067396
0.3978936487496473
0.49567565779380934
0.41633161095995236
0.18730364521083342
0.2654705938284839
0.15203146842760973
0.22154192735444184
0.0025449473067512968
0.030317616686951314
-0.009259484500184462
0.2808146082134932
0.09997837766179014
-0.07341037152192795
-0.05996950606145546
0.13816384210294957
-0.3225812034573486
-0.02886974067687195
-0.24588854538353128
-0.21554827046903763
-0.03571374344936047
0.25110525908712583
0.15562617317935623
0.18148207248252107
-0.07362936467512052
-0.07677452237761173
0.2603269277008982
-0.03259035601673321
0.149587565626799
-0.021883917217720317
0.2747106223318974
-0.07735773961817183
0.17069051159059567
0.06332070705261605
0.05933632717408628
-0.09045549793695977
-0.09527236926041352
0.15873385107755683
-0.016266332232158044
0.2205464020592198
-0.08134750843594914
0.18322460917068223
0.040479401189155884
-0.17201862339083632
0.10205876554828441
0.1396926831013287
0.10851882345211204
0.02257474716495697
0.0780509006440869
-0.22823091701239476
-0.05998741309470104
-0.0254789670612504
0.062053422965726
0.07094338397694948
0.0336578962335877
0.08453987941218352
0.02359184472510705
0.22759455911485577
0.07468546551503345
0.17745851857858772
0.10213035693086078
-0.022349265313395685
0.12966856093149443
-0.033665433367930264
0.12396304894370996
-0.01819381458219471
0.038714493618391896
0.003425879057490956
-0.1814804847590718
0.1329668273326609
-0.12806978632122765
-0.01424783989788396
-0.16354885591912022
0.2049824048681318
0.1045386379243459
-0.00011074418347858939
0.01264991498409325
-0.030756512342699577
0.005479238995824753
0.10119149417623355
0.05076596246883447
0.180756546709645
-0.0727687695772895
0.19652949030534672
-0.17943553660398012
0.20965664757388824
0.09738767901812784
0.04356664272106496
-0.14869172318783314
0.09555670463506144
0.15973360979951473
-0.1721302969578836
0.09001618222881433
0.18973698247264503
0.17854681334658734
0.23731722655429713
0.1613369329155095
-0.14270609418826843
0.15501495700034443
0.20037880271797348
0.19752915278969718
0.30857380652588623
0.019073901124990085
0.13797745158662514
-0.01845611264893826
0.10206380752171479
0.005018564361620945
0.09396056957571178
-0.011277531088337123
-0.09741206892730696
0.1541568579608954
0.013810481801074553
0.268058474708414
0.19238035257387345
0.15508891221777274
0.12342975745796064
0.2370303381669164
-0.14218251368084084
-0.25359291556309776
0.15190249038060483
0.24645411615835916
0.1285238569825313
-0.14207138086333326
-0.06072622838929058
0.27526663274342467
0.057083891080126195
0.16552734028658225
-0.027077133412345106
0.12283311581358075
0.17978141842591444
-0.21248474915634402
0.12645087439460573
0.19005678221814182
0.061262173191008906
-0.01748418191762917
0.0680514786089621
0.07277855224195427
0.12348933173087223
-0.11441936897877807
-0.048614472697288524
0.35085897222640866
-0.006279227899685769
0.07901364474643462
0.09852067386445425
0.2578244632378749
0.18434267226357587
-0.07681710273559936
-0.06733166297214088
0.12758763217978786
0.06579440012422229
0.06915919469624757
-0.14823287222340964
0.41225692963245303
0.17462293863752154
-0.08089979912173212
0.2313285292645262
0.05139733787015374
0.15815935575219284
0.42564584502689945
0.02623093302453998
0.07575845341784042
-0.0661928393611243
-0.2925592689962839
-0.06696193332213334
0.05980130951727605
0.11846230725548555
0.2487736973245988
0.12900614273706634
0.014403425322288568
0.2849766738826438
-0.004867672658533398
0.07851688577801437
0.1068065744851499
0.0688074767223691
0.06605764108407915
0.33705500844003244
0.1652715667540964
0.22120032365756065
-0.05884429415008356
0.27863329817306426
0.06607451280660746
-0.16536275380871918
0.13918876505040798
0.01466026079651668
-0.11442080480575172
0.0522627328631247
0.0758048927321748
0.08051242129225494
0.12610776773793106
0.12531684849880578
0.14561395654552572
0.17697966007186625
0.2050655004167973
0.2584960998521525
0.1138333573291487
0.26738331201722687
-0.005323851103706312
0.26652429007834305
-0.005176452753608146
-0.0006020312654614335
-0.09601324025589841
-0.00932476032579023
0.1368983878053477
0.3049317577744285
0.2646759724772712
0.13818423511627378
0.09068400245326438
0.2042064111543023
0.18208143200326543
0.17413846681153455
0.1995953440072068
0.07681347723040972
0.09451612999869406
0.13651186360795264
-0.02607197329696148
-0.05333864701145144
0.11286830199374372
0.029673603943068796
0.09306821361996312
0.19259978055965463
0.24500445574075003
0.06783435745583583
0.13123259259258066
-0.03279754132485352
0.142943974155168
-0.10685341736820791
-0.03005716729078231
0.08652256978120176
0.26256268762678686
0.05582566476310223
0.0245526501341832
0.10033094225850843
0.3000051691665708
0.2659652080893144
0.059186816035382166
0.05163318442794482
0.08113719570310826
0.09455356787350254
0.007939448721953304
0.13162468550275036
0.12307672190867824
-0.05474143104435489
0.03855259828307339
0.06775826335919499
0.10497851258485592
-0.00450896245329474
0.18049002389193097
-0.03378714828318588
-0.21454626560689807
0.10397141632621837
0.9847289011796638
0.024649436647063677
-0.10100548669395644
0.1930083272766579
0.20738806372013235
0.43660587436654896
0.033164796493425935
0.2049011128650078
0.1514919045870265
0.14320935573799298
0.36981728044942636
0.4689409503927214
0.4505418586799194
0.5332722457217958
0.38557695104999784
0.35465541196869566
0.25696922210559087
0.11866893700667047
0.16583410807347357
0.28916865547359216
0.16744206119037738
0.017720350374759858
-0.05622045639898951
0.017953262832775
0.08616562212656523
0.09655771920461317
-0.02146126198704372
0.060087737185778034
0.19957468557571992
-0.10461098556003948
0.010970496781061642
0.09299109553312422
0.14968210487869263
0.13472181452100324
0.022785442754689675
0.015346319687771545
0.10890001289858803
0.10049814887786059
0.0484304158941557
-0.04632030022695581
0.05635543988186304
0.10498442601290377
0.0744312732561041
0.17244594889078124
-0.07393184152538315
0.24910485307341967
-0.030921684552993225
0.205213180715865
0.19085350873155282
0.03969699355446291
-0.07178380988558228
0.023276031769697794
0.24048102082573042
0.010851396697531893
0.16686506813308488
-0.04297971087064434
0.02935504658687911
0.07206508198750872
0.2665334558409058
-0.06807584202273556
0.2489174256683668
0.24134631608350948
-0.11078716762237192
0.03585589861053814
0.14037806188381075
-0.010344855260416508
0.08544991763048915
0.1963431871038438
0.17308794782890657
-0.12474287683468853
0.11052277529711285
0.1503535320821059
-0.11460256610322739
0.16541881787036816
0.3059539309038986
0.02544143858402917
0.03185726311244145
-0.05000271071669833
0.03385442919232995
-0.038124253568960056
0.13371446809627108
-0.20007660345848663
-0.07029059613835956
0.18469068404050265
0.22823521343160752
-0.051683375267214254
0.1743520556802578
0.0405916066529972
-0.06132093026599833
0.4011963172090768
0.02437610683792775
-0.027533387811039603
0.11745471623117204
-0.043839402167133126
0.20522078932120447
0.022530124317731437
0.05540113130319579
0.13922094176373923
0.20901370067828617
0.1574192688260928
0.041340874402777734
0.06648365285377951
-0.17513557221064885
0.18405126714608447
0.015276515209024448
0.12269568257250271
-0.0041929686166254365
0.10187218445307361
-0.0404030424019884
0.06747624844677592
0.0907573382204142
0.08379278360198864
0.08904509069361263
0.018248944016456325
0.0843374969142362
0.22871907144209608
-0.06107093717131516
-0.06288245677550537
0.05502594167984738
0.24998796174561838
0.037862190217222313
0.1219134881755779
-0.30496183424367024
0.04244792587422652
-0.09984525362116671
-0.05369056352394705
0.007815343712046417
-0.05007826173557596
0.007207737297453082
0.21855476296001297
-0.046237847487904264
0.07762882367488598
-0.11136126994110754
-0.09344937561705845
0.13015817736838792
0.09036058482868445
0.00516379354688519
0.1069129784736571
0.036655786065996045
-0.0951268628515265
0.11062793964148565
0.0035560089304707346
0.190268206819211
0.041988467119434186
-0.15304777653462626
-0.1256171550761517
0.12402309617239216
0.10373374236223219
-0.008515271264122687
0.2311867463806517
-0.07840778342877866
0.1112079197145079
-0.14186189177881192
0.009145894093193128
-0.0036520003534318765
0.15240311664293082
0.08679629068352573
0.05933767115787228
0.1100827039471379
0.06157336992624131
0.2744460597096741
0.14100128747116952
0.036444816367130206
0.04318191602053528
0.06772676830165689
0.1223063989446482
-0.043064873274126995
0.0007504001641450431
0.17829400839089554
0.18151252348381602
0.28512051677852907
0.16499209954375266
0.2122249038000586
-0.18131467298072754
0.18984059759889194
0.09994951418802525
-0.09042455646063932
-0.2244453122875421
-0.03814897330878881
0.2358480623623369
-0.047673909516719105
-0.1858324751637846
0.117678427987332
0.17522574761884996
0.14849382047483312
0.17437588050365824
-0.05617132546532836
0.05332366476130647
0.0740148869161375
-0.026135207016543226
0.09423112255303522
-0.004528682869409811
0.07792309273446403
-0.0381712768732059
-0.0016594419397453868
0.029638001608037246
0.19685832238026557
-0.08472226589738839
-0.030123003411995964
0.13667530522187965
0.20353886139898153
0.12265927000334377
0.12661859040728407
-0.14792700796021885
0.04902296200129004
0.06627850453849202
0.02690601455782199
0.008975934477606442
0.158628449347721
0.17253139509465976
0.06764009557038222
0.12948270547259216
-0.05981395001183046
-0.058170651007895646
0.002631936146672304
-0.053609546424769665
-0.0860391453350505
0.014703169183984184
-0.19808752849595923
-0.05652454529944067
0.18761350455099443
-0.2368258372212982
0.02232005180253628
0.17956182476334395
-0.02966738367381457
0.05847139041168957
0.021177841486170454
-0.012243728895558052
0.06586645009855581
-0.13620725299016762
0.09907977897868285
0.0938584616005037
0.021282538324924424
0.2343467826259372
-0.19626738322830825
-0.025656752096747178
0.10862620625695873
-0.1223839842710622
-0.021307264440999354
-0.16052467533109707
-0.03225886398814603
-0.22095023114062357
0.03380256255496028
0.24851398307678108
-0.0099345894280988
-0.13468322617724166
0.017140310409093647
0.07278599390936272
0.027671744893964553
-0.15175308795518516
-0.11310850230776441
0.082073676709399
0.1313907333795787
0.00993071792273853
-0.2146583507396266
-0.009523033079935345
-0.15320530823583012
0.09988946207502439
-0.19318986338297817
-0.04382945902952323
-0.030199726015635336
0.17348351838605083
0.04655743842380761
-0.02610955598591874
-0.06972153415926131
0.13748762343990434
-0.1623957158363148
-0.019902019390050936
0.15809690897240603
0.07567381731144393
-0.06495411870027848
-0.25505727993117217
-0.13196761869091014
0.01565660773486444
0.09734983057768815
0.3924419354635797
0.0024168203124669795
-0.07698362265868362
-0.10740788746873332
-0.11228631366525922
-0.030833244166029932
0.05656878882985973
-0.19325615536661264
0.0025276616247655245
-0.0763879692058467
0.10340884414515965
-0.16092445833398353
-0.06462017312132329
-0.0937141284005111
0.06021955643901056
0.09790949035048253
-0.1615530399351532
0.25297896364960365
0.024464509814582952
0.10403314094463954
-0.13723514887845525
-0.18247924972455482
0.9527595225473242
-0.555259432037844
-0.19657505411119192
-0.15488511974148264
-0.4441292382020757
0.01632010858478797
-0.016032641624786025
0.14969128831602027
0.048424173906189416
-0.08203795571450778
0.3378353129682926
0.11963049920056948
0.4388875322270323
0.24936781345091064
0.24509354714033724
0.18446283507982086
0.1901169503180804
0.2350853531826135
0.04360072047548281
-0.16463486590652776
0.07695236787718562
-0.19377861696504328
-0.024256206849950137
0.0322447692752644
-0.11313912052636191
-0.09049033263272582
-0.21952501435782418
0.06757593448947914
-0.1546884064958721
-0.21556000177386087
0.015051961367879785
0.08361713345000538
-0.12692934229997632
-0.11572828897327439
-0.15760670361406037
-0.24592736764387468
-0.06469621491396313
-0.10015128379941302
-0.08345037305764372
0.028807996040047447
-0.26472965506925666
-0.12348249432878436
0.18438080440247492
-0.11253679389292917
0.04839806456324956
-0.07687406167320461
-0.20959105878563122
-0.10801391135370858
-0.21038921043384454
-0.05485650173064739
-0.010105429843793597
0.01611372623936548
-0.2506120970521246
0.05119141263066977
-0.1714124152327247
-0.21987867264011368
-0.16897972626413577
0.04558941801161266
-0.08069748589710805
-0.09138260845629263
-0.028925072850204785
0.0062285613833353015
-0.17571593071665953
-0.022266239387627514
-0.10400170273556666
-0.14435950151497196
-0.0466383127360771
-0.0169126067893947
0.08297224152887625
-0.07645414194021062
-0.11284902982910808
-0.2236594999055026
-0.1846752013866337
-0.0048024385141639675
0.03826792490541575
0.15010810194058938
-0.14153266026909228
-0.2525753351906723
-0.13924958902835025
0.0024938964409396552
-0.15626731672921457
-0.20997140212448787
-0.10279372638407433
-0.06450929880378657
-0.14995546629174272
0.05673041352688002
-0.006131651774095026
-0.18003184514541454
-0.0420966601644628
-0.33385032381280927
0.04427911275082108
0.12914343904613187
-0.1309834338668386
-0.15557006926779926
-0.20581948179076195
-0.16885799346355346
-0.15832486511759625
-0.2041590720432149
0.01617425654050479
-0.2737000048195013
0.07414540793778994
-0.06470864648111845
-0.012258305029783367
-0.0470005941280417
-0.05099167236891345
-0.14673339444299377
-0.03221924629123331
-0.26337588621317554
-0.29306693593136135
-0.2692305637706687
-0.40448642638108034
0.05884235178303429
-0.17814654956499767
-0.1709742391801729
0.024280552478006173
-0.047333573564486746
0.01905590280899032
-0.11672693347594569
-0.1943136551863224
-0.15363166545662746
0.04169417040142648
-0.034855298903546356
-0.08478497453706126
-0.07906796237666563
-0.19900662677337505
-0.15561850574322988
-0.10143586428026335
0.07495902323860958
-0.2849515395277058
0.033361779106507256
-0.35078927084564143
-0.19471886551460227
-0.10683058138762269
-0.11761001706155595
-0.12953984442622973
-0.06984356108022116
-0.0947800348079219
-0.016901602542784708
-0.0603073312427475
-0.18842133792028604
-0.008642648323554117
0.16126261639199563
-0.09313666204830257
0.04863627718937047
-0.0106420749509165
-0.05091117358982192
-0.06901524655662415
-0.1749382585467017
-0.2035944020555957
0.003427219126214409
0.021782080140271387
-0.2489352089436295
-0.0694616609582424
0.02285357805483637
-0.229052529855859
-0.0434032424880424
-0.07613930065372547
-0.1958836623510946
-0.03439550250771517
-0.17820094761810223
0.030285929152273225
-0.08779639869495913
-0.01826743128645779
-0.20912349696945232
-0.13123793820083576
-0.07944059446819457
0.04871019279220545
-0.03379577000794254
-0.10972704163546691
-0.06865197649533655
-0.10926433676886951
-0.3449797721087793
-0.20453629862993988
-0.07048778103524429
-0.013838148000321987
0.0471863885619989
-0.18034403275032865
-0.010978815160664401
0.01599598360973943
0.14335768035551072
-0.07717046979005898
0.021665409605909305
0.17215309268063667
-0.07106270634265825
-0.2042747113199361
-0.24330104301105773
-0.2989981565893828
-0.15924602283753791
0.8183041448201647
-0.528945583900555
-0.22908152755399078
-0.08615093317516073
-0.05335246302536538
0.09089878600725354
-0.14858485566473395
-0.047308154401948244
-0.03293339234033868
0.09006696376324604
0.13104020153344187
0.24677775399658858
0.33849931003920264
0.07623454665988476
0.2796181475570348
-0.00422121647623247
0.04245366924510743
0.06872148446376489
0.032699014851632804
-0.0708928270436533
0.04775007172190811
-0.24611989040233473
-0.06762067447457883
-0.06221775772356653
-0.1287382164854915
-0.05653521712567973
-0.15534114500460372
0.14389269954204456
-0.1608188983027613
0.17938603994414304
-0.17819490243721675
-0.1950400713947827
-0.05991414530551805
-0.00666809343034816
-0.037416450253185754
-0.25579842202919995
0.015742594957513872
-0.20279001291810367
-0.029406250684743965
-0.11463001749515532
-0.20050269742048288
-0.11370671784696465
-0.05235983053288716
0.11652120259583218
-0.02289449614120269
-0.11373238476404951
-0.07971425020159775
-0.34464484827611924
0.1195822907659105
-0.051877238052101336
-0.07804071507429766
-0.08596503853511446
0.04577224518478529
-0.22478245554669532
-0.25682125044031423
-0.03297882774553414
-0.06042849642621095
-0.3064531846520966
0.014620676756473189
0.21319396234254168
0.09623016271480571
-0.09790670245961496
0.024954212910140078
-0.2720580364487324
-0.15270949974089504
-0.05811611373807347
-0.0804079040793162
-0.012917572521436244
-0.1253917038399817
-0.08492951321775244
-0.06443962493896685
-0.06260459895440657
-0.2737658782010092
-0.037448612208725245
0.10400139175296316
-0.09675435760263815
0.033575931732186676
-0.136577430964977
-0.133385601354291
-0.2812729772731586
-0.08339637759794882
0.0695375964759869
-0.1163306344596644
-0.042615686015400105
-0.1347901500206352
-0.19997359920746893
-0.12377459097895614
-0.05913549720128435
-0.006654738609125244
0.12412324980363901
-0.16582240318862024
0.07978363756679459
0.016989974413211026
0.03634308866068156
-0.18333390624180007
-0.17780043668627604
-0.003405665518787515
-0.10406501623504207
-0.03794169743750245
-0.12087168070468099
0.11910524152521178
-0.2713434111693797
-0.17288497311738701
-0.03190866008879057
-0.14720371374055446
-0.015428503151591041
-0.023846046699817817
-0.07950020901670092
-0.13656238229541598
-0.03693470975505827
-0.0689704627186712
-0.13360194289253544
-0.24291046814133838
0.0758356016514969
0.08352275757698445
-0.10855053922788341
-0.26733399371974126
-0.01575665383792809
-0.1464436560798693
-0.28820266171331427
-0.09733605634388103
-0.28229456839068967
-0.10698612679371983
-0.2042097538269836
0.06528413937402562
-0.16685854291202223
-0.27575876585539716
0.04271326783618022
-0.19802405058602146
-0.1588934875195343
-0.24001889433784152
-0.012000083741891536
-0.02312338178185388
-0.016331687553214444
-0.23225753989532
-0.16949897202347358
-0.21375684851762883
-0.1560260986508009
-0.23792924845989782
-0.11927073385335252
-0.1787295128281581
-0.15994894164955203
-0.3047976944091793
-0.026771354379956938
-0.013348818825326243
-0.02751230383022603
-0.10502236244496072
0.05991948115856434
-0.1840432721771197
-0.032764859257658416
-0.15125949615695178
-0.07212882663219941
0.015396584384148822
-0.007371534546659439
-0.1057266773671745
0.11174977442173273
-0.0070558023370483475
0.029462942966591514
-0.322661784428705
-0.16791053979615136
-0.08654839203993957
-0.2625642204342771
0.004009299013770035
-0.04928317038048881
-0.1628915999182372
0.12072363809525882
-0.09973949840735008
-0.30527569400113025
0.0002846947516676468
0.21428832237441708
-0.058267580325803155
0.25869044697338933
-0.13721783994073955
-0.11149452241721358
-0.06788620149907913
0.07642501240310728
0.044939218000899915
-0.07611699630168967
-0.22086929564976246
-0.07482425024868118
0.2097530238134906
0.026313713142057382
-0.19264908449671972
0.02593095604158758
-0.04842669366527745
-0.05190552509286295
-0.2768140922910533
0.1294282090377126
-0.20300392016635335
0.28658211401964906
-0.13238809968536275
-0.1149117397580092
-0.06169900276484602
0.07443340062738146
-0.08088437293061773
0.11819681694932543
0.03671975515672237
0.061495055532678665
0.14299694968763618
0.1980607246790675
-0.08030120476616927
0.054779708737840764
0.06537338167324468
0.09368995254169174
-0.08259078187387668
-0.16517561365866376
0.15375805114503138
-0.08039710408098678
-0.0850651971012836
-0.26180355023693175
0.014757444608296262
-0.28308970155033997
-0.007176192335278244
-0.2065765972066672
0.11660303094131425
-0.06432439648772467
-0.0029903230118352962
-0.1112723672784567
0.12876537573774618
-0.15438899423915323
-0.12714535095760662
-0.03158835862183541
-0.15237548613731128
0.10868763675145149
-0.09860752327488168
0.08809499945012014
-0.21454724687059595
0.05098788821037814
-0.022071762712401927
-0.108478822437819
0.32575869763563
-0.09996675068830076
0.005650129279496388
-0.10066586918802423
0.03076190010641371
-0.26691488317416523
-0.0005314581704378906
0.002776667531771447
0.021273228558193944
-0.14024075311446269
-0.10473668466121401
0.024469866272260346
0.17578789296580258
0.2880865478617793
0.1993573628574824
-0.08060426964692713
-0.06366897010953952
-0.1889345523496886
0.09200423685916526
-0.042882210401536794
-0.03152569901469333
0.04270059331130435
-0.03338815096468306
0.2781700370624363
0.23539087682816914
-0.0680681151449058
-0.01682361568604578
0.13902826438792018
0.10587620970710156
-0.00015606177290975517
-0.11041577750668269
0.04093919564571233
-0.08962335979366369
0.048924388665821675
0.016586573878765158
-0.1377098288989019
0.12377404666680131
-0.09479176709267972
0.001589370492152152
-0.06270036309653662
-0.03487804251972434
-0.0932298144357625
0.21255205758837276
-0.11690065697569847
0.1266759646428588
-0.0053282354159522975
-0.010954898900149983
-0.04365886434946241
-0.1935793002390127
0.07514384687840839
1.207718074174685
-0.038594749966818984
-0.25391640899954315
-0.10338182529371158
0.11078150664311025
0.053191912422872994
0.2586620090682892
0.31843809305996795
0.17069455042484272
0.3653506640529057
0.37452688623847885
0.37141244999774214
0.4547346452791742
0.2398236460629357
0.2608316536043152
0.240194325950074
-0.007052981444319317
0.031210396411368482
0.10494070160252245
0.10756614095197312
0.12224966281033683
0.0568824511190274
0.061172405023858206
-0.12439555208161451
-0.17973624717707812
0.13697259769058132
-0.0970998217549184
0.19541822768212458
-0.16338129368700088
0.11323829475009856
-0.0025408118431026958
0.09722070501141948
0.0186153604324925
0.04075454633309582
0.04324355053951372
0.17684567265618398
0.028843762108633042
0.17089940719742558
0.0065620642856342795
0.01041502418670269
0.05504380309239486
0.06606719779156883
-0.08923753175069112
0.013848883532303513
0.013577741510093312
0.09593187963785993
0.07341853449491273
0.03241419500023468
0.01134618783908218
0.09254789398023758
-0.07536181966717136
0.24004933511430954
0.14973319635309068
0.06120832965129669
-0.07064832887227601
-0.07156381642221823
0.14574759406505697
0.013630186062079233
0.35561483096344826
0.0750739576377826
0.053444289990475326
0.12791284667693953
0.2651808583265719
0.04807240737778518
0.2558344275215091
-0.02893821896964842
0.0017591765622433087
-0.03173405532112856
0.1833538267189329
0.025113622693496186
0.12502215901226757
-0.07912245399079842
-0.09421305382272259
-0.016916753975220168
-0.02355242290205032
-0.08283547679877759
-0.11686491440134851
0.06796362734366475
0.1386238402847942
-0.10223845018479803
0.08660642826916509
0.11590945936258928
-0.022807820981666796
0.1184805369701884
0.2508680073131725
0.007397821847699569
0.05021375553596827
0.13109265056749336
0.11410731477581504
0.13668945155972723
-0.02551935176961756
0.05835116611509317
0.11234862798348272
0.07841803543991974
0.16244943644210966
0.019397242770380345
0.034944793974346515
0.07454693516524098
0.17844419540052092
0.15768655978787144
0.30457289159264733
-0.2029645258914052
-0.030433095961052592
0.14934894844929858
0.20367204461781824
0.1312068940109817
0.10126891122959868
-0.03685926295954116
-0.004999537313204849
-0.018077405551030434
0.04475678578520297
-0.006940387902164474
-0.04063780082552325
-0.1858320843470154
0.05177401901669877
-0.012968381473091956
0.15406965641662068
-0.06308279489492136
0.07240973835962246
-0.0038311579225281805
-0.24412795830919137
-0.0552781058347499
-0.096960360126679
0.06066274600304611
-0.0028924241756022456
0.05412637195427304
0.06955402545633155
0.05318747285891477
0.09631037625323459
0.028080967325050457
0.13353893788566565
-0.07456527207401716
0.025983136685352223
-0.08243721962290551
0.09836349685539549
0.12972368199943843
0.4071955820199157
0.21021787170052428
0.15287629602118463
-0.08155406047037453
-0.04645977961158307
0.3598642849079347
0.014318078216271929
0.14043783686487588
0.3184697824648454
-0.10744968887699373
0.2575940240442629
0.0049076258179541615
0.28300182364171894
0.22022383964038128
0.2327441230440453
0.23490666279753436
0.1311414188445181
0.0691121399455128
0.20134071745139998
0.06657261137499135
0.10327745615299821
-0.03417921903703591
0.10994009886580938
0.25731760318408914
0.13291623882091946
-0.10774755087717111
0.03960487262128677
-0.03333493928547257
-0.06801253989624495
0.16491287868756113
0.17373287648425584
0.004541605861798317
0.16349566374374458
0.12824973521028926
-0.1379952795084273
0.007344805341936267
0.06256289177448768
0.051906323392707406
0.07702669540063892
0.09976484432592511
0.1775593731820903
0.10305062250922656
0.01274826426534599
0.06795299259749187
-0.05991666066799636
-0.012505810225694816
-0.05705803936239026
0.16615921619686613
-0.09248268014652399
-0.03470060048196856
-0.0011971302105864001
0.04362101948357296
0.08335783556070879
-0.0009040904201091382
0.1424741810824841
0.08380472032261264
0.12038764840864703
0.25407431840374783
0.09960436077192922
0.08538283336149291
-0.023030515684420286
-0.059901930675791706
0.226419966770938
0.3541136544782926
0.09725209082979071
0.20515859544886692
-0.05968625639048093
0.00634864873341881
0.062113574427133354
0.03963628078241259
0.17875925299779793
0.1415595806373391
-0.023950854179185493
0.009907868589651689
0.23769125196164603
0.18637204058318174
0.15942954638902976
0.141737789731583
0.1797649345350027
0.27937885839003085
0.11199774660962136
0.3324955007989543
0.06806939216284877
0.2881717938840759
0.06670827980171538
-0.08006850882968877
0.03218426576686133
0.17938207051331329
0.16251530715302262
-0.04226782466256104
0.10140076333719257
1.123002823639805
-0.08834400674332063
0.2285303956888528
-0.06475638612949762
0.14967325823055191
0.36787963398842555
0.1394888572869513
0.2724063219810875
0.21556212832929902
0.3658863590551968
0.40140037064931766
0.5464601421605525
0.4018233925755092
0.4797017229800042
0.45595237874312905
0.24643484797015566
0.3090666719306792
0.40003697243936875
0.315323379056101
0.024473179909060047
0.30442844593354706
0.04797740140165993
0.09709989939249349
-0.08700354743640103
-0.00875586377346109
-0.039769041315245945
0.07961257499678173
0.05154220360430476
0.08467450264160548
0.20917805560019004
0.20025244909781126
0.027341162923121096
0.3138817267018743
0.3459509938014711
0.2557185142679052
0.12856141579039435
0.2104152207518832
-0.15605870122023635
0.24292189815973558
0.0100352565908218
-0.03936044516647724
0.07947944869213472
0.05094856403937684
0.14032321623625504
0.257177946568083
0.009047334520789055
0.0710253048959188
-0.08355676445822473
0.21899959063730903
0.09202150616909212
0.2406584311148981
0.15431699546620523
0.14732041587772862
0.3433442917152145
0.14497458596524956
0.12243184647197972
0.10504732048848464
0.15375707192764734
-0.031286675487249976
0.12071033671548412
0.17951271411954772
0.3219618143540707
-0.09382871542833063
-0.04560587415536527
0.09961917529572904
-0.008906475846787817
0.0013227596634767802
-0.024819034740071147
0.0995654814862597
0.0952110559788148
0.06523648308092747
0.08312617424544472
0.3324406487581916
0.21390019161784293
0.2299210921536277
-0.05336691558885072
0.16608350047816098
-0.016164498196146668
0.038118946381438944
0.13487021259185597
-0.08543380009726208
-0.03686601913538062
0.11435026055757044
0.028553561198603285
0.11629071943170209
0.028424367327224732
0.09420821534575514
0.20265875677769918
0.16711173876246993
0.042574527004826807
0.2328889558549625
0.14977263646416533
0.288809827040543
-0.2186589120724381
-0.06613331968344893
0.07034953251729313
0.06664142059876349
-0.07190225126906108
0.07654790688388331
-0.012198379804381987
0.126958727877584
-0.16632820337273108
0.03413353896458106
0.0376217623215396
-0.09430857586834937
0.0188852094310129
-0.008978073013241078
0.24513111300238094
0.21445694426363332
0.18416507318567496
0.1969630643035925
0.08978003273207569
0.05631099054134152
-0.0870898968246843
0.08171798585500417
-0.1771133684209023
0.0037523415508450564
-0.11972469807159006
-0.06730662903633321
0.1386110724140744
-0.004167501095066847
0.18414395954750437
-0.12444866797211634
0.09168213094557329
-0.1168467428242707
0.023194226465454534
0.2148999969780122
0.22607710912996914
-0.12568520891022794
-0.052047976775593655
0.03907393617175339
-0.00311423067331891
0.14046050062858567
0.12097343358338725
0.061111524967541686
0.06137307339218609
-0.05593836457381396
-0.022575461513568602
-0.06935142196232504
0.12258864973201461
0.177610788024416
0.2354710742978981
-0.01801320250963029
-0.18619273314316326
0.048877461271380006
0.18459509429148593
0.09217903812208958
-0.06922408542846105
0.1892081283468403
0.02998013053077466
-0.08920621537419923
0.016211720414528258
0.08350048349010941
0.0214419246011276
0.09618622998624628
0.11067111041695643
-0.11834465870663252
-0.0636986934522242
0.02632635316080352
0.09753761061723755
0.05921109345696899
0.1507614972428769
-0.04323323345381135
-0.13233699337988641
0.1415736741637562
0.0067715630083824
-0.10443926877288864
0.13965138162758098
0.07696744688948412
-0.09897130769191029
-0.005420140179477208
0.07137146652199956
-0.0955911581536085
0.1843248162255696
0.08256533813985578
0.2026439399706838
-0.048906235168468946
0.08358320282489493
-0.001397687215806305
-0.053862202393533426
0.1723314417034304
0.10969657974125555
-0.01812986659024895
0.010988332229646135
-0.04046485742678981
0.060907271832864804
-0.09245993273468428
-0.1170928310599128
-0.11095359815346337
0.011890764501897171
0.06338273805465706
-0.023234268578849786
-0.0031642756123079208
0.08822299706045188
0.24006630276399143
-0.10258436644811711
-0.042034714142261
0.27534201696735966
0.10874337601453338
-0.018019499948466314
0.0593434094418093
0.04147072718013757
0.038011953411358324
0.2321292248410022
0.06040386131882554
0.14187454181296916
0.03832817623879499
-0.16674598352647513
0.08352223741954741
-0.13276044222750658
0.25743266922830327
0.007694869425348114
-0.12297697693403971
0.010838541788041813
0.0932494125682401
0.09592776005954369
-0.049353108584607536
0.11285704767811458
-0.061649013789672566
-0.10577089175230146
0.08935132387141594
0.014750350667635427
-0.11082755674422716
-0.028263020781437647
-0.04058998352865316
0.15938082511831786
0.02821156013314969
0.18758292027658852
0.01964140873226826
-0.21636146374289786
-0.010766538658929974
0.13745272037639228
0.042751772307517436
0.09083304958314951
0.08465388830881329
-0.14804616126275635
0.04438487885584475
0.1306013350310494
-0.027407026400611215
0.029121852375049027
0.03738069235703519
-0.13987508680668279
-0.15871908767428253
0.15272843881188022
0.06137650678933979
0.1248293883217983
-0.010039551661302095
-0.1703516866858659
-0.027787137214648403
-0.02427496222421139
-0.2510905924990851
-0.0014777015160887322
0.4598089849732517
-0.220028033128625
-0.17936585300894092
0.2132156427344063
0.966963697026952
-0.30863099237313457
-0.08700859331189503
-0.09673664951769358
-0.13979777288984863
0.10904165551408067
0.001759952670733582
-0.21101442896683872
0.04147977036687854
0.27309512435340705
0.3888207228362994
0.2358913633433476
0.3275654477639657
0.49112049361107596
0.2955897685567537
0.36533476349531635
-0.017908432705400754
-0.2544127888839809
-0.11016027605347946
0.12557190141344246
-0.06732970488355514
0.07746590768407362
-0.002873611365416747
0.06312159080223448
-0.04644921707769592
-0.17379766193959145
-0.07338511253628549
-0.05749113391913449
-0.04358550802800651
-0.2541760974405574
-0.22068428955425867
-0.10883124636725067
-0.0019437173891877421
0.038214123188977905
-0.12801536675492992
0.1073350881852176
-0.06351107213745322
0.04369369697890247
-0.02589317536813509
0.12803867125903257
-0.013884456189903315
0.1552500331271825
-0.05659329460797939
-0.15268560610555126
0.003316813654812567
0.10262022900350576
0.04476436256368871
-0.28163122862867845
-0.08492716694033652
0.07730826039679073
-0.1544639940462622
-0.3310912215860702
0.20878940684304229
0.013301202136584513
-0.06775784827544327
-0.08493583089647916
0.06901617845647827
-0.10161161603320612
-0.004889883824609108
0.06929716372101122
-0.16269412610393155
0.12678273680451113
-0.16580447015277658
-0.026388246220404175
-0.09802852459714645
-0.0864833931131277
0.15978215204887694
-0.022563198117854295
-0.00397379279685952
0.09062177924118239
-0.09694406778257611
-0.045718314146940595
-0.20096011600304517
0.15754801823098313
-0.06352767568550145
-0.20234911425427757
-0.011592379537767171
-0.15220220016378716
-0.06287002104858307
0.026110782793630424
-0.16364318187474408
-0.12665163965656764
-0.16101379555637177
-0.14684477663234619
0.0839340263890436
-0.1551303769778163
0.021408850400727854
0.12605343047433099
-0.07735795424906404
0.22812317801614101
-0.020833113410404086
-0.041273781134858
-0.20891615719673154
-0.2732806769396713
0.024505917299948374
-0.20561646982615475
-0.26258497862953945
-0.10250148294086475
0.3744480758073328
-0.1505198596729606
0.059023168301127985
0.14808960032368268
0.11554690066476729
-0.018621089628251736
-0.14674598765976446
-0.23259324478070761
-0.06210161665778835
-0.06341365969379559
-0.03656897652370896
0.03325158357855425
0.042343219435428306
-0.06865251162248998
-0.04227414456884083
-0.1636244520269251
0.0034364825195147553
-0.029752849441349358
-0.042689769056618074
0.009179795747007558
-0.018504958783658182
-0.013830587502821914
-0.04177482442202179
-0.25414718057379293
-0.09360640739713988
-0.07449602564017202
-0.008239839130187485
-0.09353204553295522
-0.19575106631353803
-0.0934320933310283
0.022551709979183834
-0.12399961164235769
-0.07141305092438838
-0.042635118977431156
-0.1341211102740528
-0.21005151575651798
-0.05588426600029196
0.003446230748009302
-0.025904069808297875
-0.09093927844354663
-0.10393285711160882
-0.07676338307152072
-0.05065547266824981
0.05030174020237185
0.09663710721652012
-0.35622122247967847
-0.088225024587011
-0.3377599061275179
-0.015722532291552085
-0.11314224281075001
-0.03001357889228219
-0.0003699577877125937
-0.2039972436453167
-0.12526226646879884
-0.10124249487262374
-0.10457485476824856
-0.3066246460821409
-0.11234960161563075
-0.2711896334065653
0.07315735699203683
-0.15770094773138182
0.01985082939811801
-0.399710487956725
-0.11562693711463813
-0.017178882994365444
-0.09510679583226372
0.045062988494444595
0.1426517156678762
-0.3084283870342387
-0.17692771779114913
0.03859380997205146
0.016055860335664307
-0.05739825652499549
-0.08678305024179753
0.005623667918777456
-0.06009857766095487
-0.04956260193502561
0.007629145685926042
-0.0024833353397767377
0.07621751212483659
0.13275800524940679
-0.053502675018537775
0.052564650181928824
-0.13638696916341375
-0.022894969598744916
0.010381503260342248
-0.14391491256049313
-0.07440236121122222
-0.08437189544395274
-0.3635446172488485
-0.1782994577439523
-0.1907590292534646
-0.048930956979333716
0.13451285370906335
-0.06082222298990092
-0.14250961630838513
0.09061669996295707
-0.03554747943682272
-0.12430984792158807
-0.17020143194938864
-0.007834176826002584
-0.11431720173207299
-0.0582487777596076
-0.2586075700751746
-0.03148067182596359
-0.24473836656553077
-0.2566511866802249
-0.08666705235305072
-0.10330690139992793
-0.24469791437285715
-0.12117149019530744
0.08082928925168265
-0.09888423325269537
-0.16402271156834852
-0.0035579649356500404
-0.10804981610658274
-0.07974381489961063
-0.21570508698799362
-0.11740079044863377
-0.37927978585530825
-0.04116710197921949
-0.22836996883089714
-0.2553244226634405
0.15580732181752366
0.15679587819155372
0.014052452100346113
-0.2563345205737433
-0.31634034635899827
-0.19482129281663693
-0.2760699105534171
0.08693764783126287
-0.196039156917735
-0.3112178014834357
-0.13722108138874323
-0.1527516729393275
-0.09440737012876856
0.006791860595008498
-0.0903031035598739
-0.12220469246071289
-0.28006126700652934
-0.08222089142694146
-0.26576518346255484
-0.07376202625231192
-0.007528113807359932
-0.09028503286447834
0.04046994453327561
-0.011194306256242278
-0.20314030802528726
-0.0710068884727991
-0.4306243111886008
0.10338628170907671
0.08196468801487607
-0.17534114587291588
-0.2456506636590723
0.03164420932924454
-0.006586058488815855
-0.21191769241642575
-0.10847464240878088
-0.13571490051557392
-0.2329262267783929
-0.07687530082261738
-0.11817147454708563
-0.046466832521368795
0.010923662556440034
-0.16444065819654963
-0.08511761015669257
0.03587268580803664
0.06330341286695237
-0.17501627154796565
-0.10754727463966106
-0.02281003227013126
-0.1342546841491846
0.08170172654705482
0.07712382814958299
-0.10035516610814102
-0.06602293898779886
-0.34448645770535286
-0.004367555484058788
-0.04974304026411206
-0.14979521200121526
-0.17773087869920104
-0.12760340429785647
-0.29887700063089445
-0.20607690708203472
0.909838750556588
-0.3463464805347081
-0.011014390738916219
-0.27737052485060076
-0.15043325866091217
-0.0743075506372573
0.0954796507224325
0.12658372212252808
0.04182178703815438
0.006638298795495157
0.3456830490045655
0.20209009929304855
0.3378113601918902
0.43979963367527175
0.23761055264594588
0.059275797400769534
-0.04178761746993351
-0.0493625656284609
-0.30404576414614404
-0.07534106816110764
-0.11697468771144298
0.13724207594630045
-0.18565553257069478
0.012950953923111685
-0.23508282455909432
-0.05671432753746336
0.09002464574656785
-0.09968622908607035
-0.004178856107558165
-0.1308435407413755
0.02277473979917574
0.08208286412652421
-0.016542102855921434
-0.08589409409723366
-0.04254776194193611
-0.186626925449835
-0.3928489044400423
0.00677702273676245
-0.1344394560573891
-0.1684271458086769
-0.09724518542490075
-0.16372565529063976
0.07031101577216486
-0.07408282854711983
-0.019593439658136064
-0.1786796673520395
0.09249751334344686
-0.12088184539448879
-0.03070703852552089
-0.31235669560233625
-0.07328923635127263
0.14424920823237677
-0.10605148919782001
0.002468366224700716
-0.06431468828805377
-0.0750011667436995
-0.27593225640720354
-0.005484818297671057
-0.12116175414890451
-0.04237333109158063
-0.0003562074485447958
-0.22771882126365917
-0.12128409851962607
-0.29377321332538764
-0.2688452203084342
-0.08819121965535473
0.07676650007396978
0.1056268672804348
-0.1179412477267654
0.32280316127555475
-0.08693337401210456
-0.07069861813898808
0.09285944789482425
-0.005910733730757928
-0.3711969452516864
-0.13694775890428765
-0.0009728176582390752
-0.1745290176248043
-0.09744628597794551
-0.06526307710358233
0.1156947290899244
-0.17511076555070637
0.10912983931966865
-0.0038550061157638787
-0.09589665381142652
-0.011655213903525821
-0.10131661481124551
-0.005930773558009077
0.002372874041554812
-0.05796840427077781
0.002506977796394194
-0.028694244950065728
0.016726337174935352
0.09047480018558104
-0.06991534316815645
-0.0691347900635448
-0.022927412500448656
-0.06780031742252235
0.0252414874876023
-0.25846580709989087
-0.33101743982004184
-0.03202771620901547
-0.2581180465793122
0.0640875713619396
0.03927217781844421
-0.1460135864994933
-0.07636565617152416
-0.03512103350080839
-0.00029773057925717994
-0.11673379623430663
-0.01750992295600702
-0.1275793053714877
-0.16207796641542152
-0.08201637279817439
0.2861199631855015
0.01933308888821654
-0.09209474387077232
-0.13139669169814724
-0.17078355948584267
-0.017928188923849453
0.06463631946187956
-0.0004201269804783858
-0.40084289887654456
-0.06221051970859269
-0.16311606654574115
-0.040921815882647816
0.15990619136630024
-0.001238534064524316
-0.2702696264576937
-0.3498418258036491
-0.25832214935488207
-0.15369747929559946
-0.06100135560462546
0.001541154757239968
0.0701588317114333
-0.04310916720246041
-0.0032109410574182387
-0.14258255939966671
0.005164656099861463
0.0952416892780461
0.08398723861391841
-0.031206445278193093
-0.1415328662091631
-0.1668877256854313
0.08517073840252543
-0.05730131394851523
-0.15236329759828537
0.12365751239380007
0.06500371061604224
0.021879199490583423
0.11194520273945721
-0.1174733033568971
-0.08587692558258359
-0.051450108170742456
-0.12465216321720804
0.05745852027046548
-0.12494188626198192
0.14035945033047137
-0.191619121714535
-0.06267790422254108
0.0037450133525856084
-0.23138833648061705
0.09848796376727749
-0.07123906314173076
-0.052850306952975684
0.18771445231939782
-0.19616821766200276
0.033382178441545604
0.11414433008369886
-0.1980344043858228
0.12188183185790666
0.013166326180146522
-0.040652253872765824
0.08095681736651737
-0.022771806952434064
0.03600180978836336
-0.12100415506015338
0.05653653159366705
-0.09409374286918501
0.0718589405120177
-0.12895188145639566
-0.26077966119549667
1.081807469907472
-0.12533520835223377
-0.027086010362497262
-0.14169178809566674
0.12532342615702213
-0.06187466702942292
-0.01612538096237434
-0.06323986110933852
-0.02756835805616406
0.2709462226038588
0.2315636598953675
0.26667973186165517
0.35715928368699834
0.14745291962972784
0.3373476376120954
0.13579669640858671
0.15502635517281432
-0.04148823428128849
0.1406396709910724
0.024200888570442444
0.07750905918779344
-0.08371323911557031
-0.0444945934344653
0.10622834103382187
0.0056381344308297915
0.24915690385008404
0.18050230659761296
0.0829839633866101
-0.08651656784951607
0.1989239546637886
-0.12219584195497456
0.030522229616148353
0.0176758581995107
0.026200062889742085
0.03395912845757781
0.06773548819673958
-0.008331785977364144
0.10764688112901004
-0.016416109620007786
-0.15392788679670974
0.10390177397156888
0.01730498818310122
-0.10601219962968128
-0.08216418038987847
0.09165158740351186
-0.022122256311565378
-0.12226720272860087
-0.030378224751613666
-0.15387959752639369
0.19804381883022532
-0.14978197090791118
-0.03921052526742996
-0.023054772588384658
0.027942662040564982
-0.02443428077400687
0.11134916620959726
-0.0957190594905191
0.022787558278745068
0.05101688971627486
-0.12001419739431451
0.1836395589197861
-0.1104623103741775
0.14481746378208385
-0.017772739853011855
0.18966564779725414
-0.012319513640416089
0.0427288092801074
-0.005154878497355325
-0.03729715450698648
0.18547903761566892
0.006957306614135218
0.0290734493038123
-0.13504073538746025
-0.19163733893384527
0.1798228066266994
0.036124343406884696
0.048712882465305404
0.26549841817933717
-0.03863337543946666
-0.23653413519064673
0.04275367919489747
0.15941058121630056
0.06375866481097499
0.14542257885810395
0.2535726521029166
0.1058830615248274
0.16765274967942714
-0.1868576357712295
0.09546840826536704
0.0748078704411225
0.12159286659406322
0.051245491110073295
0.2679461598096641
0.12520303787911635
-0.11616096360779143
0.08134187522075453
-0.07329783609514147
0.05360182329620982
0.21379048397411504
-0.022492289170321596
0.20692756674844742
0.044420299298743735
-0.03620426653134866
-0.008403310638835218
0.2177382406517306
0.24368254649442062
-0.17064171827756883
0.20821585980118573
0.09190371350544677
-0.05282919498886761
-0.06990452509197095
-0.18903508982589629
0.12232034460989506
0.027700930473581773
-0.13104627755951095
-0.018297932250205713
-0.0767236408392509
0.07165994995551658
0.1393508907190148
0.13312406677570618
-0.07309410470209353
0.09476857780866751
0.14417746728395162
-0.1657192999490251
0.1318954508977452
0.1725097652451874
-0.047194600205763944
0.08790132465461581
0.025971168576317497
0.1936450387778677
-0.018823107210421214
0.20837703122600904
0.3439062707459932
-0.024416323591219355
0.30018803068281125
0.03766589843717644
-0.0799967207319993
0.16518896541880274
0.23095961709152452
0.15224770415926242
0.053199355853409104
0.08099186706428337
-0.003285366525845962
0.18384336419974995
0.019435395221924064
0.14410053312914606
0.15969747883553453
0.20912493843297497
0.02419696393615904
0.22936783993008064
0.10240628118083618
-0.007449559065691419
-0.05035192535394417
-0.2338828796352477
0.28885579202756523
0.18580203552144148
0.027057270933021814
-0.10767516845743172
0.048830978849745396
-0.05970996920291993
0.12120422549501428
0.06195754613655975
0.16970993076163174
0.1574199439853678
0.22886440988656945
0.07818994116300965
0.19705584065624052
0.00903982276912084
-0.14663358455163372
0.04776574516074334
0.13249544348064454
0.05969185774166519
0.09176104084425825
0.11482481852603554
-0.021396405753521627
0.07375216790137851
-0.1292402231626945
0.0028181210914483418
0.19686024248344336
0.12419091689486247
0.040506447678123184
-0.03855955308787208
0.10715090805223923
0.12284185833341225
0.033939399184134834
-0.004027160643012992
0.36812024578371655
-0.03263646332389178
0.13987066826241767
0.21953394119110894
-0.011151095828254298
-0.051152774049060726
-0.07096060493753299
0.04907529911424042
-0.053018298606002545
0.15913353965766414
-0.057012457004615616
0.24310364455519878
0.058879535349990124
0.23712528371704936
0.06011091006450445
0.1237727607525056
0.16182767288452407
-0.06613498835927685
0.2517159476974258
1.1734187936676113
-0.0809354271820614
0.08540240058157723
0.0734358528497745
0.15983058008727008
0.28213043173035224
0.10554306059745366
0.2590340054208759
0.04493763762316269
0.1526859417062716
0.45672315138081276
0.4632539267333472
0.2700854132944561
0.2197256490255079
0.41994751973706
0.23016728948948217
0.427494491549657
0.3455504480441346
0.1973911057023072
0.25706966553049293
0.07446423249396106
0.08757727016049083
0.1444910157853632
0.03230928470949311
0.07969126162263278
0.09233202756192455
0.20195651873925813
-0.011562921827127245
0.17616508117540253
-0.17148128500103343
0.19308006368527453
-0.10427165071072958
0.08456922038090384
-0.10265262052598959
0.0528926459055376
0.0334504268232083
0.13780492230308827
0.283348739958413
-0.06472353740375758
-0.07380383513106123
-0.038561699668215085
0.11884131084637488
-0.1354268065824783
0.23085452244731713
0.2660203471665689
0.1544649767627736
0.0474984779761178
0.19427013529276652
-0.07566440308378494
0.2234714503932627
0.07423454755514321
0.3067359437416969
0.014815893366029384
0.012244412643054911
0.22168888650863972
0.04325070592755652
0.1622604102518277
0.1895806356450944
0.10994223768381553
0.1533390820669863
0.03647415182017208
0.04784395502737686
0.05959284288544218
0.08477196496827
0.3420887954591261
0.10121047889677479
0.140529868810178
0.11686563867717864
0.06049965105687554
0.020920588320185576
0.0018450611213652185
0.10595511686971541
0.21094138332165924
0.0917909573162181
0.12683627455757493
0.01918045599007409
0.024846797791872002
-0.13506842554180917
0.1887299004934811
0.10297990399101513
0.312344692923787
0.23653076892589187
-0.09992387473513442
0.07604184233754059
0.004068768899406647
0.007942522949340003
0.13730281926104984
0.24683407712582905
0.029976623257671434
0.06391116421746736
-0.0052088627270106685
-0.08752623994760118
0.17282249996972532
0.09353694754386535
-0.12440619571930522
0.15113378013998946
0.06781434068556796
0.1624663381605808
0.14325472980537376
0.11141912577480871
0.03663179655812346
0.18080320746321737
0.12590779151397297
0.13112194906717914
-0.006047986871243499
0.14178545267084702
0.03779096877486221
0.14501650755492468
0.19917338404155988
0.06528570413900642
0.07240443745974771
0.10070980700996067
0.13624815602088947
0.057985823380371365
0.17437502546270978
0.08935672744669201
0.22312797238200727
0.23775020100347213
0.10956699934987414
0.09515896431016045
0.2126417983305457
0.0017410918620685417
0.13056550254953025
0.1361352227697787
0.14692365579790417
-0.04119495693902053
0.14444467414240325
0.26119611873543586
-0.05561476032485678
0.14417897516267264
-0.055300664095704305
0.09343066034345188
0.1928015980753515
0.005781591633276073
0.05546417701182903
0.23636330003872077
-0.07151731240576795
-0.03535501677729529
0.21594741513166404
0.08356816804263989
0.05751338110958592
0.27374288894288745
0.29316675737941034
0.18940588691283888
0.26234579598480523
0.0002974645231292178
0.11556922269375902
-0.010399004353904742
0.18918962560871838
0.2224767380018438
0.013508125988261135
0.028127491017510643
0.12563121379084066
0.11535734674526836
0.1751228506891238
0.05256909981309524
0.2998045982519043
0.16628984177525125
-0.028973045189568114
0.2656653607969099
0.31674876650311823
-0.08029028428281798
-0.06990915903587228
0.08899569585133722
0.10579802032102562
0.09504725360099324
-0.022715964903584726
0.12854848417343984
0.1890185899667175
0.039911668144584404
0.16219483550285838
0.08946356770440925
0.04575473183196477
0.31011876303689434
0.23023518349852584
-0.047436213442945824
0.040942078410971
0.09603333382068083
-0.14490984672275337
0.25958697998518443
-0.017358537146776667
0.02623954936492659
-0.09293963327673614
0.05943180524860402
-0.09862915583349076
-0.02652439738080699
0.09530145493558737
0.09547944368189851
0.026107999954222944
0.09437161000091407
0.1825915669972922
0.19651014312710813
0.14219172668921864
0.05731202854013057
0.10561950913843146
0.28493000747008435
0.118332069946079
0.004836000486636738
-0.057149278464855735
-0.15189183556703095
0.2826699083585072
0.1516810223295603
0.34367424102754274
0.26213932402497586
0.03276510566920721
0.02624099771530239
0.011898686343701947
-0.16826837830620203
0.1746378867394003
0.1920662469046488
0.09139478497846959
-0.1635967805439256
0.05092314883940627
-0.12419830981000828
0.1255890900547143
1.0020895174157123
-0.03730165342905922
-0.07079853808671141
-0.06198635234447328
0.0710037710741277
-0.043597631957291966
0.18114630113189323
-0.033121750852030174
0.2053987584517948
0.5707811522345609
0.20226627154674875
0.40033773792629446
0.3359276559599418
0.5017233547168038
0.37618469341474636
-0.13558367567599372
0.2973845704563659
0.16747568715790315
-0.03213879032705813
-0.01263240782509531
0.07369008318949295
0.02476009587370541
0.2832727056571271
0.0041280928081257676
0.10293379166633757
0.11119887595350578
-0.015174544039601598
-0.12604054401884462
0.10489342021595688
0.16179177144809567
0.020582881452589383
0.04617625642965096
-0.06143572258914403
-0.20756729712197194
0.006495934225848182
0.035620087595586616
-0.05208069483411286
0.15678441378793884
-0.038830735359944045
0.06041452886056761
0.09189548173562329
0.19881881339333038
0.34329281691426045
0.25215027927315525
0.24692242614294727
0.05774501601313474
-0.08130053756116748
0.018219965209826973
0.10357631082708116
-0.19454515513079357
0.1566782970693443
0.0853425843599168
-0.11803070140484648
-0.08749349348108329
0.0732732877683217
0.0056866863376640354
-0.1595793652372584
-0.060277785633859854
-0.028734488296155783
-0.09732408446012387
-0.008168262182384076
-0.30850203227960304
0.11235284047986754
-0.05099819372264448
-0.008124920633004677
0.2251227771477816
0.05885310502354023
-0.14820489109392923
0.004271116377069759
0.15698806423109374
0.18314940102265062
-0.17654440536246646
-0.08354189164405726
-0.10416790684464101
0.0709134141836181
-0.12845084899372977
-0.032475289530826484
-0.10420808945786923
0.11273463997115615
0.13205433966938374
0.1605332133574806
-0.11394938170928917
0.10576838428190707
-0.07138501530640495
0.045813445151016235
-0.03737655542146691
-0.11834331295609245
-0.062360353389362556
-0.09588347816061134
-0.08158932845377177
0.11457260442248841
0.07052509051932836
0.019019179555019076
-0.06192961240649297
-0.17290968118672076
-0.1484080981661534
0.07481158137767364
0.11463315354057257
-0.1795594876666556
-0.09363794002020691
-0.10462755038641236
0.10110966239107833
-0.006462332708323029
0.04842485169171317
-0.10733202834354022
0.1425177551404666
0.11321995912778726
0.08396166639012444
0.12620326142392477
0.05936945847224148
-0.06842942504645422
0.1135149994855241
0.06043244209765645
-0.10033276066152227
0.03149960731285385
0.0567994374548103
-0.10481457043939067
-0.12350295372668679
-0.08829905697676739
0.10921702730070629
-0.08016531295088268
-0.04965032353869203
0.07267227082813853
-0.1173813449162171
0.013983893580736189
0.02196739422545441
0.1492660556064219
0.028477953190938456
-0.06284131322715622
-0.039173824329019585
-0.2705535602834206
0.12145644462999383
0.06553791055194279
-0.06728868272245343
-0.3371198648870867
-0.03218785470550723
0.10263792328782553
0.06843769950323496
-0.21408360162283854
-0.14310327992453853
0.01825302569964412
0.02975812513524674
-0.028895144831194708
-0.0029864366640190744
0.1410192469028535
-0.13751247078655082
-0.194383165765343
0.0747473089651271
-0.03287983422087796
-0.11429386599742188
-0.12021758541391729
0.12707020749597397
-0.06288445668954219
-0.07912396257948924
0.004025843032909537
-0.08842311646690237
0.07997142569274716
-0.029300104145010823
0.14386559030615154
-0.18072083191892907
-0.03927341471266376
0.08010373821060934
-0.016142624973916574
-0.0728390917388193
0.06200634785912709
0.00833696146388064
-0.06667925695959068
0.005765444832671621
0.07869059462309819
-0.04322983706106855
-0.017683919087249197
-0.29826033573631683
-0.12056486995946306
-0.09639779021729147
-0.15352765970851168
0.19697939848378987
0.18893027563330372
0.1564229364852553
-0.34374634136703697
-0.05794315617711659
0.04402573878335041
0.1806465178517866
-0.2505696505828781
-0.02127629659940475
-0.19225890133057466
-0.043341475759504026
-0.09925915029761781
-0.013184541322842094
-0.24681603805549493
-0.1522865510556881
-0.11521729844578468
0.07538184060677319
-0.04369335494584983
0.06758500798974125
0.09341418350637976
0.03858243217424494
-0.04614084238199592
-0.052147201742297554
0.00326899898028965
0.09332632500856344
0.055915083757502634
0.17153312706517218
-0.037815790540549316
0.03202448117460635
-0.13074295200526181
-0.28218090049364875
-0.260790246390212
-0.007971043326824169
0.009632303299952696
-0.35907053776548514
-0.1895025112855131
-0.06093405651157959
-0.18054617868363532
-0.2658238945277853
-0.140227478136483
0.014941365495413292
-0.18716498113785876
-0.1428428674541758
-0.07620727586666334
-0.11423023585528425
-0.21578295840363043
0.07412084014744531
0.03409951886921159
0.17915621750609756
-0.1344683492587258
-0.010134023377493334
-0.23956240940970414
-0.030164002251751837
-0.16503614053511848
-0.22254298452023
-0.03002814532258452
-0.05354990496534731
-0.1041457981625557
-0.0629358930047134
0.010565959972142241
0.13785271939194138
-0.0023584748545114886
-0.09311545363548553
-0.16818476022055573
0.08771924578807723
0.05130327588538086
-0.13561075157233293
-0.0536122387203313
-0.143050025705649
-0.13907922973466505
-0.08835049443949165
0.14160256246297964
-0.16239242094795808
0.14711633045128672
-0.15480642461196942
0.14387834125020582
-0.08073879729445291
0.08552319901317358
0.04299235478528428
-0.23261246478250466
-0.16110212845231806
0.08379954523320098
0.07226474005677469
-0.042143051993189656
0.06747561944763125
-0.10189641416635496
-0.15544903073001345
-0.07688223688067379
0.0037455152758730376
-0.24155431562434382
-0.14238065118685642
-0.059085426460852034
-0.06102883477681263
-0.2358987908690166
-0.04792879284753842
0.13292314879736722
-0.08263450474146292
-0.0909123073673484
-0.003948078638488034
0.12103842678356844
-0.1896279991618716
-0.28233661754892814
-0.004387790405279826
-0.30847515781327967
-0.29518053774842823
-0.008600732494262867
-0.302566781172179
0.08424611772653488
-0.013896645748822795
-0.19387192741671028
-0.04845466720067379
-0.24119177974768713
-0.10665579141821965
-0.033848517185916506
-0.1912010578181476
-0.27824271554324176
-0.08533412159413176
-0.23930286874486834
-0.01939549364577442
-0.117343140981609
-0.26636136966234386
0.0007778717409434172
0.08287984604701144
-0.0028351960695636447
-0.25844752339262506
-0.40700802914912265
1.008079250066027
-0.48044651404817085
-0.17385214774755364
-0.1601361890443801
0.024211219690846483
0.25720070186550803
-0.12262241301977009
-0.006490163722540665
-0.314874989590336
-0.007062846723281446
0.04995557778718715
0.16973844599033505
0.38689091587738844
0.15075626339573028
0.3601929534554247
0.0752335150362408
-0.04705554433334423
-0.1564467642750788
0.12019179204623943
-0.20571671889380244
-0.2270991479698387
-0.14283724055546804
-0.3035888560921312
-0.07680836131985873
0.06130990851269712
-0.058786453623666614
-0.1610333980917994
-0.1330475405599575
-0.17554126226214642
-0.05672752123238145
-0.04498946404767478
-0.17429842407498553
0.002627831518264151
0.02163922061436739
-0.26804659685488014
-0.11096425890714201
-0.2260013501840427
-0.2007389417570188
-0.06213498558809874
-0.1990811908026111
-0.25019836681272717
-0.22193872541448434
-0.1320714672047019
-0.04338994860656436
-0.05224145411417929
-0.005786492785838981
0.047288844153029766
-0.12265063135778546
-0.03312274840391832
0.03161565668192258
-0.1234314097050368
-0.09816690864746906
-0.05940929042382163
0.09429457924861798
0.039922318093837644
0.06790688000707785
-0.07866833132035926
0.0746028461519891
-0.07999976362367892
-0.10792384390899273
-0.16987209510752863
-0.23575037814842809
-0.0778679409861355
-0.10822203169245133
-0.16816544874647898
-0.21799032361005427
-0.21327075917320348
-0.13110338499852459
-0.22919064846072956
-0.19189702701166644
-0.11988096897640595
-0.04455960159777313
0.03612219613081573
-0.14602189632173262
0.08214698926582464
-0.17359722410232162
-0.2916886047687419
-0.2239407266897993
0.015079482109087342
-0.06435824064570832
0.013867188279149734
-0.2877276116915439
-0.1370231978418428
-0.11063056811764638
-0.320748767761044
-0.17778332034881064
-0.10665315134702229
-0.07419140804580557
-0.30754206473649554
-0.28574018518685534
-0.11563572713914905
-0.15838020963577149
-0.13379553946628264
-0.04522085926199431
-0.003962770898689516
-0.40712509503493166
-0.09630206066461826
-0.16185707473109223
-0.1493956448154773
-0.017613512603317727
-0.11351984385340597
-0.0024963110222100404
-0.20406423206346228
-0.1184902518995869
-0.014275632205624597
-0.22905085149460275
-0.2031562127862685
0.01813818060546271
-0.006808195235208134
-0.2698668344280855
-0.16819400465643525
-0.3864297015633671
-0.20355099235883944
0.0016968996280975618
-0.2223650493508154
-0.19900224305220415
-0.14474812811860213
-0.027353593152876735
-0.2518291156334172
-0.12666161683094812
-0.045329736652695664
-0.13897257914081368
-0.08723900654123747
-0.18525791740123804
-0.12149940026542988
-0.09167100065202743
0.017942344086841033
-0.16901803217450834
-0.11419735140265241
-0.09835504214776523
-0.15638701199333227
-0.11363765157792599
0.031225069738543096
-0.16910617485000806
-0.10135322584738571
-0.07062395734248161
-0.23548591432420174
-0.04900965422833663
-0.052129539517539424
-0.15565931852928627
-0.14445283796729824
-0.007859566339232377
0.08853253349283287
0.013066717343969372
-0.29524569513209625
-0.21889325724380648
-0.18701845011360063
-0.11232419026267876
-0.05005940788916709
0.01174629188837202
-0.14268613257991633
0.12271380899368223
-0.31639380914936416
-0.12488847290835312
-0.044726096305017254
-0.1631703307506286
-0.10323131504330695
